'sample interval','ECG1','ECG2'
'0.004 sec','mV','mV'
0,-0.085,-0.045
1,-0.080,-0.055
2,-0.085,-0.065
3,-0.080,-0.055
4,-0.075,-0.045
5,-0.075,-0.045
6,-0.075,-0.045
7,-0.080,-0.050
8,-0.085,-0.055
9,-0.080,-0.060
10,-0.075,-0.065
11,-0.080,-0.055
12,-0.085,-0.045
13,-0.080,-0.040
14,-0.075,-0.035
15,-0.075,-0.045
16,-0.075,-0.055
17,-0.075,-0.055
18,-0.075,-0.055
19,-0.075,-0.055
20,-0.075,-0.055
21,-0.070,-0.040
22,-0.065,-0.040
23,-0.070,-0.050
24,-0.075,-0.055
25,-0.070,-0.055
26,-0.070,-0.055
27,-0.080,-0.055
28,-0.085,-0.055
29,-0.080,-0.050
30,-0.075,-0.045
31,-0.075,-0.045
32,-0.075,-0.045
33,-0.070,-0.050
34,-0.065,-0.055
35,-0.060,-0.050
36,-0.055,-0.040
37,-0.050,-0.030
38,-0.035,-0.015
39,-0.020,0.000
40,-0.010,0.005
41,0.000,0.005
42,0.010,0.015
43,0.015,0.025
44,0.045,0.035
45,0.075,0.045
46,0.095,0.050
47,0.115,0.050
48,0.105,0.010
49,0.095,-0.025
50,0.090,-0.045
51,0.085,-0.065
52,0.065,-0.060
53,0.040,-0.055
54,0.010,-0.055
55,-0.015,-0.055
56,-0.025,-0.060
57,-0.040,-0.065
58,-0.065,-0.070
59,-0.085,-0.075
60,-0.085,-0.075
61,-0.085,-0.075
62,-0.080,-0.080
63,-0.075,-0.085
64,-0.080,-0.085
65,-0.075,-0.075
66,-0.055,-0.050
67,-0.035,-0.015
68,-0.015,0.030
69,0.010,0.010
70,0.035,-0.055
71,0.240,-0.110
72,0.525,-0.160
73,0.860,-0.150
74,1.215,-0.115
75,1.165,-0.165
76,0.995,-0.250
77,0.435,-0.365
78,-0.210,-0.485
79,-0.465,-0.440
80,-0.665,-0.365
81,-0.585,-0.280
82,-0.470,-0.200
83,-0.345,-0.165
84,-0.215,-0.125
85,-0.145,-0.100
86,-0.075,-0.075
87,-0.080,-0.070
88,-0.085,-0.065
89,-0.095,-0.070
90,-0.105,-0.075
91,-0.100,-0.065
92,-0.095,-0.055
93,-0.090,-0.060
94,-0.085,-0.065
95,-0.090,-0.065
96,-0.095,-0.065
97,-0.090,-0.065
98,-0.085,-0.065
99,-0.085,-0.060
100,-0.085,-0.055
101,-0.085,-0.055
102,-0.085,-0.055
103,-0.080,-0.060
104,-0.075,-0.065
105,-0.075,-0.060
106,-0.070,-0.055
107,-0.060,-0.050
108,-0.055,-0.045
109,-0.055,-0.045
110,-0.055,-0.045
111,-0.050,-0.050
112,-0.040,-0.055
113,-0.030,-0.050
114,-0.025,-0.045
115,-0.025,-0.040
116,-0.020,-0.035
117,-0.010,-0.040
118,-0.005,-0.045
119,0.000,-0.050
120,0.005,-0.055
121,0.005,-0.055
122,0.010,-0.055
123,0.020,-0.050
124,0.030,-0.045
125,0.025,-0.045
126,0.050,-0.050
127,0.055,-0.055
128,0.065,-0.045
129,0.075,-0.035
130,0.085,-0.040
131,0.095,-0.045
132,0.105,-0.050
133,0.115,-0.055
134,0.125,-0.060
135,0.135,-0.065
136,0.150,-0.060
137,0.165,-0.055
138,0.180,-0.055
139,0.195,-0.055
140,0.205,-0.060
141,0.215,-0.065
142,0.225,-0.070
143,0.240,-0.075
144,0.255,-0.070
145,0.265,-0.065
146,0.265,-0.065
147,0.265,-0.065
148,0.270,-0.065
149,0.275,-0.065
150,0.280,-0.070
151,0.280,-0.075
152,0.270,-0.075
153,0.260,-0.070
154,0.250,-0.060
155,0.230,-0.055
156,0.205,-0.055
157,0.180,-0.055
158,0.155,-0.055
159,0.125,-0.050
160,0.100,-0.040
161,0.070,-0.035
162,0.040,-0.030
163,0.015,-0.025
164,-0.010,-0.025
165,-0.025,-0.025
166,-0.040,-0.030
167,-0.070,-0.030
168,-0.095,-0.025
169,-0.095,-0.025
170,-0.095,-0.025
171,-0.100,-0.020
172,-0.105,-0.015
173,-0.115,-0.025
174,-0.125,-0.035
175,-0.120,-0.030
176,-0.115,-0.025
177,-0.115,-0.025
178,-0.115,-0.025
179,-0.115,-0.025
180,-0.115,-0.025
181,-0.110,-0.035
182,-0.110,-0.045
183,-0.125,-0.045
184,-0.130,-0.045
185,-0.115,-0.035
186,-0.105,-0.025
187,-0.100,-0.025
188,-0.095,-0.025
189,-0.100,-0.030
190,-0.105,-0.035
191,-0.100,-0.035
192,-0.095,-0.035
193,-0.095,-0.030
194,-0.095,-0.025
195,-0.100,-0.030
196,-0.105,-0.035
197,-0.105,-0.035
198,-0.110,-0.035
199,-0.120,-0.035
200,-0.120,-0.035
201,-0.110,-0.030
202,-0.105,-0.025
203,-0.110,-0.030
204,-0.115,-0.035
205,-0.115,-0.040
206,-0.115,-0.045
207,-0.115,-0.040
208,-0.115,-0.035
209,-0.115,-0.035
210,-0.120,-0.035
211,-0.125,-0.035
212,-0.125,-0.045
213,-0.125,-0.055
214,-0.135,-0.045
215,-0.145,-0.035
216,-0.140,-0.035
217,-0.135,-0.035
218,-0.135,-0.040
219,-0.135,-0.045
220,-0.140,-0.050
221,-0.145,-0.055
222,-0.140,-0.055
223,-0.135,-0.055
224,-0.135,-0.050
225,-0.135,-0.045
226,-0.135,-0.045
227,-0.135,-0.045
228,-0.135,-0.055
229,-0.135,-0.065
230,-0.150,-0.060
231,-0.150,-0.055
232,-0.140,-0.050
233,-0.135,-0.045
234,-0.140,-0.045
235,-0.145,-0.050
236,-0.145,-0.060
237,-0.140,-0.065
238,-0.130,-0.060
239,-0.125,-0.055
240,-0.130,-0.050
241,-0.135,-0.045
242,-0.140,-0.045
243,-0.145,-0.050
244,-0.145,-0.060
245,-0.145,-0.065
246,-0.145,-0.060
247,-0.140,-0.055
248,-0.130,-0.055
249,-0.125,-0.055
250,-0.125,-0.055
251,-0.140,-0.055
252,-0.145,-0.055
253,-0.135,-0.055
254,-0.125,-0.055
255,-0.130,-0.055
256,-0.135,-0.055
257,-0.135,-0.050
258,-0.135,-0.045
259,-0.135,-0.055
260,-0.135,-0.065
261,-0.140,-0.060
262,-0.145,-0.055
263,-0.135,-0.050
264,-0.125,-0.045
265,-0.125,-0.050
266,-0.125,-0.055
267,-0.130,-0.060
268,-0.135,-0.065
269,-0.125,-0.060
270,-0.115,-0.055
271,-0.115,-0.050
272,-0.115,-0.045
273,-0.120,-0.050
274,-0.125,-0.055
275,-0.125,-0.060
276,-0.130,-0.065
277,-0.140,-0.060
278,-0.140,-0.055
279,-0.130,-0.055
280,-0.125,-0.055
281,-0.125,-0.055
282,-0.125,-0.055
283,-0.130,-0.060
284,-0.125,-0.065
285,-0.110,-0.060
286,-0.105,-0.055
287,-0.105,-0.055
288,-0.105,-0.055
289,-0.110,-0.055
290,-0.115,-0.055
291,-0.115,-0.060
292,-0.125,-0.065
293,-0.135,-0.065
294,-0.125,-0.060
295,-0.115,-0.055
296,-0.115,-0.055
297,-0.115,-0.055
298,-0.115,-0.060
299,-0.115,-0.065
300,-0.110,-0.065
301,-0.105,-0.065
302,-0.105,-0.055
303,-0.105,-0.045
304,-0.105,-0.050
305,-0.105,-0.055
306,-0.085,-0.050
307,-0.075,-0.040
308,-0.065,-0.020
309,-0.050,-0.005
310,-0.035,0.005
311,-0.020,0.015
312,-0.005,0.025
313,0.015,0.035
314,0.040,0.040
315,0.060,0.035
316,0.075,0.015
317,0.080,-0.010
318,0.065,-0.035
319,0.050,-0.050
320,0.030,-0.060
321,0.015,-0.065
322,-0.005,-0.070
323,-0.035,-0.075
324,-0.065,-0.075
325,-0.080,-0.075
326,-0.090,-0.075
327,-0.100,-0.075
328,-0.110,-0.080
329,-0.115,-0.085
330,-0.120,-0.090
331,-0.125,-0.095
332,-0.120,-0.095
333,-0.115,-0.095
334,-0.105,-0.085
335,-0.090,-0.045
336,-0.075,-0.005
337,-0.055,-0.010
338,-0.020,-0.020
339,0.140,-0.105
340,0.325,-0.175
341,0.655,-0.140
342,0.975,-0.115
343,1.225,-0.125
344,1.250,-0.175
345,0.580,-0.335
346,-0.005,-0.450
347,-0.390,-0.430
348,-0.640,-0.390
349,-0.620,-0.305
350,-0.555,-0.245
351,-0.430,-0.210
352,-0.315,-0.170
353,-0.210,-0.135
354,-0.155,-0.105
355,-0.140,-0.080
356,-0.135,-0.065
357,-0.130,-0.070
358,-0.125,-0.075
359,-0.130,-0.075
360,-0.135,-0.075
361,-0.140,-0.080
362,-0.140,-0.085
363,-0.130,-0.080
364,-0.125,-0.075
365,-0.130,-0.075
366,-0.130,-0.075
367,-0.120,-0.075
368,-0.115,-0.075
369,-0.115,-0.075
370,-0.115,-0.075
371,-0.120,-0.075
372,-0.120,-0.075
373,-0.110,-0.070
374,-0.105,-0.065
375,-0.105,-0.065
376,-0.095,-0.070
377,-0.085,-0.075
378,-0.085,-0.070
379,-0.085,-0.065
380,-0.085,-0.065
381,-0.085,-0.065
382,-0.075,-0.065
383,-0.065,-0.065
384,-0.065,-0.070
385,-0.065,-0.075
386,-0.055,-0.070
387,-0.045,-0.065
388,-0.040,-0.060
389,-0.035,-0.055
390,-0.030,-0.060
391,-0.025,-0.065
392,-0.020,-0.070
393,-0.015,-0.075
394,-0.005,-0.075
395,0.005,-0.075
396,0.020,-0.075
397,0.025,-0.075
398,0.030,-0.075
399,0.040,-0.075
400,0.055,-0.080
401,0.065,-0.085
402,0.065,-0.080
403,0.075,-0.075
404,0.095,-0.075
405,0.115,-0.075
406,0.130,-0.080
407,0.135,-0.085
408,0.140,-0.090
409,0.155,-0.095
410,0.170,-0.090
411,0.180,-0.085
412,0.190,-0.085
413,0.200,-0.085
414,0.210,-0.090
415,0.220,-0.095
416,0.230,-0.100
417,0.235,-0.100
418,0.235,-0.095
419,0.235,-0.090
420,0.235,-0.085
421,0.225,-0.090
422,0.215,-0.095
423,0.195,-0.090
424,0.175,-0.085
425,0.160,-0.075
426,0.140,-0.065
427,0.110,-0.050
428,0.080,-0.035
429,0.050,-0.045
430,0.020,-0.055
431,0.000,-0.060
432,-0.025,-0.065
433,-0.055,-0.060
434,-0.075,-0.055
435,-0.080,-0.050
436,-0.090,-0.045
437,-0.105,-0.050
438,-0.120,-0.055
439,-0.135,-0.055
440,-0.145,-0.055
441,-0.145,-0.050
442,-0.145,-0.045
443,-0.145,-0.045
444,-0.145,-0.045
445,-0.150,-0.050
446,-0.155,-0.060
447,-0.150,-0.070
448,-0.145,-0.075
449,-0.150,-0.070
450,-0.155,-0.065
451,-0.150,-0.060
452,-0.145,-0.055
453,-0.140,-0.055
454,-0.140,-0.055
455,-0.150,-0.060
456,-0.150,-0.065
457,-0.140,-0.060
458,-0.135,-0.055
459,-0.135,-0.045
460,-0.140,-0.050
461,-0.145,-0.055
462,-0.140,-0.060
463,-0.135,-0.065
464,-0.145,-0.060
465,-0.155,-0.055
466,-0.145,-0.055
467,-0.135,-0.055
468,-0.140,-0.055
469,-0.145,-0.055
470,-0.150,-0.060
471,-0.155,-0.065
472,-0.150,-0.060
473,-0.145,-0.055
474,-0.150,-0.055
475,-0.155,-0.055
476,-0.155,-0.060
477,-0.155,-0.065
478,-0.155,-0.070
479,-0.155,-0.075
480,-0.170,-0.070
481,-0.175,-0.065
482,-0.170,-0.065
483,-0.165,-0.065
484,-0.165,-0.070
485,-0.165,-0.075
486,-0.170,-0.075
487,-0.175,-0.075
488,-0.175,-0.075
489,-0.175,-0.075
490,-0.175,-0.075
491,-0.175,-0.075
492,-0.175,-0.075
493,-0.175,-0.075
494,-0.175,-0.080
495,-0.175,-0.085
496,-0.175,-0.085
497,-0.175,-0.085
498,-0.175,-0.080
499,-0.175,-0.075
500,-0.175,-0.075
501,-0.170,-0.080
502,-0.175,-0.085
503,-0.170,-0.080
504,-0.165,-0.075
505,-0.165,-0.075
506,-0.165,-0.075
507,-0.170,-0.080
508,-0.175,-0.085
509,-0.175,-0.090
510,-0.175,-0.095
511,-0.175,-0.085
512,-0.175,-0.075
513,-0.170,-0.080
514,-0.165,-0.085
515,-0.160,-0.085
516,-0.155,-0.085
517,-0.165,-0.090
518,-0.175,-0.095
519,-0.170,-0.090
520,-0.165,-0.085
521,-0.165,-0.080
522,-0.165,-0.075
523,-0.165,-0.080
524,-0.165,-0.085
525,-0.165,-0.085
526,-0.165,-0.085
527,-0.170,-0.085
528,-0.175,-0.085
529,-0.170,-0.080
530,-0.165,-0.075
531,-0.160,-0.075
532,-0.155,-0.080
533,-0.160,-0.090
534,-0.165,-0.090
535,-0.160,-0.080
536,-0.155,-0.075
537,-0.155,-0.075
538,-0.155,-0.075
539,-0.160,-0.080
540,-0.165,-0.085
541,-0.160,-0.090
542,-0.165,-0.090
543,-0.175,-0.085
544,-0.170,-0.080
545,-0.165,-0.075
546,-0.155,-0.075
547,-0.145,-0.075
548,-0.150,-0.080
549,-0.155,-0.085
550,-0.150,-0.085
551,-0.145,-0.085
552,-0.145,-0.080
553,-0.145,-0.075
554,-0.145,-0.080
555,-0.145,-0.085
556,-0.150,-0.090
557,-0.155,-0.095
558,-0.150,-0.090
559,-0.145,-0.085
560,-0.145,-0.080
561,-0.145,-0.075
562,-0.145,-0.080
563,-0.145,-0.085
564,-0.145,-0.090
565,-0.145,-0.095
566,-0.140,-0.090
567,-0.135,-0.085
568,-0.135,-0.080
569,-0.135,-0.075
570,-0.135,-0.080
571,-0.130,-0.085
572,-0.120,-0.085
573,-0.110,-0.070
574,-0.100,-0.045
575,-0.090,-0.035
576,-0.080,-0.030
577,-0.055,-0.020
578,-0.030,-0.010
579,-0.010,0.000
580,0.010,0.010
581,0.030,0.010
582,0.050,0.000
583,0.045,-0.030
584,0.025,-0.065
585,0.020,-0.080
586,0.015,-0.095
587,-0.010,-0.095
588,-0.035,-0.095
589,-0.080,-0.100
590,-0.115,-0.105
591,-0.120,-0.100
592,-0.125,-0.095
593,-0.135,-0.100
594,-0.145,-0.105
595,-0.145,-0.110
596,-0.145,-0.115
597,-0.135,-0.115
598,-0.125,-0.115
599,-0.130,-0.115
600,-0.130,-0.105
601,-0.115,-0.075
602,-0.100,-0.050
603,-0.080,-0.035
604,0.000,-0.055
605,0.145,-0.130
606,0.380,-0.165
607,0.700,-0.165
608,1.015,-0.155
609,1.335,-0.135
610,1.105,-0.195
611,0.540,-0.315
612,0.070,-0.365
613,-0.355,-0.380
614,-0.540,-0.345
615,-0.640,-0.290
616,-0.580,-0.240
617,-0.470,-0.185
618,-0.360,-0.175
619,-0.255,-0.170
620,-0.200,-0.140
621,-0.150,-0.110
622,-0.145,-0.105
623,-0.145,-0.100
624,-0.145,-0.095
625,-0.145,-0.095
626,-0.155,-0.110
627,-0.155,-0.115
628,-0.150,-0.110
629,-0.145,-0.105
630,-0.140,-0.100
631,-0.135,-0.095
632,-0.135,-0.100
633,-0.135,-0.105
634,-0.135,-0.110
635,-0.135,-0.115
636,-0.135,-0.105
637,-0.135,-0.095
638,-0.130,-0.095
639,-0.125,-0.095
640,-0.115,-0.095
641,-0.105,-0.095
642,-0.105,-0.100
643,-0.105,-0.105
644,-0.100,-0.105
645,-0.095,-0.105
646,-0.095,-0.090
647,-0.095,-0.085
648,-0.095,-0.085
649,-0.090,-0.090
650,-0.075,-0.100
651,-0.065,-0.105
652,-0.070,-0.105
653,-0.070,-0.105
654,-0.060,-0.100
655,-0.050,-0.095
656,-0.040,-0.095
657,-0.035,-0.095
658,-0.035,-0.100
659,-0.025,-0.105
660,-0.010,-0.105
661,-0.005,-0.105
662,-0.005,-0.100
663,0.000,-0.100
664,0.010,-0.110
665,0.025,-0.115
666,0.040,-0.110
667,0.050,-0.110
668,0.055,-0.115
669,0.070,-0.115
670,0.085,-0.115
671,0.095,-0.115
672,0.105,-0.115
673,0.120,-0.120
674,0.135,-0.125
675,0.150,-0.125
676,0.165,-0.125
677,0.170,-0.125
678,0.175,-0.125
679,0.180,-0.130
680,0.185,-0.135
681,0.205,-0.140
682,0.215,-0.145
683,0.210,-0.145
684,0.205,-0.145
685,0.215,-0.140
686,0.225,-0.135
687,0.215,-0.130
688,0.195,-0.125
689,0.170,-0.125
690,0.150,-0.120
691,0.140,-0.110
692,0.125,-0.100
693,0.105,-0.085
694,0.080,-0.075
695,0.045,-0.075
696,0.020,-0.075
697,-0.005,-0.080
698,-0.030,-0.080
699,-0.055,-0.070
700,-0.065,-0.065
701,-0.070,-0.060
702,-0.085,-0.055
703,-0.100,-0.060
704,-0.115,-0.065
705,-0.130,-0.065
706,-0.130,-0.065
707,-0.120,-0.065
708,-0.115,-0.065
709,-0.125,-0.055
710,-0.130,-0.055
711,-0.135,-0.055
712,-0.130,-0.060
713,-0.125,-0.065
714,-0.130,-0.060
715,-0.135,-0.055
716,-0.125,-0.055
717,-0.115,-0.055
718,-0.115,-0.055
719,-0.115,-0.055
720,-0.115,-0.060
721,-0.115,-0.065
722,-0.110,-0.060
723,-0.105,-0.055
724,-0.110,-0.060
725,-0.115,-0.065
726,-0.115,-0.065
727,-0.115,-0.065
728,-0.115,-0.065
729,-0.115,-0.065
730,-0.120,-0.060
731,-0.125,-0.055
732,-0.120,-0.050
733,-0.115,-0.045
734,-0.120,-0.050
735,-0.125,-0.055
736,-0.120,-0.060
737,-0.115,-0.065
738,-0.115,-0.065
739,-0.120,-0.065
740,-0.130,-0.060
741,-0.135,-0.055
742,-0.130,-0.060
743,-0.125,-0.065
744,-0.125,-0.070
745,-0.125,-0.075
746,-0.130,-0.070
747,-0.135,-0.065
748,-0.135,-0.065
749,-0.135,-0.065
750,-0.135,-0.065
751,-0.140,-0.080
752,-0.135,-0.085
753,-0.140,-0.080
754,-0.145,-0.075
755,-0.140,-0.070
756,-0.135,-0.065
757,-0.140,-0.070
758,-0.145,-0.075
759,-0.140,-0.080
760,-0.135,-0.085
761,-0.145,-0.080
762,-0.155,-0.075
763,-0.150,-0.075
764,-0.145,-0.075
765,-0.145,-0.075
766,-0.145,-0.075
767,-0.145,-0.080
768,-0.145,-0.085
769,-0.140,-0.080
770,-0.135,-0.075
771,-0.135,-0.070
772,-0.135,-0.065
773,-0.140,-0.070
774,-0.145,-0.075
775,-0.140,-0.080
776,-0.135,-0.085
777,-0.140,-0.085
778,-0.145,-0.085
779,-0.140,-0.080
780,-0.135,-0.075
781,-0.140,-0.080
782,-0.145,-0.085
783,-0.145,-0.085
784,-0.140,-0.085
785,-0.130,-0.080
786,-0.125,-0.075
787,-0.125,-0.075
788,-0.125,-0.075
789,-0.125,-0.080
790,-0.125,-0.085
791,-0.125,-0.085
792,-0.135,-0.090
793,-0.145,-0.095
794,-0.135,-0.085
795,-0.125,-0.075
796,-0.125,-0.070
797,-0.125,-0.065
798,-0.125,-0.075
799,-0.125,-0.085
800,-0.120,-0.085
801,-0.115,-0.085
802,-0.110,-0.080
803,-0.105,-0.075
804,-0.115,-0.075
805,-0.125,-0.075
806,-0.120,-0.080
807,-0.115,-0.085
808,-0.120,-0.085
809,-0.125,-0.085
810,-0.115,-0.080
811,-0.105,-0.075
812,-0.105,-0.075
813,-0.110,-0.075
814,-0.120,-0.080
815,-0.120,-0.085
816,-0.105,-0.085
817,-0.095,-0.085
818,-0.095,-0.080
819,-0.095,-0.075
820,-0.095,-0.075
821,-0.095,-0.075
822,-0.095,-0.080
823,-0.100,-0.085
824,-0.110,-0.085
825,-0.105,-0.085
826,-0.090,-0.080
827,-0.085,-0.075
828,-0.090,-0.075
829,-0.095,-0.075
830,-0.095,-0.080
831,-0.090,-0.085
832,-0.080,-0.080
833,-0.075,-0.075
834,-0.075,-0.065
835,-0.070,-0.060
836,-0.065,-0.055
837,-0.050,-0.045
838,-0.035,-0.035
839,-0.040,-0.025
840,-0.045,-0.015
841,-0.020,-0.010
842,0.010,-0.005
843,0.045,0.015
844,0.075,0.030
845,0.085,0.010
846,0.095,-0.010
847,0.085,-0.040
848,0.075,-0.065
849,0.070,-0.070
850,0.055,-0.075
851,0.025,-0.080
852,-0.005,-0.085
853,-0.030,-0.090
854,-0.055,-0.095
855,-0.080,-0.095
856,-0.095,-0.095
857,-0.095,-0.095
858,-0.095,-0.095
859,-0.095,-0.095
860,-0.095,-0.095
861,-0.095,-0.100
862,-0.085,-0.105
863,-0.070,-0.110
864,-0.055,-0.085
865,-0.040,-0.040
866,-0.025,-0.020
867,-0.010,-0.010
868,0.115,-0.075
869,0.260,-0.170
870,0.550,-0.185
871,0.865,-0.180
872,1.155,-0.175
873,1.450,-0.175
874,0.870,-0.295
875,1.465,-0.175
876,-0.165,-0.415
877,-0.565,-0.405
878,-0.575,-0.325
879,-0.575,-0.255
880,-0.455,-0.205
881,-0.330,-0.165
882,-0.225,-0.145
883,-0.135,-0.125
884,-0.115,-0.110
885,-0.095,-0.095
886,-0.110,-0.100
887,-0.125,-0.105
888,-0.115,-0.095
889,-0.105,-0.085
890,-0.100,-0.085
891,-0.095,-0.085
892,-0.095,-0.090
893,-0.095,-0.095
894,-0.090,-0.090
895,-0.085,-0.085
896,-0.085,-0.085
897,-0.085,-0.085
898,-0.085,-0.080
899,-0.085,-0.075
900,-0.080,-0.080
901,-0.075,-0.085
902,-0.080,-0.085
903,-0.080,-0.080
904,-0.070,-0.070
905,-0.065,-0.065
906,-0.060,-0.070
907,-0.055,-0.075
908,-0.055,-0.080
909,-0.050,-0.085
910,-0.040,-0.085
911,-0.030,-0.080
912,-0.020,-0.070
913,-0.015,-0.065
914,-0.015,-0.070
915,-0.010,-0.075
916,0.000,-0.080
917,0.005,-0.080
918,0.005,-0.075
919,0.015,-0.070
920,0.025,-0.065
921,0.035,-0.070
922,0.045,-0.075
923,0.050,-0.080
924,0.055,-0.085
925,0.070,-0.080
926,0.085,-0.075
927,0.095,-0.075
928,0.105,-0.075
929,0.110,-0.080
930,0.115,-0.085
931,0.135,-0.090
932,0.145,-0.095
933,0.150,-0.090
934,0.160,-0.085
935,0.180,-0.090
936,0.200,-0.095
937,0.215,-0.095
938,0.230,-0.095
939,0.240,-0.100
940,0.250,-0.105
941,0.265,-0.100
942,0.275,-0.095
943,0.280,-0.100
944,0.285,-0.105
945,0.285,-0.105
946,0.285,-0.105
947,0.285,-0.105
948,0.280,-0.105
949,0.270,-0.100
950,0.265,-0.095
951,0.260,-0.090
952,0.240,-0.085
953,0.220,-0.085
954,0.195,-0.085
955,0.170,-0.080
956,0.145,-0.070
957,0.120,-0.060
958,0.095,-0.055
959,0.065,-0.045
960,0.040,-0.045
961,0.015,-0.045
962,0.005,-0.045
963,-0.005,-0.045
964,-0.030,-0.045
965,-0.055,-0.045
966,-0.055,-0.040
967,-0.055,-0.035
968,-0.060,-0.040
969,-0.065,-0.045
970,-0.070,-0.050
971,-0.075,-0.055
972,-0.075,-0.045
973,-0.075,-0.035
974,-0.070,-0.030
975,-0.065,-0.025
976,-0.070,-0.035
977,-0.075,-0.045
978,-0.065,-0.050
979,-0.055,-0.055
980,-0.070,-0.050
981,-0.070,-0.045
982,-0.060,-0.040
983,-0.055,-0.035
984,-0.055,-0.035
985,-0.055,-0.040
986,-0.060,-0.050
987,-0.060,-0.055
988,-0.050,-0.050
989,-0.045,-0.045
990,-0.045,-0.045
991,-0.045,-0.045
992,-0.050,-0.045
993,-0.055,-0.045
994,-0.055,-0.050
995,-0.055,-0.055
996,-0.060,-0.055
997,-0.065,-0.055
998,-0.060,-0.050
999,-0.055,-0.045
1000,-0.055,-0.045
1001,-0.070,-0.050
1002,-0.075,-0.055
1003,-0.070,-0.055
1004,-0.065,-0.055
1005,-0.065,-0.050
1006,-0.065,-0.045
1007,-0.070,-0.045
1008,-0.075,-0.045
1009,-0.075,-0.050
1010,-0.075,-0.055
1011,-0.080,-0.050
1012,-0.085,-0.045
1013,-0.085,-0.045
1014,-0.085,-0.045
1015,-0.090,-0.050
1016,-0.095,-0.055
1017,-0.090,-0.060
1018,-0.085,-0.065
1019,-0.085,-0.060
1020,-0.085,-0.055
1021,-0.085,-0.055
1022,-0.085,-0.055
1023,-0.085,-0.055
1024,-0.085,-0.055
1025,-0.085,-0.060
1026,-0.090,-0.065
1027,-0.100,-0.060
1028,-0.100,-0.055
1029,-0.090,-0.055
1030,-0.085,-0.055
1031,-0.085,-0.055
1032,-0.085,-0.055
1033,-0.090,-0.055
1034,-0.095,-0.055
1035,-0.090,-0.055
1036,-0.085,-0.055
1037,-0.085,-0.050
1038,-0.085,-0.045
1039,-0.085,-0.050
1040,-0.085,-0.055
1041,-0.080,-0.060
1042,-0.085,-0.060
1043,-0.095,-0.055
1044,-0.090,-0.050
1045,-0.085,-0.045
1046,-0.080,-0.050
1047,-0.075,-0.055
1048,-0.080,-0.055
1049,-0.085,-0.055
1050,-0.075,-0.055
1051,-0.065,-0.055
1052,-0.070,-0.055
1053,-0.075,-0.055
1054,-0.075,-0.055
1055,-0.075,-0.055
1056,-0.075,-0.060
1057,-0.075,-0.065
1058,-0.080,-0.060
1059,-0.085,-0.055
1060,-0.080,-0.050
1061,-0.075,-0.045
1062,-0.075,-0.050
1063,-0.075,-0.055
1064,-0.075,-0.055
1065,-0.075,-0.055
1066,-0.070,-0.055
1067,-0.065,-0.055
1068,-0.065,-0.055
1069,-0.065,-0.055
1070,-0.065,-0.055
1071,-0.065,-0.055
1072,-0.070,-0.055
1073,-0.075,-0.055
1074,-0.080,-0.060
1075,-0.080,-0.060
1076,-0.070,-0.050
1077,-0.065,-0.045
1078,-0.065,-0.045
1079,-0.065,-0.050
1080,-0.065,-0.060
1081,-0.065,-0.065
1082,-0.060,-0.060
1083,-0.055,-0.055
1084,-0.055,-0.045
1085,-0.055,-0.050
1086,-0.055,-0.055
1087,-0.055,-0.060
1088,-0.055,-0.065
1089,-0.065,-0.060
1090,-0.075,-0.055
1091,-0.065,-0.055
1092,-0.055,-0.055
1093,-0.055,-0.050
1094,-0.055,-0.045
1095,-0.055,-0.055
1096,-0.055,-0.065
1097,-0.050,-0.060
1098,-0.045,-0.055
1099,-0.050,-0.050
1100,-0.055,-0.045
1101,-0.050,-0.045
1102,-0.045,-0.045
1103,-0.040,-0.045
1104,-0.035,-0.045
1105,-0.020,-0.030
1106,-0.005,-0.015
1107,0.015,0.010
1108,0.025,0.025
1109,0.030,0.025
1110,0.045,0.025
1111,0.065,0.030
1112,0.095,0.040
1113,0.125,0.050
1114,0.135,0.035
1115,0.135,0.005
1116,0.120,-0.020
1117,0.100,-0.050
1118,0.090,-0.055
1119,0.080,-0.060
1120,0.045,-0.065
1121,0.010,-0.065
1122,-0.005,-0.065
1123,-0.020,-0.060
1124,-0.035,-0.055
1125,-0.025,-0.055
1126,-0.065,-0.075
1127,-0.075,-0.085
1128,-0.060,-0.080
1129,-0.045,-0.075
1130,-0.050,-0.070
1131,-0.055,-0.065
1132,-0.045,-0.060
1133,-0.035,-0.050
1134,-0.015,-0.010
1135,0.005,0.020
1136,0.015,-0.025
1137,0.090,-0.070
1138,0.330,-0.130
1139,0.595,-0.165
1140,0.905,-0.125
1141,1.150,-0.110
1142,1.285,-0.155
1143,1.085,-0.245
1144,0.420,-0.400
1145,-0.095,-0.460
1146,-0.445,-0.405
1147,-0.590,-0.335
1148,-0.540,-0.255
1149,-0.445,-0.205
1150,-0.310,-0.175
1151,-0.205,-0.140
1152,-0.115,-0.095
1153,-0.080,-0.070
1154,-0.070,-0.060
1155,-0.065,-0.055
1156,-0.065,-0.060
1157,-0.065,-0.065
1158,-0.070,-0.065
1159,-0.075,-0.065
1160,-0.070,-0.065
1161,-0.065,-0.065
1162,-0.065,-0.060
1163,-0.065,-0.055
1164,-0.065,-0.060
1165,-0.065,-0.065
1166,-0.060,-0.065
1167,-0.060,-0.060
1168,-0.065,-0.055
1169,-0.060,-0.050
1170,-0.055,-0.045
1171,-0.050,-0.050
1172,-0.045,-0.055
1173,-0.045,-0.055
1174,-0.045,-0.055
1175,-0.040,-0.050
1176,-0.035,-0.045
1177,-0.030,-0.040
1178,-0.025,-0.035
1179,-0.020,-0.035
1180,-0.015,-0.035
1181,-0.005,-0.045
1182,0.005,-0.055
1183,0.000,-0.050
1184,0.000,-0.045
1185,0.015,-0.040
1186,0.025,-0.035
1187,0.030,-0.035
1188,0.035,-0.040
1189,0.040,-0.050
1190,0.050,-0.055
1191,0.060,-0.050
1192,0.070,-0.045
1193,0.080,-0.045
1194,0.085,-0.045
1195,0.090,-0.050
1196,0.100,-0.055
1197,0.110,-0.055
1198,0.115,-0.055
1199,0.120,-0.060
1200,0.135,-0.060
1201,0.150,-0.050
1202,0.160,-0.050
1203,0.170,-0.060
1204,0.185,-0.065
1205,0.200,-0.065
1206,0.215,-0.065
1207,0.230,-0.065
1208,0.240,-0.065
1209,0.255,-0.055
1210,0.260,-0.065
1211,0.265,-0.075
1212,0.275,-0.075
1213,0.285,-0.075
1214,0.285,-0.080
1215,0.285,-0.085
1216,0.300,-0.075
1217,0.315,-0.065
1218,0.310,-0.065
1219,0.305,-0.065
1220,0.290,-0.070
1221,0.275,-0.075
1222,0.270,-0.065
1223,0.255,-0.055
1224,0.225,-0.050
1225,0.195,-0.045
1226,0.170,-0.040
1227,0.145,-0.035
1228,0.115,-0.040
1229,0.080,-0.045
1230,0.045,-0.030
1231,0.020,-0.025
1232,0.010,-0.025
1233,0.000,-0.025
1234,-0.015,-0.025
1235,-0.035,-0.025
1236,-0.055,-0.030
1237,-0.065,-0.035
1238,-0.065,-0.030
1239,-0.065,-0.025
1240,-0.070,-0.025
1241,-0.075,-0.025
1242,-0.080,-0.025
1243,-0.085,-0.025
1244,-0.085,-0.030
1245,-0.085,-0.035
1246,-0.090,-0.035
1247,-0.090,-0.030
1248,-0.080,-0.020
1249,-0.075,-0.015
1250,-0.075,-0.015
1251,-0.070,-0.030
1252,-0.065,-0.035
1253,-0.060,-0.040
1254,-0.055,-0.045
1255,-0.055,-0.035
1256,-0.055,-0.025
1257,-0.055,-0.025
1258,-0.055,-0.025
1259,-0.060,-0.035
1260,-0.065,-0.045
1261,-0.070,-0.040
1262,-0.075,-0.035
1263,-0.065,-0.030
1264,-0.055,-0.025
1265,-0.060,-0.025
1266,-0.065,-0.025
1267,-0.070,-0.035
1268,-0.075,-0.045
1269,-0.065,-0.040
1270,-0.055,-0.035
1271,-0.060,-0.030
1272,-0.070,-0.025
1273,-0.080,-0.030
1274,-0.085,-0.035
1275,-0.090,-0.040
1276,-0.095,-0.045
1277,-0.100,-0.045
1278,-0.100,-0.045
1279,-0.090,-0.040
1280,-0.085,-0.035
1281,-0.085,-0.040
1282,-0.090,-0.045
1283,-0.100,-0.050
1284,-0.105,-0.055
1285,-0.100,-0.055
1286,-0.095,-0.055
1287,-0.100,-0.050
1288,-0.105,-0.045
1289,-0.105,-0.045
1290,-0.105,-0.045
1291,-0.100,-0.050
1292,-0.105,-0.055
1293,-0.115,-0.055
1294,-0.110,-0.050
1295,-0.105,-0.045
1296,-0.105,-0.050
1297,-0.105,-0.055
1298,-0.105,-0.060
1299,-0.105,-0.065
1300,-0.105,-0.060
1301,-0.105,-0.055
1302,-0.105,-0.050
1303,-0.105,-0.045
1304,-0.105,-0.050
1305,-0.105,-0.055
1306,-0.100,-0.060
1307,-0.095,-0.065
1308,-0.105,-0.060
1309,-0.115,-0.055
1310,-0.105,-0.050
1311,-0.095,-0.045
1312,-0.100,-0.045
1313,-0.105,-0.050
1314,-0.105,-0.060
1315,-0.105,-0.065
1316,-0.100,-0.060
1317,-0.095,-0.055
1318,-0.095,-0.055
1319,-0.095,-0.055
1320,-0.095,-0.055
1321,-0.095,-0.055
1322,-0.095,-0.060
1323,-0.095,-0.065
1324,-0.100,-0.060
1325,-0.105,-0.055
1326,-0.100,-0.055
1327,-0.095,-0.055
1328,-0.095,-0.055
1329,-0.095,-0.055
1330,-0.095,-0.060
1331,-0.095,-0.065
1332,-0.095,-0.065
1333,-0.095,-0.065
1334,-0.095,-0.055
1335,-0.095,-0.060
1336,-0.095,-0.065
1337,-0.090,-0.060
1338,-0.085,-0.055
1339,-0.095,-0.060
1340,-0.105,-0.065
1341,-0.095,-0.060
1342,-0.085,-0.055
1343,-0.085,-0.060
1344,-0.085,-0.065
1345,-0.085,-0.060
1346,-0.085,-0.055
1347,-0.085,-0.060
1348,-0.085,-0.065
1349,-0.085,-0.060
1350,-0.085,-0.055
1351,-0.085,-0.060
1352,-0.085,-0.065
1353,-0.080,-0.065
1354,-0.075,-0.065
1355,-0.090,-0.065
1356,-0.090,-0.065
1357,-0.080,-0.060
1358,-0.075,-0.055
1359,-0.080,-0.060
1360,-0.085,-0.065
1361,-0.090,-0.070
1362,-0.095,-0.075
1363,-0.090,-0.070
1364,-0.085,-0.065
1365,-0.085,-0.060
1366,-0.085,-0.055
1367,-0.085,-0.055
1368,-0.085,-0.055
1369,-0.080,-0.060
1370,-0.080,-0.065
1371,-0.090,-0.065
1372,-0.090,-0.060
1373,-0.080,-0.050
1374,-0.075,-0.050
1375,-0.075,-0.045
1376,-0.075,-0.065
1377,-0.075,-0.065
1378,-0.065,-0.055
1379,-0.055,-0.045
1380,-0.035,-0.025
1381,-0.015,-0.005
1382,-0.015,0.000
1383,-0.015,0.005
1384,0.000,0.010
1385,0.015,0.015
1386,0.040,0.030
1387,0.060,0.045
1388,0.085,0.035
1389,0.105,0.015
1390,0.100,-0.015
1391,0.090,-0.040
1392,0.075,-0.070
1393,0.060,-0.085
1394,0.045,-0.080
1395,0.025,-0.075
1396,-0.010,-0.070
1397,-0.035,-0.065
1398,-0.055,-0.070
1399,-0.070,-0.080
1400,-0.085,-0.095
1401,-0.100,-0.105
1402,-0.110,-0.100
1403,-0.110,-0.095
1404,-0.100,-0.095
1405,-0.095,-0.095
1406,-0.100,-0.095
1407,-0.100,-0.085
1408,-0.090,-0.070
1409,-0.065,-0.035
1410,-0.030,0.005
1411,-0.015,-0.020
1412,0.000,-0.065
1413,0.220,-0.125
1414,0.465,-0.180
1415,0.790,-0.150
1416,1.115,-0.110
1417,1.180,-0.150
1418,1.215,-0.195
1419,0.535,-0.335
1420,-0.115,-0.465
1421,-0.405,-0.405
1422,-0.660,-0.350
1423,-0.595,-0.290
1424,-0.515,-0.230
1425,-0.375,-0.200
1426,-0.250,-0.170
1427,-0.170,-0.130
1428,-0.105,-0.095
1429,-0.110,-0.090
1430,-0.115,-0.085
1431,-0.115,-0.090
1432,-0.115,-0.095
1433,-0.125,-0.095
1434,-0.135,-0.095
1435,-0.125,-0.085
1436,-0.115,-0.075
1437,-0.115,-0.080
1438,-0.115,-0.085
1439,-0.120,-0.090
1440,-0.120,-0.095
1441,-0.110,-0.090
1442,-0.105,-0.085
1443,-0.105,-0.080
1444,-0.105,-0.075
1445,-0.105,-0.080
1446,-0.105,-0.085
1447,-0.100,-0.085
1448,-0.095,-0.085
1449,-0.100,-0.085
1450,-0.100,-0.085
1451,-0.090,-0.080
1452,-0.085,-0.075
1453,-0.080,-0.080
1454,-0.075,-0.085
1455,-0.070,-0.085
1456,-0.065,-0.085
1457,-0.060,-0.085
1458,-0.055,-0.080
1459,-0.045,-0.065
1460,-0.040,-0.070
1461,-0.035,-0.075
1462,-0.030,-0.085
1463,-0.025,-0.095
1464,-0.025,-0.095
1465,-0.025,-0.095
1466,-0.010,-0.090
1467,0.005,-0.085
1468,0.010,-0.080
1469,0.015,-0.075
1470,0.025,-0.085
1471,0.035,-0.095
1472,0.050,-0.095
1473,0.065,-0.095
1474,0.075,-0.095
1475,0.085,-0.095
1476,0.090,-0.090
1477,0.095,-0.085
1478,0.105,-0.095
1479,0.115,-0.105
1480,0.120,-0.105
1481,0.140,-0.105
1482,0.170,-0.100
1483,0.185,-0.095
1484,0.190,-0.100
1485,0.200,-0.110
1486,0.210,-0.120
1487,0.225,-0.125
1488,0.240,-0.125
1489,0.245,-0.125
1490,0.245,-0.120
1491,0.245,-0.115
1492,0.240,-0.115
1493,0.235,-0.115
1494,0.240,-0.115
1495,0.225,-0.115
1496,0.200,-0.115
1497,0.190,-0.110
1498,0.180,-0.100
1499,0.150,-0.090
1500,0.175,-0.095
1501,0.085,-0.080
1502,0.055,-0.085
1503,0.040,-0.080
1504,0.025,-0.075
1505,-0.005,-0.070
1506,-0.035,-0.065
1507,-0.060,-0.065
1508,-0.085,-0.065
1509,-0.095,-0.070
1510,-0.105,-0.075
1511,-0.130,-0.075
1512,-0.145,-0.075
1513,-0.145,-0.065
1514,-0.145,-0.055
1515,-0.145,-0.060
1516,-0.145,-0.065
1517,-0.150,-0.070
1518,-0.155,-0.075
1519,-0.145,-0.075
1520,-0.135,-0.075
1521,-0.135,-0.070
1522,-0.135,-0.065
1523,-0.135,-0.065
1524,-0.135,-0.065
1525,-0.135,-0.070
1526,-0.135,-0.075
1527,-0.140,-0.075
1528,-0.145,-0.075
1529,-0.140,-0.070
1530,-0.135,-0.065
1531,-0.135,-0.065
1532,-0.135,-0.070
1533,-0.140,-0.080
1534,-0.145,-0.085
1535,-0.140,-0.080
1536,-0.135,-0.075
1537,-0.135,-0.070
1538,-0.140,-0.065
1539,-0.150,-0.070
1540,-0.150,-0.075
1541,-0.140,-0.080
1542,-0.145,-0.080
1543,-0.155,-0.075
1544,-0.150,-0.075
1545,-0.145,-0.075
1546,-0.145,-0.075
1547,-0.145,-0.075
1548,-0.155,-0.080
1549,-0.165,-0.085
1550,-0.160,-0.085
1551,-0.155,-0.085
1552,-0.155,-0.080
1553,-0.155,-0.075
1554,-0.165,-0.080
1555,-0.175,-0.085
1556,-0.170,-0.090
1557,-0.165,-0.095
1558,-0.175,-0.085
1559,-0.185,-0.075
1560,-0.180,-0.080
1561,-0.175,-0.085
1562,-0.175,-0.090
1563,-0.175,-0.095
1564,-0.180,-0.095
1565,-0.180,-0.095
1566,-0.170,-0.090
1567,-0.165,-0.085
1568,-0.170,-0.090
1569,-0.175,-0.095
1570,-0.175,-0.095
1571,-0.175,-0.095
1572,-0.175,-0.095
1573,-0.180,-0.095
1574,-0.190,-0.095
1575,-0.190,-0.095
1576,-0.180,-0.090
1577,-0.175,-0.085
1578,-0.175,-0.090
1579,-0.175,-0.095
1580,-0.180,-0.100
1581,-0.180,-0.105
1582,-0.170,-0.100
1583,-0.165,-0.095
1584,-0.165,-0.085
1585,-0.170,-0.090
1586,-0.175,-0.095
1587,-0.175,-0.100
1588,-0.175,-0.105
1589,-0.190,-0.100
1590,-0.205,-0.095
1591,-0.190,-0.095
1592,-0.175,-0.095
1593,-0.175,-0.090
1594,-0.175,-0.085
1595,-0.180,-0.095
1596,-0.185,-0.105
1597,-0.180,-0.100
1598,-0.175,-0.095
1599,-0.175,-0.095
1600,-0.175,-0.095
1601,-0.175,-0.095
1602,-0.175,-0.095
1603,-0.180,-0.100
1604,-0.185,-0.105
1605,-0.190,-0.100
1606,-0.190,-0.095
1607,-0.175,-0.095
1608,-0.165,-0.095
1609,-0.170,-0.095
1610,-0.175,-0.100
1611,-0.175,-0.110
1612,-0.170,-0.110
1613,-0.160,-0.100
1614,-0.155,-0.095
1615,-0.160,-0.095
1616,-0.170,-0.095
1617,-0.180,-0.095
1618,-0.185,-0.095
1619,-0.180,-0.100
1620,-0.175,-0.105
1621,-0.180,-0.100
1622,-0.175,-0.095
1623,-0.160,-0.095
1624,-0.155,-0.095
1625,-0.155,-0.095
1626,-0.170,-0.100
1627,-0.175,-0.105
1628,-0.165,-0.105
1629,-0.155,-0.105
1630,-0.160,-0.100
1631,-0.165,-0.095
1632,-0.165,-0.095
1633,-0.165,-0.095
1634,-0.165,-0.100
1635,-0.165,-0.105
1636,-0.170,-0.105
1637,-0.175,-0.105
1638,-0.165,-0.105
1639,-0.155,-0.105
1640,-0.155,-0.100
1641,-0.155,-0.095
1642,-0.160,-0.100
1643,-0.165,-0.105
1644,-0.155,-0.100
1645,-0.145,-0.095
1646,-0.145,-0.095
1647,-0.145,-0.090
1648,-0.145,-0.080
1649,-0.140,-0.070
1650,-0.125,-0.060
1651,-0.115,-0.055
1652,-0.115,-0.050
1653,-0.100,-0.035
1654,-0.075,-0.015
1655,-0.045,0.000
1656,-0.015,0.010
1657,0.005,0.005
1658,0.020,-0.010
1659,0.025,-0.035
1660,0.025,-0.060
1661,0.025,-0.075
1662,0.020,-0.090
1663,-0.010,-0.095
1664,-0.040,-0.095
1665,-0.070,-0.105
1666,-0.100,-0.120
1667,-0.130,-0.120
1668,-0.155,-0.115
1669,-0.155,-0.120
1670,-0.155,-0.125
1671,-0.160,-0.120
1672,-0.165,-0.115
1673,-0.165,-0.125
1674,-0.165,-0.135
1675,-0.150,-0.130
1676,-0.135,-0.120
1677,-0.125,-0.085
1678,-0.110,-0.050
1679,-0.090,-0.030
1680,-0.050,-0.040
1681,0.035,-0.125
1682,0.210,-0.185
1683,0.540,-0.190
1684,0.880,-0.185
1685,1.235,-0.160
1686,1.235,-0.195
1687,0.785,-0.305
1688,0.310,-0.370
1689,-0.180,-0.385
1690,-0.490,-0.365
1691,-0.650,-0.300
1692,-0.645,-0.245
1693,-0.520,-0.195
1694,-0.410,-0.170
1695,-0.310,-0.160
1696,-0.240,-0.150
1697,-0.180,-0.140
1698,-0.170,-0.135
1699,-0.180,-0.130
1700,-0.185,-0.125
1701,-0.180,-0.120
1702,-0.175,-0.115
1703,-0.175,-0.110
1704,-0.175,-0.110
1705,-0.180,-0.120
1706,-0.175,-0.125
1707,-0.160,-0.120
1708,-0.155,-0.115
1709,-0.145,-0.105
1710,-0.150,-0.105
1711,-0.155,-0.105
1712,-0.155,-0.105
1713,-0.155,-0.105
1714,-0.155,-0.110
1715,-0.155,-0.115
1716,-0.140,-0.105
1717,-0.125,-0.095
1718,-0.125,-0.095
1719,-0.125,-0.095
1720,-0.130,-0.100
1721,-0.130,-0.105
1722,-0.110,-0.105
1723,-0.095,-0.105
1724,-0.095,-0.100
1725,-0.095,-0.095
1726,-0.095,-0.100
1727,-0.095,-0.105
1728,-0.085,-0.105
1729,-0.075,-0.105
1730,-0.080,-0.100
1731,-0.080,-0.095
1732,-0.065,-0.095
1733,-0.050,-0.095
1734,-0.040,-0.100
1735,-0.035,-0.105
1736,-0.030,-0.110
1737,-0.020,-0.115
1738,-0.010,-0.110
1739,0.000,-0.105
1740,0.010,-0.105
1741,0.015,-0.105
1742,0.020,-0.110
1743,0.035,-0.115
1744,0.050,-0.120
1745,0.055,-0.125
1746,0.060,-0.125
1747,0.080,-0.125
1748,0.100,-0.120
1749,0.110,-0.115
1750,0.105,-0.115
1751,0.135,-0.135
1752,0.145,-0.145
1753,0.165,-0.145
1754,0.185,-0.145
1755,0.185,-0.140
1756,0.185,-0.135
1757,0.195,-0.140
1758,0.205,-0.145
1759,0.205,-0.150
1760,0.205,-0.155
1761,0.195,-0.150
1762,0.185,-0.145
1763,0.180,-0.140
1764,0.170,-0.135
1765,0.150,-0.130
1766,0.130,-0.125
1767,0.110,-0.120
1768,0.090,-0.115
1769,0.075,-0.105
1770,0.055,-0.095
1771,0.020,-0.080
1772,-0.005,-0.075
1773,-0.030,-0.075
1774,-0.050,-0.075
1775,-0.065,-0.070
1776,-0.085,-0.065
1777,-0.105,-0.070
1778,-0.115,-0.070
1779,-0.120,-0.060
1780,-0.130,-0.055
1781,-0.140,-0.060
1782,-0.145,-0.065
1783,-0.150,-0.065
1784,-0.150,-0.065
1785,-0.140,-0.065
1786,-0.135,-0.065
1787,-0.135,-0.065
1788,-0.135,-0.065
1789,-0.140,-0.065
1790,-0.145,-0.065
1791,-0.140,-0.070
1792,-0.140,-0.070
1793,-0.145,-0.065
1794,-0.140,-0.065
1795,-0.135,-0.065
1796,-0.135,-0.065
1797,-0.135,-0.065
1798,-0.135,-0.070
1799,-0.135,-0.075
1800,-0.130,-0.075
1801,-0.125,-0.075
1802,-0.130,-0.065
1803,-0.135,-0.055
1804,-0.135,-0.055
1805,-0.135,-0.055
1806,-0.135,-0.065
1807,-0.140,-0.075
1808,-0.155,-0.075
1809,-0.160,-0.075
1810,-0.145,-0.070
1811,-0.135,-0.065
1812,-0.135,-0.065
1813,-0.135,-0.065
1814,-0.140,-0.070
1815,-0.145,-0.075
1816,-0.140,-0.070
1817,-0.135,-0.065
1818,-0.135,-0.065
1819,-0.135,-0.065
1820,-0.140,-0.065
1821,-0.145,-0.065
1822,-0.150,-0.070
1823,-0.160,-0.075
1824,-0.170,-0.075
1825,-0.175,-0.075
1826,-0.170,-0.075
1827,-0.165,-0.075
1828,-0.165,-0.075
1829,-0.165,-0.075
1830,-0.165,-0.080
1831,-0.160,-0.085
1832,-0.150,-0.080
1833,-0.145,-0.075
1834,-0.155,-0.075
1835,-0.155,-0.080
1836,-0.155,-0.085
1837,-0.160,-0.085
1838,-0.165,-0.085
1839,-0.170,-0.085
1840,-0.175,-0.085
1841,-0.165,-0.085
1842,-0.155,-0.085
1843,-0.155,-0.085
1844,-0.155,-0.085
1845,-0.160,-0.090
1846,-0.165,-0.095
1847,-0.155,-0.090
1848,-0.145,-0.085
1849,-0.145,-0.080
1850,-0.145,-0.075
1851,-0.150,-0.080
1852,-0.155,-0.085
1853,-0.155,-0.090
1854,-0.155,-0.095
1855,-0.160,-0.090
1856,-0.160,-0.085
1857,-0.150,-0.085
1858,-0.145,-0.085
1859,-0.150,-0.080
1860,-0.155,-0.080
1861,-0.155,-0.090
1862,-0.145,-0.095
1863,-0.130,-0.090
1864,-0.125,-0.085
1865,-0.130,-0.080
1866,-0.135,-0.075
1867,-0.135,-0.075
1868,-0.135,-0.075
1869,-0.135,-0.080
1870,-0.135,-0.085
1871,-0.135,-0.080
1872,-0.135,-0.075
1873,-0.135,-0.075
1874,-0.135,-0.075
1875,-0.135,-0.075
1876,-0.130,-0.080
1877,-0.135,-0.085
1878,-0.130,-0.085
1879,-0.125,-0.085
1880,-0.125,-0.080
1881,-0.125,-0.075
1882,-0.120,-0.070
1883,-0.115,-0.065
1884,-0.120,-0.075
1885,-0.125,-0.085
1886,-0.125,-0.085
1887,-0.125,-0.085
1888,-0.120,-0.080
1889,-0.115,-0.075
1890,-0.110,-0.075
1891,-0.105,-0.075
1892,-0.110,-0.080
1893,-0.115,-0.085
1894,-0.110,-0.080
1895,-0.105,-0.075
1896,-0.105,-0.075
1897,-0.105,-0.075
1898,-0.105,-0.075
1899,-0.105,-0.075
1900,-0.105,-0.075
1901,-0.105,-0.075
1902,-0.110,-0.075
1903,-0.110,-0.075
1904,-0.100,-0.070
1905,-0.095,-0.065
1906,-0.095,-0.070
1907,-0.095,-0.075
1908,-0.095,-0.080
1909,-0.090,-0.085
1910,-0.080,-0.080
1911,-0.075,-0.070
1912,-0.070,-0.060
1913,-0.055,-0.040
1914,-0.040,-0.020
1915,-0.035,-0.015
1916,-0.030,-0.015
1917,-0.015,-0.005
1918,-0.005,0.005
1919,0.035,0.030
1920,0.075,0.055
1921,0.090,0.035
1922,0.105,0.010
1923,0.090,-0.030
1924,0.075,-0.065
1925,0.075,-0.070
1926,0.070,-0.075
1927,0.045,-0.070
1928,0.020,-0.065
1929,-0.010,-0.075
1930,-0.040,-0.085
1931,-0.060,-0.085
1932,-0.080,-0.085
1933,-0.095,-0.095
1934,-0.105,-0.105
1935,-0.095,-0.100
1936,-0.085,-0.095
1937,-0.085,-0.095
1938,-0.085,-0.095
1939,-0.080,-0.100
1940,-0.065,-0.080
1941,-0.040,-0.035
1942,-0.015,-0.015
1943,0.005,-0.015
1944,0.090,-0.070
1945,0.215,-0.155
1946,0.490,-0.175
1947,0.830,-0.160
1948,1.145,-0.165
1949,1.445,-0.180
1950,1.040,-0.290
1951,0.430,-0.430
1952,-0.045,-0.440
1953,-0.495,-0.420
1954,-0.585,-0.350
1955,-0.620,-0.275
1956,-0.505,-0.230
1957,-0.370,-0.190
1958,-0.250,-0.155
1959,-0.125,-0.115
1960,-0.100,-0.100
1961,-0.075,-0.085
1962,-0.080,-0.090
1963,-0.085,-0.095
1964,-0.095,-0.095
1965,-0.105,-0.095
1966,-0.095,-0.090
1967,-0.085,-0.085
1968,-0.085,-0.080
1969,-0.085,-0.075
1970,-0.085,-0.080
1971,-0.085,-0.085
1972,-0.075,-0.080
1973,-0.065,-0.075
1974,-0.065,-0.075
1975,-0.065,-0.075
1976,-0.065,-0.070
1977,-0.065,-0.065
1978,-0.065,-0.075
1979,-0.065,-0.085
1980,-0.065,-0.070
1981,-0.060,-0.065
1982,-0.050,-0.060
1983,-0.045,-0.055
1984,-0.040,-0.060
1985,-0.035,-0.065
1986,-0.030,-0.070
1987,-0.020,-0.075
1988,-0.010,-0.070
1989,-0.005,-0.060
1990,-0.005,-0.050
1991,-0.005,-0.045
1992,0.000,-0.050
1993,0.005,-0.055
1994,0.010,-0.060
1995,0.015,-0.065
1996,0.015,-0.065
1997,0.025,-0.065
1998,0.040,-0.060
1999,0.050,-0.055
2000,0.045,-0.055
2001,0.070,-0.060
2002,0.075,-0.065
2003,0.095,-0.070
2004,0.115,-0.075
2005,0.125,-0.065
2006,0.135,-0.055
2007,0.135,-0.060
2008,0.135,-0.065
2009,0.150,-0.075
2010,0.165,-0.085
2011,0.170,-0.080
2012,0.180,-0.075
2013,0.200,-0.075
2014,0.220,-0.075
2015,0.235,-0.070
2016,0.245,-0.065
2017,0.250,-0.075
2018,0.260,-0.085
2019,0.280,-0.085
2020,0.295,-0.085
2021,0.295,-0.080
2022,0.300,-0.075
2023,0.310,-0.075
2024,0.310,-0.075
2025,0.300,-0.080
2026,0.290,-0.085
2027,0.275,-0.080
2028,0.265,-0.075
2029,0.260,-0.070
2030,0.245,-0.065
2031,0.225,-0.060
2032,0.190,-0.055
2033,0.155,-0.055
2034,0.125,-0.055
2035,0.100,-0.050
2036,0.075,-0.040
2037,0.050,-0.030
2038,0.020,-0.025
2039,-0.010,-0.030
2040,-0.020,-0.035
2041,-0.030,-0.040
2042,-0.055,-0.040
2043,-0.075,-0.035
2044,-0.075,-0.030
2045,-0.075,-0.025
2046,-0.080,-0.025
2047,-0.085,-0.025
2048,-0.090,-0.030
2049,-0.095,-0.035
2050,-0.090,-0.035
2051,-0.085,-0.035
2052,-0.085,-0.035
2053,-0.085,-0.035
2054,-0.085,-0.035
2055,-0.085,-0.035
2056,-0.080,-0.040
2057,-0.075,-0.045
2058,-0.080,-0.040
2059,-0.085,-0.035
2060,-0.080,-0.030
2061,-0.075,-0.025
2062,-0.075,-0.030
2063,-0.075,-0.035
2064,-0.075,-0.040
2065,-0.075,-0.040
2066,-0.070,-0.030
2067,-0.065,-0.025
2068,-0.065,-0.030
2069,-0.065,-0.035
2070,-0.070,-0.030
2071,-0.075,-0.030
2072,-0.075,-0.040
2073,-0.080,-0.045
2074,-0.090,-0.045
2075,-0.095,-0.045
2076,-0.090,-0.040
2077,-0.085,-0.035
2078,-0.085,-0.035
2079,-0.085,-0.035
2080,-0.090,-0.040
2081,-0.095,-0.045
2082,-0.090,-0.045
2083,-0.085,-0.040
2084,-0.095,-0.025
2085,-0.100,-0.030
2086,-0.105,-0.035
2087,-0.105,-0.040
2088,-0.105,-0.045
2089,-0.110,-0.045
2090,-0.115,-0.045
2091,-0.115,-0.040
2092,-0.115,-0.035
2093,-0.115,-0.040
2094,-0.115,-0.045
2095,-0.115,-0.050
2096,-0.115,-0.055
2097,-0.110,-0.045
2098,-0.105,-0.035
2099,-0.105,-0.040
2100,-0.105,-0.045
2101,-0.110,-0.045
2102,-0.115,-0.045
2103,-0.110,-0.050
2104,-0.105,-0.055
2105,-0.120,-0.050
2106,-0.125,-0.045
2107,-0.120,-0.045
2108,-0.115,-0.045
2109,-0.110,-0.050
2110,-0.105,-0.055
2111,-0.110,-0.055
2112,-0.115,-0.055
2113,-0.110,-0.050
2114,-0.105,-0.045
2115,-0.105,-0.045
2116,-0.105,-0.045
2117,-0.110,-0.050
2118,-0.115,-0.055
2119,-0.110,-0.055
2120,-0.110,-0.055
2121,-0.120,-0.055
2122,-0.120,-0.055
2123,-0.110,-0.050
2124,-0.105,-0.045
2125,-0.105,-0.045
2126,-0.110,-0.055
2127,-0.115,-0.065
2128,-0.110,-0.060
2129,-0.105,-0.055
2130,-0.105,-0.050
2131,-0.105,-0.045
2132,-0.105,-0.045
2133,-0.105,-0.045
2134,-0.105,-0.050
2135,-0.105,-0.055
2136,-0.110,-0.050
2137,-0.115,-0.045
2138,-0.110,-0.045
2139,-0.105,-0.045
2140,-0.100,-0.050
2141,-0.095,-0.055
2142,-0.105,-0.055
2143,-0.115,-0.055
2144,-0.110,-0.055
2145,-0.105,-0.055
2146,-0.105,-0.050
2147,-0.105,-0.045
2148,-0.105,-0.050
2149,-0.105,-0.055
2150,-0.100,-0.055
2151,-0.095,-0.055
2152,-0.100,-0.055
2153,-0.105,-0.055
2154,-0.105,-0.050
2155,-0.105,-0.045
2156,-0.100,-0.050
2157,-0.095,-0.055
2158,-0.100,-0.060
2159,-0.100,-0.060
2160,-0.090,-0.050
2161,-0.085,-0.045
2162,-0.085,-0.045
2163,-0.085,-0.045
2164,-0.090,-0.045
2165,-0.095,-0.045
2166,-0.090,-0.050
2167,-0.090,-0.055
2168,-0.095,-0.055
2169,-0.095,-0.050
2170,-0.095,-0.045
2171,-0.090,-0.050
2172,-0.085,-0.055
2173,-0.085,-0.055
2174,-0.085,-0.055
2175,-0.080,-0.050
2176,-0.075,-0.045
2177,-0.070,-0.035
2178,-0.065,-0.025
2179,-0.050,-0.015
2180,-0.035,-0.005
2181,-0.015,0.000
2182,-0.005,0.010
2183,-0.005,0.025
2184,0.005,0.040
2185,0.045,0.055
2186,0.070,0.065
2187,0.085,0.055
2188,0.090,0.025
2189,0.080,-0.015
2190,0.075,-0.040
2191,0.070,-0.050
2192,0.055,-0.055
2193,0.035,-0.050
2194,0.010,-0.045
2195,-0.025,-0.050
2196,-0.045,-0.060
2197,-0.060,-0.070
2198,-0.080,-0.075
2199,-0.100,-0.075
2200,-0.105,-0.075
2201,-0.105,-0.075
2202,-0.105,-0.075
2203,-0.105,-0.075
2204,-0.105,-0.075
2205,-0.100,-0.080
2206,-0.085,-0.075
2207,-0.070,-0.060
2208,-0.055,-0.015
2209,-0.035,0.035
2210,-0.025,-0.010
2211,0.000,-0.055
2212,0.270,-0.130
2213,0.550,-0.190
2214,0.895,-0.140
2215,1.185,-0.100
2216,1.165,-0.165
2217,1.010,-0.240
2218,0.345,-0.375
2219,-0.220,-0.460
2220,-0.485,-0.400
2221,-0.655,-0.335
2222,-0.570,-0.265
2223,-0.475,-0.205
2224,-0.345,-0.175
2225,-0.235,-0.140
2226,-0.155,-0.100
2227,-0.105,-0.075
2228,-0.105,-0.070
2229,-0.110,-0.065
2230,-0.125,-0.070
2231,-0.130,-0.075
2232,-0.120,-0.070
2233,-0.115,-0.065
2234,-0.110,-0.065
2235,-0.105,-0.065
2236,-0.110,-0.065
2237,-0.115,-0.065
2238,-0.110,-0.065
2239,-0.105,-0.065
2240,-0.100,-0.060
2241,-0.095,-0.055
2242,-0.100,-0.055
2243,-0.105,-0.055
2244,-0.105,-0.060
2245,-0.105,-0.065
2246,-0.105,-0.060
2247,-0.100,-0.055
2248,-0.090,-0.050
2249,-0.085,-0.045
2250,-0.085,-0.045
2251,-0.075,-0.055
2252,-0.075,-0.055
2253,-0.060,-0.050
2254,-0.045,-0.045
2255,-0.045,-0.045
2256,-0.045,-0.045
2257,-0.040,-0.045
2258,-0.035,-0.045
2259,-0.035,-0.055
2260,-0.035,-0.065
2261,-0.035,-0.060
2262,-0.035,-0.055
2263,-0.020,-0.050
2264,-0.005,-0.045
2265,0.005,-0.045
2266,0.015,-0.045
2267,0.015,-0.050
2268,0.020,-0.055
2269,0.040,-0.060
2270,0.055,-0.065
2271,0.060,-0.050
2272,0.065,-0.050
2273,0.070,-0.060
2274,0.080,-0.065
2275,0.090,-0.065
2276,0.095,-0.065
2277,0.100,-0.065
2278,0.120,-0.065
2279,0.145,-0.065
2280,0.160,-0.065
2281,0.170,-0.065
2282,0.180,-0.070
2283,0.190,-0.080
2284,0.210,-0.085
2285,0.230,-0.085
2286,0.235,-0.085
2287,0.240,-0.080
2288,0.245,-0.075
2289,0.250,-0.075
2290,0.255,-0.075
2291,0.255,-0.080
2292,0.245,-0.085
2293,0.235,-0.085
2294,0.230,-0.075
2295,0.225,-0.065
2296,0.210,-0.065
2297,0.195,-0.065
2298,0.170,-0.065
2299,0.145,-0.065
2300,0.125,-0.060
2301,0.100,-0.055
2302,0.070,-0.040
2303,0.040,-0.025
2304,0.015,-0.025
2305,-0.010,-0.025
2306,-0.035,-0.035
2307,-0.060,-0.045
2308,-0.080,-0.040
2309,-0.095,-0.035
2310,-0.100,-0.035
2311,-0.105,-0.035
2312,-0.105,-0.030
2313,-0.110,-0.030
2314,-0.125,-0.040
2315,-0.130,-0.045
2316,-0.115,-0.040
2317,-0.110,-0.035
2318,-0.120,-0.030
2319,-0.125,-0.025
2320,-0.125,-0.030
2321,-0.125,-0.035
2322,-0.125,-0.040
2323,-0.125,-0.045
2324,-0.130,-0.040
2325,-0.130,-0.035
2326,-0.120,-0.030
2327,-0.115,-0.025
2328,-0.115,-0.025
2329,-0.115,-0.025
2330,-0.115,-0.030
2331,-0.115,-0.035
2332,-0.110,-0.035
2333,-0.105,-0.035
2334,-0.115,-0.025
2335,-0.120,-0.030
2336,-0.125,-0.035
2337,-0.125,-0.040
2338,-0.125,-0.045
2339,-0.135,-0.045
2340,-0.145,-0.045
2341,-0.135,-0.040
2342,-0.125,-0.035
2343,-0.130,-0.030
2344,-0.135,-0.025
2345,-0.135,-0.035
2346,-0.135,-0.045
2347,-0.135,-0.045
2348,-0.135,-0.045
2349,-0.135,-0.045
2350,-0.135,-0.045
2351,-0.145,-0.045
2352,-0.155,-0.045
2353,-0.155,-0.050
2354,-0.155,-0.055
2355,-0.160,-0.055
2356,-0.165,-0.050
2357,-0.165,-0.040
2358,-0.165,-0.040
2359,-0.160,-0.050
2360,-0.155,-0.055
2361,-0.160,-0.055
2362,-0.165,-0.055
2363,-0.160,-0.060
2364,-0.155,-0.065
2365,-0.160,-0.060
2366,-0.165,-0.055
2367,-0.170,-0.055
2368,-0.175,-0.055
2369,-0.170,-0.060
2370,-0.165,-0.065
2371,-0.170,-0.065
2372,-0.175,-0.065
2373,-0.170,-0.060
2374,-0.165,-0.055
2375,-0.165,-0.055
2376,-0.175,-0.060
2377,-0.175,-0.065
2378,-0.170,-0.065
2379,-0.165,-0.065
2380,-0.165,-0.060
2381,-0.165,-0.055
2382,-0.165,-0.055
2383,-0.165,-0.055
2384,-0.160,-0.060
2385,-0.155,-0.065
2386,-0.165,-0.065
2387,-0.175,-0.065
2388,-0.175,-0.060
2389,-0.175,-0.055
2390,-0.170,-0.060
2391,-0.165,-0.065
2392,-0.165,-0.065
2393,-0.165,-0.065
2394,-0.165,-0.060
2395,-0.165,-0.055
2396,-0.165,-0.055
2397,-0.165,-0.055
2398,-0.165,-0.060
2399,-0.165,-0.065
2400,-0.165,-0.070
2401,-0.165,-0.075
2402,-0.170,-0.070
2403,-0.170,-0.065
2404,-0.160,-0.060
2405,-0.155,-0.055
2406,-0.155,-0.060
2407,-0.160,-0.065
2408,-0.170,-0.065
2409,-0.175,-0.065
2410,-0.170,-0.065
2411,-0.165,-0.065
2412,-0.165,-0.060
2413,-0.165,-0.055
2414,-0.165,-0.055
2415,-0.165,-0.060
2416,-0.160,-0.070
2417,-0.160,-0.070
2418,-0.165,-0.065
2419,-0.160,-0.065
2420,-0.155,-0.065
2421,-0.160,-0.060
2422,-0.165,-0.055
2423,-0.165,-0.065
2424,-0.165,-0.075
2425,-0.160,-0.070
2426,-0.155,-0.065
2427,-0.155,-0.065
2428,-0.155,-0.065
2429,-0.155,-0.065
2430,-0.155,-0.065
2431,-0.150,-0.070
2432,-0.145,-0.075
2433,-0.155,-0.070
2434,-0.165,-0.065
2435,-0.160,-0.065
2436,-0.155,-0.065
2437,-0.155,-0.065
2438,-0.155,-0.065
2439,-0.155,-0.065
2440,-0.155,-0.065
2441,-0.150,-0.070
2442,-0.145,-0.075
2443,-0.145,-0.070
2444,-0.145,-0.065
2445,-0.145,-0.065
2446,-0.140,-0.065
2447,-0.130,-0.060
2448,-0.115,-0.045
2449,-0.100,-0.030
2450,-0.095,-0.015
2451,-0.090,0.000
2452,-0.075,0.005
2453,-0.060,0.005
2454,-0.030,0.020
2455,0.000,0.040
2456,0.015,0.030
2457,0.030,0.010
2458,0.030,-0.020
2459,0.015,-0.055
2460,0.005,-0.065
2461,-0.005,-0.075
2462,-0.025,-0.085
2463,-0.045,-0.095
2464,-0.090,-0.090
2465,-0.125,-0.085
2466,-0.135,-0.085
2467,-0.145,-0.085
2468,-0.160,-0.090
2469,-0.175,-0.095
2470,-0.170,-0.105
2471,-0.165,-0.115
2472,-0.160,-0.110
2473,-0.155,-0.105
2474,-0.150,-0.100
2475,-0.145,-0.085
2476,-0.140,-0.055
2477,-0.120,-0.035
2478,-0.085,-0.025
2479,-0.010,-0.050
2480,0.105,-0.125
2481,0.345,-0.160
2482,0.695,-0.145
2483,1.020,-0.130
2484,1.325,-0.115
2485,1.085,-0.190
2486,0.505,-0.335
2487,0.015,-0.385
2488,-0.435,-0.390
2489,-0.605,-0.355
2490,-0.670,-0.290
2491,-0.595,-0.240
2492,-0.480,-0.195
2493,-0.370,-0.175
2494,-0.265,-0.160
2495,-0.215,-0.130
2496,-0.180,-0.100
2497,-0.175,-0.095
2498,-0.175,-0.090
2499,-0.175,-0.085
2500,-0.175,-0.085
2501,-0.185,-0.105
2502,-0.185,-0.115
2503,-0.180,-0.105
2504,-0.175,-0.095
2505,-0.170,-0.095
2506,-0.165,-0.095
2507,-0.170,-0.090
2508,-0.175,-0.085
2509,-0.170,-0.095
2510,-0.165,-0.105
2511,-0.165,-0.095
2512,-0.165,-0.085
2513,-0.160,-0.080
2514,-0.155,-0.075
2515,-0.145,-0.080
2516,-0.135,-0.085
2517,-0.140,-0.085
2518,-0.145,-0.085
2519,-0.135,-0.085
2520,-0.125,-0.085
2521,-0.120,-0.080
2522,-0.115,-0.075
2523,-0.115,-0.075
2524,-0.110,-0.080
2525,-0.100,-0.090
2526,-0.095,-0.095
2527,-0.100,-0.090
2528,-0.095,-0.085
2529,-0.075,-0.080
2530,-0.065,-0.075
2531,-0.065,-0.080
2532,-0.060,-0.085
2533,-0.050,-0.085
2534,-0.045,-0.085
2535,-0.040,-0.085
2536,-0.035,-0.085
2537,-0.030,-0.085
2538,-0.020,-0.085
2539,-0.010,-0.080
2540,0.005,-0.085
2541,0.020,-0.100
2542,0.025,-0.100
2543,0.025,-0.095
2544,0.050,-0.095
2545,0.075,-0.095
2546,0.080,-0.095
2547,0.085,-0.095
2548,0.095,-0.105
2549,0.105,-0.115
2550,0.125,-0.115
2551,0.145,-0.115
2552,0.155,-0.110
2553,0.165,-0.105
2554,0.165,-0.110
2555,0.165,-0.115
2556,0.170,-0.125
2557,0.175,-0.135
2558,0.175,-0.130
2559,0.175,-0.125
2560,0.185,-0.120
2561,0.195,-0.115
2562,0.190,-0.110
2563,0.180,-0.105
2564,0.165,-0.110
2565,0.150,-0.115
2566,0.135,-0.110
2567,0.110,-0.100
2568,0.085,-0.085
2569,0.060,-0.070
2570,0.035,-0.060
2571,0.010,-0.055
2572,-0.015,-0.060
2573,-0.050,-0.065
2574,-0.085,-0.065
2575,-0.095,-0.060
2576,-0.100,-0.050
2577,-0.115,-0.045
2578,-0.130,-0.045
2579,-0.145,-0.045
2580,-0.160,-0.050
2581,-0.160,-0.055
2582,-0.150,-0.055
2583,-0.145,-0.055
2584,-0.155,-0.045
2585,-0.160,-0.045
2586,-0.165,-0.045
2587,-0.165,-0.050
2588,-0.165,-0.055
2589,-0.170,-0.050
2590,-0.175,-0.045
2591,-0.170,-0.045
2592,-0.165,-0.045
2593,-0.160,-0.045
2594,-0.155,-0.045
2595,-0.155,-0.050
2596,-0.155,-0.055
2597,-0.145,-0.055
2598,-0.135,-0.055
2599,-0.140,-0.050
2600,-0.145,-0.045
2601,-0.150,-0.050
2602,-0.155,-0.055
2603,-0.160,-0.060
2604,-0.165,-0.065
2605,-0.170,-0.065
2606,-0.170,-0.065
2607,-0.160,-0.060
2608,-0.155,-0.055
2609,-0.155,-0.055
2610,-0.155,-0.055
2611,-0.160,-0.055
2612,-0.160,-0.055
2613,-0.150,-0.055
2614,-0.145,-0.055
2615,-0.145,-0.055
2616,-0.150,-0.055
2617,-0.160,-0.050
2618,-0.165,-0.050
2619,-0.170,-0.060
2620,-0.175,-0.065
2621,-0.180,-0.065
2622,-0.185,-0.065
2623,-0.180,-0.060
2624,-0.175,-0.055
2625,-0.175,-0.055
2626,-0.185,-0.065
2627,-0.185,-0.075
2628,-0.180,-0.075
2629,-0.175,-0.075
2630,-0.175,-0.070
2631,-0.175,-0.065
2632,-0.180,-0.065
2633,-0.185,-0.065
2634,-0.185,-0.070
2635,-0.185,-0.075
2636,-0.195,-0.075
2637,-0.205,-0.075
2638,-0.190,-0.070
2639,-0.175,-0.065
2640,-0.175,-0.070
2641,-0.175,-0.075
2642,-0.180,-0.080
2643,-0.185,-0.085
2644,-0.175,-0.080
2645,-0.165,-0.075
2646,-0.170,-0.075
2647,-0.175,-0.075
2648,-0.175,-0.070
2649,-0.175,-0.070
2650,-0.180,-0.080
2651,-0.185,-0.085
2652,-0.185,-0.080
2653,-0.180,-0.075
2654,-0.170,-0.075
2655,-0.165,-0.075
2656,-0.165,-0.075
2657,-0.165,-0.075
2658,-0.170,-0.080
2659,-0.175,-0.085
2660,-0.170,-0.080
2661,-0.165,-0.075
2662,-0.165,-0.075
2663,-0.165,-0.075
2664,-0.170,-0.075
2665,-0.175,-0.075
2666,-0.170,-0.075
2667,-0.175,-0.075
2668,-0.185,-0.075
2669,-0.175,-0.070
2670,-0.165,-0.065
2671,-0.170,-0.070
2672,-0.175,-0.075
2673,-0.170,-0.080
2674,-0.165,-0.085
2675,-0.160,-0.075
2676,-0.155,-0.065
2677,-0.160,-0.065
2678,-0.165,-0.065
2679,-0.165,-0.070
2680,-0.165,-0.075
2681,-0.160,-0.075
2682,-0.155,-0.075
2683,-0.160,-0.075
2684,-0.165,-0.075
2685,-0.155,-0.075
2686,-0.145,-0.075
2687,-0.150,-0.075
2688,-0.155,-0.075
2689,-0.155,-0.075
2690,-0.155,-0.075
2691,-0.155,-0.075
2692,-0.155,-0.075
2693,-0.155,-0.070
2694,-0.155,-0.065
2695,-0.150,-0.065
2696,-0.145,-0.070
2697,-0.145,-0.080
2698,-0.145,-0.085
2699,-0.145,-0.080
2700,-0.145,-0.075
2701,-0.140,-0.070
2702,-0.135,-0.065
2703,-0.135,-0.065
2704,-0.135,-0.065
2705,-0.135,-0.070
2706,-0.130,-0.075
2707,-0.120,-0.070
2708,-0.105,-0.050
2709,-0.085,-0.025
2710,-0.080,-0.020
2711,-0.075,-0.015
2712,-0.060,-0.010
2713,-0.045,-0.005
2714,-0.020,0.005
2715,0.005,0.015
2716,0.025,0.025
2717,0.045,0.030
2718,0.040,0.000
2719,0.035,-0.030
2720,0.030,-0.060
2721,0.025,-0.085
2722,0.010,-0.080
2723,-0.015,-0.075
2724,-0.045,-0.080
2725,-0.070,-0.085
2726,-0.090,-0.085
2727,-0.110,-0.085
2728,-0.125,-0.095
2729,-0.135,-0.105
2730,-0.135,-0.100
2731,-0.135,-0.095
2732,-0.130,-0.095
2733,-0.125,-0.095
2734,-0.120,-0.095
2735,-0.110,-0.085
2736,-0.095,-0.065
2737,-0.075,-0.035
2738,-0.055,0.000
2739,0.000,-0.025
2740,0.065,-0.090
2741,0.350,-0.135
2742,0.695,-0.175
2743,1.035,-0.175
2744,1.375,-0.160
2745,1.035,-0.230
2746,0.580,-0.325
2747,0.125,-0.360
2748,-0.330,-0.390
2749,-0.515,-0.335
2750,-0.355,-0.395
2751,-0.575,-0.225
2752,-0.460,-0.185
2753,-0.345,-0.155
2754,-0.230,-0.125
2755,-0.175,-0.110
2756,-0.125,-0.095
2757,-0.130,-0.090
2758,-0.135,-0.085
2759,-0.140,-0.090
2760,-0.145,-0.095
2761,-0.140,-0.095
2762,-0.135,-0.095
2763,-0.130,-0.090
2764,-0.125,-0.085
2765,-0.120,-0.090
2766,-0.115,-0.095
2767,-0.115,-0.095
2768,-0.115,-0.095
2769,-0.115,-0.090
2770,-0.115,-0.085
2771,-0.110,-0.085
2772,-0.105,-0.085
2773,-0.105,-0.080
2774,-0.105,-0.075
2775,-0.100,-0.080
2776,-0.095,-0.085
2777,-0.100,-0.085
2778,-0.095,-0.085
2779,-0.080,-0.080
2780,-0.075,-0.075
2781,-0.075,-0.075
2782,-0.075,-0.075
2783,-0.070,-0.080
2784,-0.060,-0.085
2785,-0.050,-0.080
2786,-0.045,-0.075
2787,-0.040,-0.070
2788,-0.035,-0.065
2789,-0.030,-0.065
2790,-0.025,-0.070
2791,-0.020,-0.080
2792,-0.010,-0.080
2793,-0.005,-0.075
2794,0.010,-0.070
2795,0.025,-0.065
2796,0.030,-0.070
2797,0.035,-0.075
2798,0.035,-0.080
2799,0.035,-0.085
2800,0.055,-0.080
2801,0.075,-0.075
2802,0.090,-0.075
2803,0.105,-0.075
2804,0.110,-0.080
2805,0.115,-0.085
2806,0.135,-0.095
2807,0.145,-0.105
2808,0.150,-0.100
2809,0.160,-0.095
2810,0.175,-0.095
2811,0.190,-0.095
2812,0.205,-0.100
2813,0.215,-0.105
2814,0.220,-0.105
2815,0.230,-0.105
2816,0.240,-0.105
2817,0.245,-0.105
2818,0.250,-0.100
2819,0.255,-0.095
2820,0.250,-0.100
2821,0.245,-0.105
2822,0.245,-0.105
2823,0.230,-0.105
2824,0.210,-0.100
2825,0.195,-0.090
2826,0.180,-0.080
2827,0.165,-0.075
2828,0.150,-0.070
2829,0.120,-0.065
2830,0.090,-0.060
2831,0.075,-0.055
2832,0.060,-0.050
2833,0.035,-0.045
2834,0.005,-0.035
2835,-0.015,-0.035
2836,-0.035,-0.035
2837,-0.045,-0.045
2838,-0.055,-0.055
2839,-0.070,-0.045
2840,-0.085,-0.035
2841,-0.080,-0.030
2842,-0.075,-0.025
2843,-0.075,-0.025
2844,-0.075,-0.025
2845,-0.085,-0.035
2846,-0.095,-0.045
2847,-0.080,-0.035
2848,-0.065,-0.025
2849,-0.070,-0.025
2850,-0.075,-0.025
2851,-0.075,-0.030
2852,-0.075,-0.035
2853,-0.075,-0.040
2854,-0.075,-0.045
2855,-0.075,-0.040
2856,-0.070,-0.035
2857,-0.060,-0.035
2858,-0.060,-0.035
2859,-0.070,-0.035
2860,-0.075,-0.035
2861,-0.075,-0.040
2862,-0.075,-0.045
2863,-0.070,-0.045
2864,-0.065,-0.040
2865,-0.065,-0.030
2866,-0.065,-0.030
2867,-0.070,-0.040
2868,-0.075,-0.045
2869,-0.075,-0.045
2870,-0.075,-0.045
2871,-0.080,-0.045
2872,-0.085,-0.045
2873,-0.080,-0.040
2874,-0.075,-0.035
2875,-0.075,-0.035
2876,-0.090,-0.045
2877,-0.095,-0.055
2878,-0.090,-0.050
2879,-0.085,-0.045
2880,-0.090,-0.040
2881,-0.095,-0.035
2882,-0.095,-0.035
2883,-0.095,-0.035
2884,-0.095,-0.045
2885,-0.095,-0.055
2886,-0.100,-0.050
2887,-0.105,-0.045
2888,-0.100,-0.040
2889,-0.095,-0.035
2890,-0.100,-0.040
2891,-0.105,-0.045
2892,-0.105,-0.050
2893,-0.105,-0.055
2894,-0.100,-0.050
2895,-0.095,-0.045
2896,-0.095,-0.045
2897,-0.095,-0.045
2898,-0.100,-0.045
2899,-0.105,-0.045
2900,-0.105,-0.050
2901,-0.105,-0.055
2902,-0.110,-0.055
2903,-0.110,-0.055
2904,-0.100,-0.050
2905,-0.095,-0.045
2906,-0.100,-0.045
2907,-0.105,-0.045
2908,-0.105,-0.050
2909,-0.105,-0.055
2910,-0.100,-0.055
2911,-0.095,-0.055
2912,-0.095,-0.050
2913,-0.095,-0.045
2914,-0.100,-0.045
2915,-0.105,-0.050
2916,-0.100,-0.060
2917,-0.100,-0.055
2918,-0.105,-0.045
2919,-0.100,-0.040
2920,-0.095,-0.035
2921,-0.090,-0.040
2922,-0.085,-0.045
2923,-0.095,-0.050
2924,-0.105,-0.055
2925,-0.095,-0.050
2926,-0.085,-0.045
2927,-0.085,-0.045
2928,-0.085,-0.045
2929,-0.090,-0.045
2930,-0.095,-0.045
2931,-0.085,-0.050
2932,-0.075,-0.055
2933,-0.085,-0.055
2934,-0.095,-0.055
2935,-0.090,-0.050
2936,-0.085,-0.045
2937,-0.085,-0.045
2938,-0.085,-0.050
2939,-0.090,-0.060
2940,-0.095,-0.060
2941,-0.090,-0.050
2942,-0.085,-0.045
2943,-0.085,-0.045
2944,-0.085,-0.045
2945,-0.080,-0.045
2946,-0.075,-0.045
2947,-0.075,-0.050
2948,-0.075,-0.055
2949,-0.080,-0.055
2950,-0.085,-0.055
2951,-0.080,-0.050
2952,-0.075,-0.045
2953,-0.075,-0.045
2954,-0.075,-0.045
2955,-0.075,-0.050
2956,-0.075,-0.055
2957,-0.075,-0.050
2958,-0.075,-0.045
2959,-0.075,-0.045
2960,-0.075,-0.045
2961,-0.075,-0.045
2962,-0.080,-0.055
2963,-0.085,-0.065
2964,-0.080,-0.055
2965,-0.075,-0.045
2966,-0.070,-0.045
2967,-0.065,-0.045
2968,-0.060,-0.045
2969,-0.055,-0.045
2970,-0.050,-0.045
2971,-0.040,-0.040
2972,-0.020,-0.020
2973,-0.005,0.000
2974,-0.005,0.015
2975,0.000,0.025
2976,0.015,0.025
2977,0.035,0.025
2978,0.060,0.035
2979,0.080,0.045
2980,0.095,0.030
2981,0.105,0.015
2982,0.105,-0.005
2983,0.100,-0.025
2984,0.090,-0.045
2985,0.075,-0.055
2986,0.055,-0.060
2987,0.025,-0.065
2988,-0.005,-0.060
2989,-0.025,-0.055
2990,-0.050,-0.055
2991,-0.060,-0.060
2992,-0.070,-0.070
2993,-0.080,-0.075
2994,-0.090,-0.080
2995,-0.090,-0.085
2996,-0.080,-0.085
2997,-0.075,-0.085
2998,-0.070,-0.080
2999,-0.055,-0.065
3000,-0.065,-0.075
3001,-0.015,-0.005
3002,0.005,0.035
3003,0.045,-0.030
3004,0.110,-0.095
3005,0.395,-0.130
3006,0.695,-0.165
3007,1.075,-0.130
3008,1.340,-0.120
3009,1.090,-0.200
3010,0.755,-0.290
3011,0.150,-0.400
3012,-0.335,-0.465
3013,-0.525,-0.395
3014,-0.625,-0.325
3015,-0.530,-0.260
3016,-0.420,-0.205
3017,-0.290,-0.175
3018,-0.185,-0.140
3019,-0.115,-0.100
3020,-0.075,-0.075
3021,-0.075,-0.060
3022,-0.075,-0.055
3023,-0.080,-0.060
3024,-0.085,-0.065
3025,-0.085,-0.065
3026,-0.085,-0.065
3027,-0.090,-0.065
3028,-0.090,-0.065
3029,-0.080,-0.060
3030,-0.075,-0.055
3031,-0.080,-0.060
3032,-0.085,-0.065
3033,-0.080,-0.070
3034,-0.075,-0.070
3035,-0.070,-0.060
3036,-0.065,-0.055
3037,-0.065,-0.050
3038,-0.065,-0.045
3039,-0.060,-0.050
3040,-0.055,-0.055
3041,-0.055,-0.055
3042,-0.050,-0.055
3043,-0.045,-0.055
3044,-0.040,-0.050
3045,-0.035,-0.045
3046,-0.030,-0.050
3047,-0.025,-0.055
3048,-0.020,-0.055
3049,-0.015,-0.055
3050,-0.005,-0.050
3051,0.005,-0.045
3052,0.010,-0.045
3053,0.015,-0.045
3054,0.020,-0.050
3055,0.025,-0.055
3056,0.030,-0.055
3057,0.035,-0.055
3058,0.040,-0.055
3059,0.050,-0.055
3060,0.065,-0.050
3061,0.075,-0.045
3062,0.080,-0.045
3063,0.090,-0.050
3064,0.100,-0.060
3065,0.110,-0.065
3066,0.125,-0.060
3067,0.135,-0.055
3068,0.140,-0.055
3069,0.150,-0.055
3070,0.170,-0.060
3071,0.185,-0.065
3072,0.200,-0.070
3073,0.205,-0.075
3074,0.210,-0.070
3075,0.230,-0.065
3076,0.250,-0.065
3077,0.260,-0.065
3078,0.270,-0.070
3079,0.275,-0.075
3080,0.275,-0.080
3081,0.285,-0.085
3082,0.300,-0.080
3083,0.305,-0.075
3084,0.305,-0.065
3085,0.300,-0.060
3086,0.295,-0.055
3087,0.290,-0.065
3088,0.285,-0.075
3089,0.255,-0.070
3090,0.225,-0.065
3091,0.215,-0.055
3092,0.200,-0.045
3093,0.170,-0.040
3094,0.140,-0.035
3095,0.105,-0.035
3096,0.070,-0.035
3097,0.050,-0.035
3098,0.030,-0.035
3099,0.010,-0.030
3100,-0.010,-0.025
3101,-0.030,-0.020
3102,-0.045,-0.015
3103,-0.050,-0.020
3104,-0.060,-0.025
3105,-0.075,-0.025
3106,-0.085,-0.025
3107,-0.080,-0.025
3108,-0.075,-0.025
3109,-0.080,-0.020
3110,-0.085,-0.020
3111,-0.090,-0.030
3112,-0.090,-0.035
3113,-0.080,-0.030
3114,-0.075,-0.025
3115,-0.075,-0.025
3116,-0.075,-0.025
3117,-0.075,-0.025
3118,-0.075,-0.025
3119,-0.075,-0.030
3120,-0.075,-0.035
3121,-0.080,-0.030
3122,-0.080,-0.025
3123,-0.070,-0.020
3124,-0.065,-0.015
3125,-0.065,-0.015
3126,-0.080,-0.020
3127,-0.085,-0.025
3128,-0.070,-0.025
3129,-0.055,-0.025
3130,-0.060,-0.020
3131,-0.065,-0.015
3132,-0.070,-0.020
3133,-0.075,-0.025
3134,-0.075,-0.025
3135,-0.075,-0.025
3136,-0.085,-0.030
3137,-0.095,-0.035
3138,-0.090,-0.030
3139,-0.085,-0.025
3140,-0.085,-0.025
3141,-0.085,-0.025
3142,-0.090,-0.030
3143,-0.095,-0.035
3144,-0.085,-0.035
3145,-0.075,-0.035
3146,-0.080,-0.035
3147,-0.090,-0.035
3148,-0.100,-0.030
3149,-0.105,-0.025
3150,-0.100,-0.030
3151,-0.100,-0.035
3152,-0.115,-0.035
3153,-0.120,-0.035
3154,-0.110,-0.035
3155,-0.105,-0.035
3156,-0.105,-0.030
3157,-0.105,-0.030
3158,-0.105,-0.040
3159,-0.105,-0.045
3160,-0.105,-0.045
3161,-0.105,-0.045
3162,-0.100,-0.040
3163,-0.095,-0.035
3164,-0.100,-0.035
3165,-0.105,-0.035
3166,-0.105,-0.040
3167,-0.110,-0.045
3168,-0.115,-0.045
3169,-0.105,-0.040
3170,-0.095,-0.035
3171,-0.095,-0.040
3172,-0.095,-0.045
3173,-0.100,-0.050
3174,-0.105,-0.055
3175,-0.100,-0.050
3176,-0.095,-0.045
3177,-0.095,-0.040
3178,-0.095,-0.035
3179,-0.095,-0.035
3180,-0.095,-0.035
3181,-0.100,-0.040
3182,-0.105,-0.045
3183,-0.110,-0.045
3184,-0.115,-0.045
3185,-0.105,-0.040
3186,-0.095,-0.035
3187,-0.095,-0.040
3188,-0.100,-0.045
3189,-0.110,-0.050
3190,-0.110,-0.055
3191,-0.095,-0.050
3192,-0.085,-0.045
3193,-0.085,-0.040
3194,-0.085,-0.035
3195,-0.090,-0.035
3196,-0.095,-0.035
3197,-0.095,-0.040
3198,-0.095,-0.045
3199,-0.100,-0.045
3200,-0.105,-0.045
3201,-0.100,-0.040
3202,-0.095,-0.035
3203,-0.095,-0.035
3204,-0.095,-0.040
3205,-0.095,-0.050
3206,-0.095,-0.055
3207,-0.090,-0.050
3208,-0.085,-0.045
3209,-0.085,-0.045
3210,-0.090,-0.045
3211,-0.095,-0.045
3212,-0.090,-0.050
3213,-0.085,-0.055
3214,-0.095,-0.050
3215,-0.105,-0.045
3216,-0.095,-0.045
3217,-0.085,-0.045
3218,-0.085,-0.045
3219,-0.085,-0.045
3220,-0.085,-0.055
3221,-0.085,-0.065
3222,-0.080,-0.060
3223,-0.075,-0.055
3224,-0.080,-0.045
3225,-0.085,-0.035
3226,-0.085,-0.035
3227,-0.085,-0.035
3228,-0.075,-0.045
3229,-0.070,-0.055
3230,-0.085,-0.055
3231,-0.090,-0.050
3232,-0.080,-0.040
3233,-0.075,-0.035
3234,-0.075,-0.040
3235,-0.075,-0.045
3236,-0.080,-0.050
3237,-0.075,-0.045
3238,-0.060,-0.030
3239,-0.045,-0.025
3240,-0.020,-0.020
3241,-0.015,0.000
3242,-0.010,0.020
3243,0.000,0.025
3244,0.010,0.020
3245,0.030,0.030
3246,0.050,0.050
3247,0.075,0.055
3248,0.100,0.060
3249,0.105,0.035
3250,0.105,0.065
3251,0.090,-0.035
3252,0.075,-0.065
3253,0.055,-0.060
3254,0.035,-0.055
3255,0.005,-0.055
3256,-0.025,-0.055
3257,-0.040,-0.055
3258,-0.055,-0.055
3259,-0.070,-0.065
3260,-0.085,-0.075
3261,-0.090,-0.080
3262,-0.095,-0.085
3263,-0.090,-0.080
3264,-0.085,-0.075
3265,-0.080,-0.075
3266,-0.075,-0.075
3267,-0.065,-0.065
3268,-0.045,-0.040
3269,-0.015,0.010
3270,0.010,0.010
3271,0.035,-0.045
3272,0.195,-0.100
3273,0.495,-0.150
3274,0.825,-0.150
3275,1.190,-0.105
3276,1.205,-0.130
3277,0.990,-0.205
3278,0.535,-0.310
3279,-0.050,-0.430
3280,-0.375,-0.425
3281,-0.590,-0.365
3282,-0.580,-0.300
3283,-0.485,-0.230
3284,-0.375,-0.195
3285,-0.255,-0.160
3286,-0.175,-0.120
3287,-0.105,-0.075
3288,-0.095,-0.065
3289,-0.095,-0.065
3290,-0.100,-0.065
3291,-0.110,-0.070
3292,-0.110,-0.070
3293,-0.105,-0.065
3294,-0.100,-0.065
3295,-0.095,-0.065
3296,-0.095,-0.065
3297,-0.095,-0.065
3298,-0.095,-0.070
3299,-0.095,-0.075
3300,-0.090,-0.065
3301,-0.085,-0.055
3302,-0.085,-0.055
3303,-0.085,-0.055
3304,-0.085,-0.055
3305,-0.085,-0.055
3306,-0.085,-0.060
3307,-0.085,-0.065
3308,-0.075,-0.060
3309,-0.065,-0.055
3310,-0.060,-0.050
3311,-0.055,-0.045
3312,-0.050,-0.050
3313,-0.040,-0.055
3314,-0.030,-0.055
3315,-0.025,-0.055
3316,-0.025,-0.055
3317,-0.025,-0.055
3318,-0.020,-0.050
3319,-0.015,-0.045
3320,-0.010,-0.050
3321,-0.005,-0.055
3322,-0.005,-0.060
3323,0.000,-0.065
3324,0.010,-0.060
3325,0.015,-0.055
3326,0.020,-0.055
3327,0.030,-0.055
3328,0.040,-0.055
3329,0.050,-0.055
3330,0.060,-0.060
3331,0.075,-0.065
3332,0.090,-0.065
3333,0.095,-0.065
3334,0.105,-0.055
3335,0.115,-0.060
3336,0.125,-0.065
3337,0.135,-0.070
3338,0.145,-0.075
3339,0.160,-0.075
3340,0.175,-0.075
3341,0.190,-0.075
3342,0.205,-0.075
3343,0.215,-0.075
3344,0.225,-0.075
3345,0.235,-0.080
3346,0.245,-0.085
3347,0.255,-0.085
3348,0.265,-0.085
3349,0.270,-0.085
3350,0.275,-0.085
3351,0.275,-0.085
3352,0.270,-0.085
3353,0.255,-0.085
3354,0.245,-0.085
3355,0.240,-0.080
3356,0.230,-0.075
3357,0.215,-0.070
3358,0.195,-0.065
3359,0.165,-0.060
3360,0.140,-0.055
3361,0.110,-0.060
3362,0.080,-0.060
3363,0.055,-0.050
3364,0.030,-0.045
3365,0.005,-0.045
3366,-0.015,-0.045
3367,-0.030,-0.040
3368,-0.045,-0.040
3369,-0.060,-0.050
3370,-0.075,-0.055
3371,-0.090,-0.050
3372,-0.095,-0.045
3373,-0.100,-0.040
3374,-0.105,-0.035
3375,-0.105,-0.035
3376,-0.110,-0.050
3377,-0.115,-0.055
3378,-0.110,-0.050
3379,-0.105,-0.045
3380,-0.105,-0.040
3381,-0.105,-0.035
3382,-0.105,-0.040
3383,-0.105,-0.045
3384,-0.105,-0.050
3385,-0.105,-0.055
3386,-0.110,-0.055
3387,-0.115,-0.055
3388,-0.110,-0.045
3389,-0.105,-0.035
3390,-0.100,-0.040
3391,-0.095,-0.045
3392,-0.100,-0.050
3393,-0.105,-0.055
3394,-0.105,-0.055
3395,-0.105,-0.055
3396,-0.105,-0.040
3397,-0.105,-0.035
3398,-0.110,-0.040
3399,-0.115,-0.045
3400,-0.110,-0.050
3401,-0.105,-0.055
3402,-0.110,-0.055
3403,-0.115,-0.055
3404,-0.115,-0.050
3405,-0.115,-0.045
3406,-0.120,-0.045
3407,-0.125,-0.045
3408,-0.125,-0.050
3409,-0.125,-0.055
3410,-0.125,-0.050
3411,-0.125,-0.045
3412,-0.125,-0.045
3413,-0.125,-0.045
3414,-0.130,-0.050
3415,-0.135,-0.055
3416,-0.140,-0.060
3417,-0.145,-0.070
3418,-0.145,-0.075
3419,-0.140,-0.065
3420,-0.135,-0.055
3421,-0.135,-0.060
3422,-0.135,-0.065
3423,-0.145,-0.065
3424,-0.155,-0.065
3425,-0.150,-0.070
3426,-0.145,-0.075
3427,-0.145,-0.075
3428,-0.145,-0.075
3429,-0.150,-0.070
3430,-0.155,-0.065
3431,-0.150,-0.070
3432,-0.145,-0.075
3433,-0.155,-0.075
3434,-0.165,-0.075
3435,-0.155,-0.070
3436,-0.145,-0.065
3437,-0.145,-0.065
3438,-0.145,-0.065
3439,-0.150,-0.070
3440,-0.155,-0.075
3441,-0.150,-0.070
3442,-0.145,-0.065
3443,-0.145,-0.065
3444,-0.145,-0.065
3445,-0.145,-0.065
3446,-0.145,-0.065
3447,-0.145,-0.070
3448,-0.145,-0.075
3449,-0.150,-0.080
3450,-0.155,-0.080
3451,-0.150,-0.070
3452,-0.145,-0.065
3453,-0.145,-0.070
3454,-0.145,-0.075
3455,-0.145,-0.080
3456,-0.145,-0.085
3457,-0.145,-0.080
3458,-0.145,-0.075
3459,-0.145,-0.065
3460,-0.145,-0.070
3461,-0.145,-0.075
3462,-0.150,-0.075
3463,-0.155,-0.075
3464,-0.150,-0.075
3465,-0.145,-0.075
3466,-0.145,-0.070
3467,-0.145,-0.065
3468,-0.140,-0.070
3469,-0.135,-0.075
3470,-0.130,-0.075
3471,-0.125,-0.075
3472,-0.130,-0.080
3473,-0.135,-0.085
3474,-0.140,-0.075
3475,-0.145,-0.065
3476,-0.140,-0.070
3477,-0.135,-0.075
3478,-0.145,-0.075
3479,-0.155,-0.075
3480,-0.140,-0.075
3481,-0.135,-0.075
3482,-0.135,-0.070
3483,-0.135,-0.065
3484,-0.135,-0.070
3485,-0.135,-0.075
3486,-0.135,-0.080
3487,-0.135,-0.085
3488,-0.130,-0.085
3489,-0.125,-0.085
3490,-0.130,-0.080
3491,-0.135,-0.075
3492,-0.135,-0.075
3493,-0.135,-0.080
3494,-0.135,-0.090
3495,-0.135,-0.090
3496,-0.140,-0.080
3497,-0.140,-0.075
3498,-0.130,-0.080
3499,-0.125,-0.085
3500,-0.125,-0.085
3501,-0.130,-0.080
3502,-0.135,-0.085
3503,-0.125,-0.085
3504,-0.115,-0.085
3505,-0.115,-0.075
3506,-0.115,-0.065
3507,-0.105,-0.060
3508,-0.095,-0.055
3509,-0.075,-0.045
3510,-0.055,-0.035
3511,-0.060,-0.025
3512,-0.055,-0.015
3513,-0.020,0.000
3514,0.010,0.015
3515,0.035,0.020
3516,0.055,0.015
3517,0.050,-0.015
3518,0.045,-0.045
3519,0.035,-0.070
3520,0.020,-0.085
3521,0.005,-0.085
3522,-0.020,-0.090
3523,-0.050,-0.100
3524,-0.075,-0.105
3525,-0.095,-0.105
3526,-0.110,-0.105
3527,-0.125,-0.105
3528,-0.135,-0.105
3529,-0.135,-0.105
3530,-0.135,-0.105
3531,-0.135,-0.110
3532,-0.135,-0.115
3533,-0.140,-0.120
3534,-0.130,-0.120
3535,-0.110,-0.110
3536,-0.095,-0.070
3537,-0.080,-0.025
3538,-0.055,-0.040
3539,-0.030,-0.070
3540,0.245,-0.140
3541,0.540,-0.210
3542,0.865,-0.170
3543,1.185,-0.125
3544,1.105,-0.160
3545,0.980,-0.200
3546,0.405,-0.315
3547,-0.140,-0.415
3548,-0.420,-0.375
3549,-0.650,-0.340
3550,-0.595,-0.285
3551,-0.535,-0.240
3552,-0.420,-0.210
3553,-0.315,-0.180
3554,-0.235,-0.155
3555,-0.175,-0.135
3556,-0.155,-0.130
3557,-0.150,-0.125
3558,-0.165,-0.125
3559,-0.175,-0.125
3560,-0.170,-0.115
3561,-0.165,-0.105
3562,-0.165,-0.110
3563,-0.165,-0.115
3564,-0.160,-0.115
3565,-0.155,-0.115
3566,-0.150,-0.110
3567,-0.145,-0.105
3568,-0.145,-0.105
3569,-0.145,-0.105
3570,-0.145,-0.105
3571,-0.145,-0.105
3572,-0.140,-0.110
3573,-0.135,-0.115
3574,-0.140,-0.110
3575,-0.140,-0.105
3576,-0.130,-0.100
3577,-0.125,-0.095
3578,-0.125,-0.100
3579,-0.125,-0.105
3580,-0.120,-0.110
3581,-0.110,-0.115
3582,-0.100,-0.110
3583,-0.095,-0.105
3584,-0.085,-0.095
3585,-0.080,-0.100
3586,-0.075,-0.105
3587,-0.070,-0.110
3588,-0.065,-0.115
3589,-0.070,-0.115
3590,-0.075,-0.115
3591,-0.065,-0.110
3592,-0.055,-0.105
3593,-0.045,-0.105
3594,-0.035,-0.105
3595,-0.030,-0.115
3596,-0.025,-0.125
3597,-0.015,-0.120
3598,0.000,-0.115
3599,0.020,-0.115
3600,0.035,-0.115
3601,0.040,-0.115
3602,0.045,-0.115
3603,0.055,-0.125
3604,0.065,-0.135
3605,0.070,-0.135
3606,0.080,-0.135
3607,0.095,-0.130
3608,0.110,-0.125
3609,0.125,-0.125
3610,0.135,-0.130
3611,0.140,-0.140
3612,0.155,-0.145
3613,0.175,-0.145
3614,0.185,-0.145
3615,0.185,-0.145
3616,0.185,-0.145
3617,0.185,-0.145
3618,0.185,-0.145
3619,0.190,-0.145
3620,0.195,-0.145
3621,0.190,-0.150
3622,0.175,-0.145
3623,0.160,-0.130
3624,0.145,-0.125
3625,0.155,-0.125
3626,0.100,-0.125
3627,0.075,-0.125
3628,0.055,-0.110
3629,0.035,-0.095
3630,0.005,-0.090
3631,-0.025,-0.085
3632,-0.045,-0.085
3633,-0.065,-0.085
3634,-0.085,-0.090
3635,-0.105,-0.095
3636,-0.130,-0.090
3637,-0.145,-0.085
3638,-0.150,-0.075
3639,-0.155,-0.065
3640,-0.155,-0.070
3641,-0.155,-0.075
3642,-0.165,-0.085
3643,-0.175,-0.095
3644,-0.165,-0.085
3645,-0.155,-0.075
3646,-0.150,-0.070
3647,-0.145,-0.065
3648,-0.150,-0.070
3649,-0.155,-0.075
3650,-0.150,-0.080
3651,-0.150,-0.085
3652,-0.160,-0.080
3653,-0.155,-0.075
3654,-0.140,-0.075
3655,-0.140,-0.075
3656,-0.150,-0.075
3657,-0.155,-0.075
3658,-0.150,-0.080
3659,-0.145,-0.085
3660,-0.150,-0.080
3661,-0.155,-0.075
3662,-0.155,-0.075
3663,-0.155,-0.075
3664,-0.155,-0.070
3665,-0.155,-0.070
3666,-0.155,-0.080
3667,-0.160,-0.080
3668,-0.165,-0.075
3669,-0.165,-0.075
3670,-0.165,-0.075
3671,-0.160,-0.075
3672,-0.155,-0.075
3673,-0.155,-0.080
3674,-0.155,-0.085
3675,-0.155,-0.080
3676,-0.155,-0.075
3677,-0.165,-0.075
3678,-0.175,-0.075
3679,-0.175,-0.075
3680,-0.175,-0.075
3681,-0.180,-0.080
3682,-0.185,-0.085
3683,-0.185,-0.090
3684,-0.185,-0.095
3685,-0.180,-0.090
3686,-0.175,-0.085
3687,-0.180,-0.090
3688,-0.185,-0.095
3689,-0.190,-0.095
3690,-0.190,-0.095
3691,-0.180,-0.095
3692,-0.175,-0.095
3693,-0.180,-0.090
3694,-0.185,-0.085
3695,-0.185,-0.090
3696,-0.185,-0.095
3697,-0.190,-0.100
3698,-0.195,-0.105
3699,-0.195,-0.100
3700,-0.195,-0.095
3701,-0.190,-0.095
3702,-0.185,-0.095
3703,-0.185,-0.095
3704,-0.185,-0.095
3705,-0.190,-0.100
3706,-0.195,-0.100
3707,-0.190,-0.090
3708,-0.185,-0.085
3709,-0.175,-0.095
3710,-0.180,-0.095
3711,-0.185,-0.095
3712,-0.190,-0.100
3713,-0.195,-0.105
3714,-0.190,-0.100
3715,-0.185,-0.095
3716,-0.185,-0.090
3717,-0.185,-0.085
3718,-0.185,-0.090
3719,-0.185,-0.095
3720,-0.180,-0.095
3721,-0.175,-0.095
3722,-0.175,-0.090
3723,-0.175,-0.085
3724,-0.175,-0.085
3725,-0.175,-0.085
3726,-0.175,-0.085
3727,-0.175,-0.085
3728,-0.175,-0.090
3729,-0.175,-0.095
3730,-0.180,-0.090
3731,-0.180,-0.085
3732,-0.170,-0.080
3733,-0.165,-0.075
3734,-0.170,-0.080
3735,-0.175,-0.090
3736,-0.180,-0.100
3737,-0.185,-0.100
3738,-0.180,-0.090
3739,-0.175,-0.085
3740,-0.170,-0.085
3741,-0.165,-0.085
3742,-0.170,-0.085
3743,-0.175,-0.085
3744,-0.170,-0.090
3745,-0.170,-0.095
3746,-0.180,-0.090
3747,-0.180,-0.085
3748,-0.170,-0.085
3749,-0.165,-0.085
3750,-0.165,-0.085
3751,-0.170,-0.095
3752,-0.175,-0.095
3753,-0.160,-0.095
3754,-0.145,-0.095
3755,-0.150,-0.090
3756,-0.155,-0.085
3757,-0.155,-0.090
3758,-0.155,-0.095
3759,-0.155,-0.095
3760,-0.155,-0.095
3761,-0.155,-0.095
3762,-0.155,-0.095
3763,-0.145,-0.090
3764,-0.135,-0.085
3765,-0.140,-0.090
3766,-0.145,-0.095
3767,-0.150,-0.095
3768,-0.150,-0.095
3769,-0.135,-0.085
3770,-0.120,-0.065
3771,-0.095,-0.040
3772,-0.085,-0.025
3773,-0.085,-0.025
3774,-0.075,-0.025
3775,-0.055,-0.025
3776,-0.035,-0.015
3777,-0.015,0.005
3778,0.015,0.015
3779,0.045,0.010
3780,0.045,-0.015
3781,0.025,-0.045
3782,0.015,-0.070
3783,0.010,-0.095
3784,-0.010,-0.105
3785,-0.030,-0.100
3786,-0.055,-0.095
3787,-0.080,-0.100
3788,-0.100,-0.105
3789,-0.120,-0.100
3790,-0.130,-0.105
3791,-0.140,-0.120
3792,-0.150,-0.125
3793,-0.155,-0.125
3794,-0.145,-0.120
3795,-0.135,-0.115
3796,-0.130,-0.115
3797,-0.125,-0.115
3798,-0.115,-0.085
3799,-0.100,-0.055
3800,-0.070,-0.035
3801,-0.025,-0.025
3802,0.085,-0.095
3803,0.250,-0.150
3804,0.585,-0.175
3805,0.915,-0.195
3806,1.235,-0.190
3807,1.250,-0.220
3808,0.705,-0.320
3809,0.190,-0.385
3810,-0.265,-0.385
3811,-0.545,-0.355
3812,-0.625,-0.285
3813,-0.605,-0.230
3814,-0.485,-0.200
3815,-0.360,-0.175
3816,-0.235,-0.155
3817,-0.170,-0.135
3818,-0.145,-0.115
3819,-0.135,-0.105
3820,-0.140,-0.105
3821,-0.145,-0.105
3822,-0.145,-0.110
3823,-0.145,-0.115
3824,-0.145,-0.110
3825,-0.145,-0.105
3826,-0.140,-0.100
3827,-0.135,-0.095
3828,-0.135,-0.100
3829,-0.135,-0.105
3830,-0.130,-0.105
3831,-0.125,-0.105
3832,-0.120,-0.100
3833,-0.115,-0.095
3834,-0.115,-0.095
3835,-0.115,-0.095
3836,-0.115,-0.095
3837,-0.110,-0.095
3838,-0.105,-0.095
3839,-0.100,-0.090
3840,-0.095,-0.085
3841,-0.090,-0.085
3842,-0.085,-0.085
3843,-0.080,-0.085
3844,-0.075,-0.085
3845,-0.065,-0.090
3846,-0.055,-0.095
3847,-0.050,-0.090
3848,-0.045,-0.085
3849,-0.040,-0.080
3850,-0.035,-0.075
3851,-0.030,-0.085
3852,-0.025,-0.095
3853,-0.025,-0.095
3854,-0.025,-0.095
3855,-0.010,-0.095
3856,0.000,-0.090
3857,0.010,-0.080
3858,0.020,-0.080
3859,0.030,-0.090
3860,0.040,-0.095
3861,0.055,-0.100
3862,0.070,-0.105
3863,0.080,-0.100
3864,0.090,-0.095
3865,0.100,-0.095
3866,0.110,-0.095
3867,0.120,-0.100
3868,0.125,-0.105
3869,0.130,-0.110
3870,0.145,-0.115
3871,0.160,-0.110
3872,0.175,-0.105
3873,0.190,-0.105
3874,0.195,-0.105
3875,0.195,-0.105
3876,0.215,-0.120
3877,0.225,-0.125
3878,0.225,-0.120
3879,0.225,-0.115
3880,0.230,-0.115
3881,0.235,-0.115
3882,0.230,-0.115
3883,0.225,-0.115
3884,0.210,-0.115
3885,0.195,-0.115
3886,0.185,-0.105
3887,0.175,-0.095
3888,0.160,-0.080
3889,0.140,-0.065
3890,0.115,-0.065
3891,0.090,-0.065
3892,0.070,-0.065
3893,0.045,-0.065
3894,0.020,-0.060
3895,0.000,-0.055
3896,-0.025,-0.050
3897,-0.040,-0.045
3898,-0.050,-0.045
3899,-0.060,-0.045
3900,-0.075,-0.050
3901,-0.085,-0.055
3902,-0.090,-0.050
3903,-0.095,-0.045
3904,-0.095,-0.040
3905,-0.095,-0.035
3906,-0.090,-0.040
3907,-0.085,-0.045
3908,-0.090,-0.050
3909,-0.095,-0.055
3910,-0.090,-0.050
3911,-0.085,-0.045
3912,-0.080,-0.040
3913,-0.075,-0.035
3914,-0.080,-0.040
3915,-0.085,-0.045
3916,-0.080,-0.050
3917,-0.080,-0.050
3918,-0.085,-0.045
3919,-0.080,-0.040
3920,-0.075,-0.035
3921,-0.075,-0.040
3922,-0.075,-0.045
3923,-0.080,-0.050
3924,-0.085,-0.055
3925,-0.080,-0.050
3926,-0.075,-0.045
3927,-0.075,-0.040
3928,-0.075,-0.035
3929,-0.080,-0.040
3930,-0.085,-0.045
3931,-0.080,-0.050
3932,-0.075,-0.055
3933,-0.085,-0.050
3934,-0.095,-0.045
3935,-0.085,-0.040
3936,-0.075,-0.035
3937,-0.080,-0.040
3938,-0.085,-0.045
3939,-0.085,-0.045
3940,-0.085,-0.045
3941,-0.085,-0.045
3942,-0.085,-0.045
3943,-0.085,-0.045
3944,-0.085,-0.045
3945,-0.090,-0.045
3946,-0.095,-0.045
3947,-0.100,-0.050
3948,-0.105,-0.055
3949,-0.110,-0.050
3950,-0.115,-0.045
3951,-0.110,-0.045
3952,-0.105,-0.045
3953,-0.105,-0.040
3954,-0.105,-0.040
3955,-0.105,-0.050
3956,-0.105,-0.055
3957,-0.100,-0.055
3958,-0.095,-0.055
3959,-0.095,-0.045
3960,-0.100,-0.045
3961,-0.105,-0.045
3962,-0.105,-0.055
3963,-0.105,-0.065
3964,-0.115,-0.065
3965,-0.125,-0.065
3966,-0.110,-0.060
3967,-0.095,-0.055
3968,-0.095,-0.055
3969,-0.095,-0.055
3970,-0.100,-0.060
3971,-0.105,-0.065
3972,-0.100,-0.060
3973,-0.095,-0.055
3974,-0.095,-0.050
3975,-0.095,-0.045
3976,-0.100,-0.050
3977,-0.105,-0.055
3978,-0.100,-0.060
3979,-0.095,-0.065
3980,-0.100,-0.060
3981,-0.100,-0.055
3982,-0.090,-0.050
3983,-0.085,-0.045
3984,-0.090,-0.050
3985,-0.095,-0.055
3986,-0.100,-0.060
3987,-0.100,-0.065
3988,-0.090,-0.060
3989,-0.085,-0.055
3990,-0.085,-0.050
3991,-0.085,-0.045
3992,-0.090,-0.050
3993,-0.095,-0.055
3994,-0.095,-0.060
3995,-0.095,-0.065
3996,-0.095,-0.065
3997,-0.090,-0.060
3998,-0.080,-0.050
3999,-0.075,-0.045
4000,-0.075,-0.045
4001,-0.090,-0.055
4002,-0.095,-0.065
4003,-0.085,-0.060
4004,-0.075,-0.055
4005,-0.075,-0.050
4006,-0.075,-0.045
4007,-0.075,-0.050
4008,-0.075,-0.055
4009,-0.080,-0.060
4010,-0.085,-0.065
4011,-0.085,-0.060
4012,-0.085,-0.055
4013,-0.080,-0.050
4014,-0.075,-0.045
4015,-0.075,-0.050
4016,-0.075,-0.055
4017,-0.075,-0.060
4018,-0.075,-0.065
4019,-0.070,-0.055
4020,-0.065,-0.045
4021,-0.065,-0.045
4022,-0.065,-0.050
4023,-0.065,-0.060
4024,-0.065,-0.065
4025,-0.070,-0.060
4026,-0.075,-0.055
4027,-0.070,-0.055
4028,-0.065,-0.055
4029,-0.065,-0.050
4030,-0.065,-0.045
4031,-0.065,-0.045
4032,-0.065,-0.045
4033,-0.060,-0.045
4034,-0.045,-0.040
4035,-0.030,-0.030
4036,-0.015,-0.010
4037,0.000,0.010
4038,0.005,0.015
4039,0.010,0.015
4040,0.025,0.015
4041,0.040,0.020
4042,0.075,0.045
4043,0.105,0.065
4044,0.110,0.035
4045,0.115,0.005
4046,0.100,-0.025
4047,0.085,-0.055
4048,0.075,-0.060
4049,0.065,-0.065
4050,0.035,-0.060
4051,0.015,-0.055
4052,-0.005,-0.055
4053,-0.025,-0.055
4054,-0.040,-0.065
4055,-0.055,-0.075
4056,-0.075,-0.080
4057,-0.085,-0.085
4058,-0.085,-0.085
4059,-0.085,-0.085
4060,-0.075,-0.075
4061,-0.065,-0.065
4062,-0.060,-0.070
4063,-0.045,-0.060
4064,-0.020,-0.025
4065,0.000,-0.005
4066,0.010,-0.010
4067,0.130,-0.060
4068,0.330,-0.145
4069,0.605,-0.160
4070,0.915,-0.125
4071,1.150,-0.125
4072,1.350,-0.145
4073,0.905,-0.270
4074,0.225,-0.430
4075,-0.200,-0.440
4076,-0.550,-0.405
4077,-0.590,-0.340
4078,-0.550,-0.265
4079,-0.430,-0.215
4080,-0.300,-0.170
4081,-0.195,-0.130
4082,-0.090,-0.090
4083,-0.085,-0.075
4084,-0.075,-0.055
4085,-0.080,-0.065
4086,-0.085,-0.075
4087,-0.095,-0.075
4088,-0.105,-0.075
4089,-0.095,-0.065
4090,-0.085,-0.055
4091,-0.085,-0.055
4092,-0.085,-0.055
4093,-0.080,-0.060
4094,-0.075,-0.065
4095,-0.070,-0.070
4096,-0.065,-0.075
4097,-0.065,-0.065
4098,-0.065,-0.055
4099,-0.065,-0.055
4100,-0.065,-0.055
4101,-0.065,-0.065
4102,-0.070,-0.075
4103,-0.085,-0.080
4104,-0.085,-0.080
4105,-0.060,-0.065
4106,-0.045,-0.050
4107,-0.040,-0.040
4108,-0.035,-0.040
4109,-0.035,-0.050
4110,-0.030,-0.055
4111,-0.020,-0.060
4112,-0.010,-0.055
4113,0.000,-0.040
4114,0.005,-0.035
4115,0.005,-0.035
4116,0.005,-0.050
4117,0.005,-0.070
4118,0.005,-0.075
4119,0.010,-0.080
4120,0.015,-0.080
4121,0.010,-0.070
4122,0.025,-0.065
4123,0.050,-0.060
4124,0.055,-0.055
4125,0.055,-0.055
4126,0.085,-0.065
4127,0.105,-0.075
4128,0.110,-0.070
4129,0.115,-0.065
4130,0.120,-0.070
4131,0.125,-0.075
4132,0.145,-0.070
4133,0.165,-0.065
4134,0.170,-0.065
4135,0.180,-0.065
4136,0.205,-0.060
4137,0.225,-0.055
4138,0.235,-0.050
4139,0.245,-0.045
4140,0.250,-0.055
4141,0.255,-0.065
4142,0.265,-0.070
4143,0.280,-0.075
4144,0.295,-0.070
4145,0.305,-0.065
4146,0.305,-0.060
4147,0.305,-0.055
4148,0.305,-0.055
4149,0.300,-0.055
4150,0.285,-0.060
4151,0.270,-0.065
4152,0.255,-0.060
4153,0.235,-0.050
4154,0.220,-0.040
4155,0.195,-0.035
4156,0.165,-0.030
4157,0.130,-0.025
4158,0.095,-0.025
4159,0.070,-0.025
4160,0.050,-0.025
4161,0.030,-0.025
4162,0.010,-0.020
4163,-0.005,-0.015
4164,-0.020,-0.015
4165,-0.040,-0.015
4166,-0.060,-0.020
4167,-0.075,-0.020
4168,-0.085,-0.015
4169,-0.075,-0.020
4170,-0.065,-0.025
4171,-0.070,-0.020
4172,-0.075,-0.015
4173,-0.085,-0.020
4174,-0.095,-0.025
4175,-0.085,-0.025
4176,-0.075,-0.025
4177,-0.080,-0.025
4178,-0.085,-0.025
4179,-0.080,-0.025
4180,-0.075,-0.025
4181,-0.075,-0.030
4182,-0.075,-0.035
4183,-0.075,-0.030
4184,-0.075,-0.025
4185,-0.070,-0.015
4186,-0.065,-0.005
4187,-0.070,-0.010
4188,-0.075,-0.020
4189,-0.080,-0.030
4190,-0.085,-0.030
4191,-0.080,-0.020
4192,-0.075,-0.015
4193,-0.075,-0.015
4194,-0.075,-0.015
4195,-0.080,-0.020
4196,-0.085,-0.025
4197,-0.085,-0.025
4198,-0.085,-0.025
4199,-0.090,-0.025
4200,-0.095,-0.025
4201,-0.090,-0.020
4202,-0.085,-0.020
4203,-0.090,-0.030
4204,-0.100,-0.035
4205,-0.110,-0.035
4206,-0.115,-0.035
4207,-0.110,-0.035
4208,-0.105,-0.035
4209,-0.105,-0.035
4210,-0.110,-0.035
4211,-0.115,-0.035
4212,-0.120,-0.040
4213,-0.125,-0.045
4214,-0.130,-0.040
4215,-0.135,-0.035
4216,-0.135,-0.035
4217,-0.135,-0.035
4218,-0.135,-0.035
4219,-0.135,-0.035
4220,-0.140,-0.045
4221,-0.145,-0.055
4222,-0.140,-0.050
4223,-0.135,-0.045
4224,-0.130,-0.040
4225,-0.125,-0.035
4226,-0.135,-0.035
4227,-0.145,-0.035
4228,-0.145,-0.045
4229,-0.145,-0.055
4230,-0.150,-0.055
4231,-0.150,-0.055
4232,-0.140,-0.050
4233,-0.135,-0.045
4234,-0.140,-0.045
4235,-0.145,-0.045
4236,-0.145,-0.050
4237,-0.145,-0.055
4238,-0.140,-0.050
4239,-0.135,-0.045
4240,-0.135,-0.045
4241,-0.135,-0.045
4242,-0.140,-0.045
4243,-0.145,-0.045
4244,-0.140,-0.045
4245,-0.140,-0.045
4246,-0.150,-0.045
4247,-0.150,-0.045
4248,-0.140,-0.045
4249,-0.135,-0.045
4250,-0.135,-0.045
4251,-0.140,-0.050
4252,-0.145,-0.055
4253,-0.140,-0.045
4254,-0.135,-0.035
4255,-0.130,-0.035
4256,-0.125,-0.035
4257,-0.125,-0.035
4258,-0.125,-0.035
4259,-0.130,-0.040
4260,-0.135,-0.045
4261,-0.135,-0.045
4262,-0.135,-0.045
4263,-0.130,-0.040
4264,-0.125,-0.035
4265,-0.125,-0.040
4266,-0.125,-0.045
4267,-0.125,-0.050
4268,-0.125,-0.055
4269,-0.120,-0.050
4270,-0.115,-0.045
4271,-0.120,-0.045
4272,-0.125,-0.045
4273,-0.125,-0.045
4274,-0.125,-0.045
4275,-0.120,-0.050
4276,-0.120,-0.055
4277,-0.130,-0.055
4278,-0.130,-0.050
4279,-0.120,-0.040
4280,-0.115,-0.035
4281,-0.115,-0.035
4282,-0.115,-0.035
4283,-0.115,-0.040
4284,-0.115,-0.045
4285,-0.110,-0.050
4286,-0.105,-0.050
4287,-0.105,-0.040
4288,-0.105,-0.035
4289,-0.110,-0.040
4290,-0.115,-0.045
4291,-0.115,-0.050
4292,-0.120,-0.050
4293,-0.125,-0.045
4294,-0.115,-0.045
4295,-0.105,-0.045
4296,-0.105,-0.040
4297,-0.105,-0.035
4298,-0.105,-0.040
4299,-0.105,-0.045
4300,-0.090,-0.040
4301,-0.075,-0.030
4302,-0.055,-0.005
4303,-0.035,0.015
4304,-0.035,0.020
4305,-0.030,0.025
4306,-0.010,0.025
4307,0.010,0.030
4308,0.030,0.050
4309,0.050,0.065
4310,0.070,0.055
4311,0.080,0.030
4312,0.065,-0.005
4313,0.050,-0.030
4314,0.040,-0.045
4315,0.025,-0.055
4316,0.005,-0.055
4317,-0.020,-0.055
4318,-0.045,-0.050
4319,-0.065,-0.045
4320,-0.085,-0.050
4321,-0.100,-0.060
4322,-0.110,-0.070
4323,-0.115,-0.075
4324,-0.120,-0.075
4325,-0.120,-0.075
4326,-0.110,-0.070
4327,-0.105,-0.065
4328,-0.105,-0.065
4329,-0.100,-0.050
4330,-0.090,-0.030
4331,-0.060,0.000
4332,-0.030,0.030
4333,0.085,-0.040
4334,0.205,-0.125
4335,0.525,-0.130
4336,0.845,-0.135
4337,1.180,-0.120
4338,1.420,-0.120
4339,0.795,-0.265
4340,0.200,-0.395
4341,-0.235,-0.415
4342,-0.590,-0.420
4343,-0.615,-0.340
4344,-0.610,-0.265
4345,-0.490,-0.220
4346,-0.370,-0.175
4347,-0.250,-0.140
4348,-0.160,-0.105
4349,-0.135,-0.075
4350,-0.115,-0.055
4351,-0.125,-0.055
4352,-0.135,-0.055
4353,-0.135,-0.065
4354,-0.135,-0.075
4355,-0.135,-0.070
4356,-0.130,-0.065
4357,-0.120,-0.060
4358,-0.115,-0.055
4359,-0.120,-0.055
4360,-0.125,-0.055
4361,-0.125,-0.055
4362,-0.125,-0.055
4363,-0.120,-0.055
4364,-0.115,-0.055
4365,-0.110,-0.050
4366,-0.105,-0.045
4367,-0.105,-0.045
4368,-0.105,-0.045
4369,-0.110,-0.050
4370,-0.110,-0.055
4371,-0.100,-0.050
4372,-0.095,-0.045
4373,-0.090,-0.045
4374,-0.080,-0.045
4375,-0.085,-0.045
4376,-0.060,-0.050
4377,-0.055,-0.055
4378,-0.055,-0.050
4379,-0.055,-0.045
4380,-0.045,-0.040
4381,-0.035,-0.035
4382,-0.030,-0.045
4383,-0.025,-0.055
4384,-0.030,-0.055
4385,-0.035,-0.055
4386,-0.020,-0.050
4387,-0.005,-0.045
4388,0.005,-0.040
4389,0.015,-0.035
4390,0.025,-0.045
4391,0.035,-0.055
4392,0.045,-0.060
4393,0.055,-0.065
4394,0.065,-0.060
4395,0.075,-0.055
4396,0.090,-0.055
4397,0.100,-0.055
4398,0.115,-0.060
4399,0.125,-0.065
4400,0.125,-0.070
4401,0.135,-0.075
4402,0.155,-0.070
4403,0.175,-0.065
4404,0.190,-0.065
4405,0.200,-0.065
4406,0.210,-0.065
4407,0.220,-0.065
4408,0.230,-0.070
4409,0.240,-0.075
4410,0.250,-0.075
4411,0.255,-0.075
4412,0.255,-0.070
4413,0.255,-0.065
4414,0.250,-0.065
4415,0.235,-0.065
4416,0.220,-0.070
4417,0.200,-0.065
4418,0.185,-0.055
4419,0.165,-0.050
4420,0.145,-0.045
4421,0.120,-0.040
4422,0.095,-0.035
4423,0.065,-0.035
4424,0.030,-0.035
4425,0.000,-0.035
4426,-0.025,-0.035
4427,-0.045,-0.030
4428,-0.065,-0.025
4429,-0.075,-0.030
4430,-0.085,-0.035
4431,-0.105,-0.035
4432,-0.115,-0.035
4433,-0.125,-0.030
4434,-0.135,-0.025
4435,-0.130,-0.025
4436,-0.125,-0.025
4437,-0.130,-0.025
4438,-0.135,-0.030
4439,-0.135,-0.040
4440,-0.135,-0.045
4441,-0.135,-0.040
4442,-0.135,-0.035
4443,-0.135,-0.030
4444,-0.135,-0.025
4445,-0.130,-0.030
4446,-0.125,-0.035
4447,-0.130,-0.035
4448,-0.135,-0.035
4449,-0.135,-0.035
4450,-0.135,-0.035
4451,-0.130,-0.035
4452,-0.125,-0.035
4453,-0.125,-0.040
4454,-0.125,-0.045
4455,-0.120,-0.045
4456,-0.115,-0.045
4457,-0.120,-0.040
4458,-0.125,-0.035
4459,-0.135,-0.035
4460,-0.135,-0.035
4461,-0.135,-0.035
4462,-0.140,-0.045
4463,-0.145,-0.055
4464,-0.140,-0.050
4465,-0.135,-0.045
4466,-0.135,-0.040
4467,-0.135,-0.035
4468,-0.140,-0.040
4469,-0.145,-0.045
4470,-0.145,-0.050
4471,-0.145,-0.055
4472,-0.145,-0.050
4473,-0.145,-0.045
4474,-0.150,-0.045
4475,-0.155,-0.045
4476,-0.155,-0.050
4477,-0.155,-0.055
4478,-0.165,-0.055
4479,-0.175,-0.055
4480,-0.160,-0.050
4481,-0.155,-0.045
4482,-0.160,-0.050
4483,-0.165,-0.055
4484,-0.160,-0.055
4485,-0.155,-0.055
4486,-0.155,-0.060
4487,-0.155,-0.065
4488,-0.155,-0.060
4489,-0.155,-0.055
4490,-0.155,-0.055
4491,-0.155,-0.055
4492,-0.155,-0.060
4493,-0.165,-0.065
4494,-0.180,-0.065
4495,-0.180,-0.065
4496,-0.170,-0.060
4497,-0.165,-0.055
4498,-0.160,-0.060
4499,-0.155,-0.065
4500,-0.155,-0.065
4501,-0.155,-0.070
4502,-0.155,-0.075
4503,-0.155,-0.070
4504,-0.155,-0.065
4505,-0.155,-0.060
4506,-0.155,-0.055
4507,-0.155,-0.060
4508,-0.155,-0.065
4509,-0.160,-0.070
4510,-0.165,-0.075
4511,-0.165,-0.065
4512,-0.165,-0.055
4513,-0.160,-0.055
4514,-0.155,-0.055
4515,-0.155,-0.060
4516,-0.155,-0.065
4517,-0.150,-0.070
4518,-0.145,-0.075
4519,-0.145,-0.070
4520,-0.145,-0.065
4521,-0.150,-0.065
4522,-0.155,-0.065
4523,-0.155,-0.070
4524,-0.155,-0.075
4525,-0.160,-0.075
4526,-0.165,-0.075
4527,-0.165,-0.075
4528,-0.165,-0.075
4529,-0.160,-0.070
4530,-0.155,-0.065
4531,-0.150,-0.070
4532,-0.145,-0.075
4533,-0.150,-0.075
4534,-0.150,-0.075
4535,-0.140,-0.075
4536,-0.135,-0.070
4537,-0.140,-0.060
4538,-0.145,-0.055
4539,-0.145,-0.060
4540,-0.145,-0.065
4541,-0.150,-0.070
4542,-0.150,-0.070
4543,-0.145,-0.065
4544,-0.145,-0.060
4545,-0.145,-0.055
4546,-0.140,-0.060
4547,-0.135,-0.065
4548,-0.145,-0.070
4549,-0.155,-0.075
4550,-0.145,-0.070
4551,-0.135,-0.065
4552,-0.135,-0.065
4553,-0.135,-0.065
4554,-0.135,-0.060
4555,-0.135,-0.055
4556,-0.125,-0.060
4557,-0.115,-0.060
4558,-0.105,-0.040
4559,-0.095,-0.025
4560,-0.085,-0.015
4561,-0.070,0.000
4562,-0.050,0.015
4563,-0.025,0.025
4564,-0.005,0.030
4565,0.015,0.035
4566,0.035,0.030
4567,0.040,0.010
4568,0.030,-0.020
4569,0.020,-0.045
4570,0.010,-0.065
4571,-0.005,-0.075
4572,-0.025,-0.075
4573,-0.060,-0.075
4574,-0.095,-0.075
4575,-0.105,-0.075
4576,-0.110,-0.075
4577,-0.130,-0.075
4578,-0.150,-0.080
4579,-0.155,-0.090
4580,-0.160,-0.100
4581,-0.160,-0.105
4582,-0.150,-0.105
4583,-0.145,-0.105
4584,-0.145,-0.095
4585,-0.135,-0.080
4586,-0.125,-0.065
4587,-0.100,-0.035
4588,-0.075,-0.010
4589,-0.055,-0.055
4590,0.010,-0.100
4591,0.325,-0.145
4592,0.640,-0.175
4593,0.985,-0.120
4594,1.205,-0.090
4595,1.035,-0.155
4596,0.750,-0.240
4597,0.185,-0.360
4598,-0.270,-0.430
4599,-0.520,-0.385
4600,-0.655,-0.335
4601,-0.590,-0.280
4602,-0.510,-0.240
4603,-0.395,-0.220
4604,-0.300,-0.190
4605,-0.225,-0.145
4606,-0.180,-0.120
4607,-0.170,-0.105
4608,-0.165,-0.095
4609,-0.170,-0.095
4610,-0.175,-0.095
4611,-0.175,-0.100
4612,-0.170,-0.105
4613,-0.160,-0.105
4614,-0.155,-0.100
4615,-0.160,-0.090
4616,-0.165,-0.085
4617,-0.165,-0.085
4618,-0.165,-0.090
4619,-0.160,-0.100
4620,-0.155,-0.105
4621,-0.160,-0.100
4622,-0.155,-0.095
4623,-0.140,-0.090
4624,-0.135,-0.085
4625,-0.135,-0.085
4626,-0.145,-0.095
4627,-0.145,-0.105
4628,-0.130,-0.095
4629,-0.115,-0.085
4630,-0.115,-0.085
4631,-0.115,-0.085
4632,-0.115,-0.080
4633,-0.115,-0.075
4634,-0.105,-0.085
4635,-0.095,-0.095
4636,-0.100,-0.095
4637,-0.100,-0.095
4638,-0.080,-0.090
4639,-0.065,-0.085
4640,-0.065,-0.080
4641,-0.065,-0.075
4642,-0.060,-0.085
4643,-0.050,-0.095
4644,-0.035,-0.095
4645,-0.025,-0.095
4646,-0.010,-0.095
4647,-0.005,-0.095
4648,-0.005,-0.090
4649,0.000,-0.085
4650,0.010,-0.090
4651,0.015,-0.095
4652,0.020,-0.100
4653,0.035,-0.105
4654,0.055,-0.100
4655,0.070,-0.095
4656,0.080,-0.095
4657,0.095,-0.095
4658,0.110,-0.100
4659,0.130,-0.105
4660,0.150,-0.105
4661,0.155,-0.105
4662,0.160,-0.110
4663,0.170,-0.115
4664,0.180,-0.110
4665,0.185,-0.105
4666,0.185,-0.110
4667,0.185,-0.115
4668,0.185,-0.115
4669,0.200,-0.115
4670,0.215,-0.115
4671,0.210,-0.110
4672,0.205,-0.105
4673,0.190,-0.110
4674,0.175,-0.115
4675,0.165,-0.105
4676,0.150,-0.095
4677,0.120,-0.085
4678,0.090,-0.075
4679,0.060,-0.070
4680,0.030,-0.065
4681,0.005,-0.070
4682,-0.025,-0.075
4683,-0.060,-0.070
4684,-0.085,-0.065
4685,-0.095,-0.060
4686,-0.110,-0.055
4687,-0.125,-0.055
4688,-0.140,-0.055
4689,-0.150,-0.060
4690,-0.155,-0.065
4691,-0.150,-0.065
4692,-0.145,-0.065
4693,-0.150,-0.060
4694,-0.155,-0.055
4695,-0.160,-0.055
4696,-0.165,-0.060
4697,-0.165,-0.070
4698,-0.165,-0.075
4699,-0.165,-0.070
4700,-0.165,-0.065
4701,-0.160,-0.060
4702,-0.155,-0.055
4703,-0.155,-0.055
4704,-0.155,-0.055
4705,-0.160,-0.060
4706,-0.160,-0.065
4707,-0.150,-0.065
4708,-0.145,-0.065
4709,-0.145,-0.055
4710,-0.155,-0.055
4711,-0.165,-0.055
4712,-0.160,-0.060
4713,-0.155,-0.065
4714,-0.160,-0.060
4715,-0.165,-0.055
4716,-0.155,-0.050
4717,-0.145,-0.045
4718,-0.150,-0.050
4719,-0.155,-0.055
4720,-0.160,-0.060
4721,-0.165,-0.065
4722,-0.160,-0.065
4723,-0.155,-0.065
4724,-0.155,-0.055
4725,-0.155,-0.045
4726,-0.160,-0.050
4727,-0.165,-0.055
4728,-0.165,-0.060
4729,-0.165,-0.065
4730,-0.180,-0.065
4731,-0.185,-0.065
4732,-0.180,-0.065
4733,-0.175,-0.065
4734,-0.180,-0.060
4735,-0.185,-0.055
4736,-0.190,-0.060
4737,-0.185,-0.065
4738,-0.170,-0.065
4739,-0.165,-0.065
4740,-0.170,-0.065
4741,-0.175,-0.065
4742,-0.180,-0.065
4743,-0.185,-0.065
4744,-0.180,-0.070
4745,-0.185,-0.075
4746,-0.200,-0.070
4747,-0.200,-0.065
4748,-0.190,-0.060
4749,-0.185,-0.055
4750,-0.185,-0.055
4751,-0.180,-0.070
4752,-0.185,-0.075
4753,-0.180,-0.075
4754,-0.175,-0.075
4755,-0.175,-0.070
4756,-0.175,-0.065
4757,-0.175,-0.065
4758,-0.175,-0.065
4759,-0.180,-0.070
4760,-0.185,-0.075
4761,-0.190,-0.075
4762,-0.195,-0.075
4763,-0.185,-0.070
4764,-0.175,-0.065
4765,-0.175,-0.065
4766,-0.175,-0.065
4767,-0.175,-0.075
4768,-0.175,-0.085
4769,-0.170,-0.080
4770,-0.165,-0.075
4771,-0.170,-0.070
4772,-0.175,-0.065
4773,-0.180,-0.070
4774,-0.185,-0.075
4775,-0.180,-0.075
4776,-0.175,-0.075
4777,-0.180,-0.075
4778,-0.180,-0.075
4779,-0.170,-0.075
4780,-0.165,-0.075
4781,-0.165,-0.070
4782,-0.165,-0.065
4783,-0.170,-0.070
4784,-0.175,-0.075
4785,-0.170,-0.075
4786,-0.165,-0.075
4787,-0.160,-0.070
4788,-0.155,-0.065
4789,-0.160,-0.070
4790,-0.165,-0.075
4791,-0.165,-0.080
4792,-0.170,-0.080
4793,-0.175,-0.075
4794,-0.165,-0.070
4795,-0.155,-0.065
4796,-0.155,-0.070
4797,-0.155,-0.075
4798,-0.160,-0.080
4799,-0.165,-0.085
4800,-0.160,-0.080
4801,-0.155,-0.075
4802,-0.155,-0.065
4803,-0.155,-0.055
4804,-0.150,-0.060
4805,-0.145,-0.065
4806,-0.125,-0.065
4807,-0.115,-0.060
4808,-0.110,-0.035
4809,-0.105,-0.015
4810,-0.095,-0.005
4811,-0.075,0.005
4812,-0.045,0.005
4813,-0.020,0.010
4814,-0.005,0.025
4815,0.015,0.025
4816,0.035,0.005
4817,0.040,-0.020
4818,0.025,-0.045
4819,0.010,-0.060
4820,-0.010,-0.070
4821,-0.030,-0.075
4822,-0.055,-0.080
4823,-0.085,-0.085
4824,-0.115,-0.085
4825,-0.125,-0.085
4826,-0.130,-0.085
4827,-0.140,-0.085
4828,-0.150,-0.090
4829,-0.155,-0.100
4830,-0.155,-0.110
4831,-0.155,-0.115
4832,-0.150,-0.110
4833,-0.140,-0.100
4834,-0.125,-0.085
4835,-0.105,-0.045
4836,-0.085,-0.005
4837,-0.075,-0.035
4838,-0.035,-0.070
4839,0.245,-0.130
4840,0.535,-0.185
4841,0.855,-0.160
4842,1.110,-0.140
4843,1.070,-0.170
4844,0.890,-0.220
4845,0.290,-0.325
4846,-0.215,-0.390
4847,-0.490,-0.330
4848,-0.660,-0.270
4849,-0.610,-0.225
4850,-0.530,-0.190
4851,-0.415,-0.170
4852,-0.315,-0.150
4853,-0.235,-0.135
4854,-0.190,-0.120
4855,-0.165,-0.095
4856,-0.160,-0.085
4857,-0.170,-0.085
4858,-0.175,-0.085
4859,-0.170,-0.090
4860,-0.165,-0.095
4861,-0.160,-0.095
4862,-0.155,-0.095
4863,-0.155,-0.090
4864,-0.155,-0.085
4865,-0.160,-0.085
4866,-0.165,-0.085
4867,-0.160,-0.090
4868,-0.155,-0.095
4869,-0.155,-0.095
4870,-0.150,-0.095
4871,-0.140,-0.090
4872,-0.135,-0.085
4873,-0.135,-0.085
4874,-0.135,-0.085
4875,-0.135,-0.085
4876,-0.120,-0.080
4877,-0.115,-0.085
4878,-0.110,-0.080
4879,-0.105,-0.075
4880,-0.105,-0.075
4881,-0.105,-0.075
4882,-0.100,-0.075
4883,-0.095,-0.075
4884,-0.095,-0.080
4885,-0.095,-0.085
4886,-0.080,-0.085
4887,-0.065,-0.085
4888,-0.060,-0.075
4889,-0.055,-0.065
4890,-0.045,-0.075
4891,-0.035,-0.085
4892,-0.030,-0.085
4893,-0.025,-0.085
4894,-0.020,-0.085
4895,-0.010,-0.085
4896,0.005,-0.080
4897,0.015,-0.075
4898,0.020,-0.080
4899,0.025,-0.090
4900,0.030,-0.100
4901,0.040,-0.105
4902,0.055,-0.100
4903,0.075,-0.095
4904,0.090,-0.095
4905,0.100,-0.095
4906,0.110,-0.095
4907,0.125,-0.105
4908,0.140,-0.120
4909,0.155,-0.120
4910,0.170,-0.110
4911,0.175,-0.105
4912,0.180,-0.110
4913,0.185,-0.115
4914,0.190,-0.120
4915,0.205,-0.125
4916,0.220,-0.130
4917,0.215,-0.130
4918,0.205,-0.125
4919,0.205,-0.120
4920,0.205,-0.115
4921,0.200,-0.110
4922,0.195,-0.105
4923,0.170,-0.105
4924,0.145,-0.105
4925,0.125,-0.095
4926,0.100,-0.085
4927,0.075,-0.070
4928,0.050,-0.055
4929,0.020,-0.055
4930,-0.010,-0.055
4931,-0.045,-0.055
4932,-0.070,-0.055
4933,-0.085,-0.050
4934,-0.095,-0.045
4935,-0.100,-0.040
4936,-0.105,-0.035
4937,-0.110,-0.040
4938,-0.120,-0.045
4939,-0.130,-0.050
4940,-0.135,-0.055
4941,-0.135,-0.050
4942,-0.135,-0.045
4943,-0.135,-0.040
4944,-0.135,-0.035
4945,-0.135,-0.040
4946,-0.135,-0.045
4947,-0.135,-0.050
4948,-0.135,-0.055
4949,-0.135,-0.050
4950,-0.135,-0.045
4951,-0.130,-0.045
4952,-0.125,-0.045
4953,-0.125,-0.040
4954,-0.125,-0.040
4955,-0.130,-0.050
4956,-0.135,-0.055
4957,-0.130,-0.050
4958,-0.125,-0.045
4959,-0.125,-0.045
4960,-0.120,-0.045
4961,-0.115,-0.045
4962,-0.115,-0.050
4963,-0.115,-0.055
4964,-0.125,-0.055
4965,-0.135,-0.055
4966,-0.130,-0.050
4967,-0.125,-0.045
4968,-0.120,-0.045
4969,-0.115,-0.045
4970,-0.125,-0.050
4971,-0.135,-0.055
4972,-0.130,-0.055
4973,-0.125,-0.055
4974,-0.125,-0.050
4975,-0.125,-0.045
4976,-0.130,-0.050
4977,-0.135,-0.055
4978,-0.135,-0.060
4979,-0.135,-0.065
4980,-0.140,-0.065
4981,-0.145,-0.065
4982,-0.140,-0.060
4983,-0.135,-0.055
4984,-0.140,-0.055
4985,-0.145,-0.060
4986,-0.145,-0.070
4987,-0.145,-0.070
4988,-0.140,-0.060
4989,-0.135,-0.055
4990,-0.140,-0.060
4991,-0.145,-0.065
4992,-0.150,-0.065
4993,-0.155,-0.065
4994,-0.150,-0.070
4995,-0.145,-0.075
4996,-0.150,-0.075
4997,-0.150,-0.070
4998,-0.140,-0.060
4999,-0.135,-0.055
5000,-0.135,-0.055
5001,-0.140,-0.070
5002,-0.145,-0.075
5003,-0.140,-0.075
5004,-0.135,-0.075
5005,-0.135,-0.070
5006,-0.135,-0.065
5007,-0.140,-0.065
5008,-0.145,-0.065
5009,-0.140,-0.070
5010,-0.135,-0.075
5011,-0.140,-0.075
5012,-0.145,-0.075
5013,-0.140,-0.070
5014,-0.135,-0.065
5015,-0.135,-0.065
5016,-0.135,-0.065
5017,-0.135,-0.075
5018,-0.135,-0.085
5019,-0.130,-0.075
5020,-0.125,-0.065
5021,-0.125,-0.060
5022,-0.125,-0.055
5023,-0.125,-0.060
5024,-0.125,-0.065
5025,-0.120,-0.070
5026,-0.120,-0.075
5027,-0.130,-0.070
5028,-0.130,-0.065
5029,-0.120,-0.065
5030,-0.115,-0.065
5031,-0.115,-0.065
5032,-0.115,-0.070
5033,-0.120,-0.080
5034,-0.120,-0.085
5035,-0.110,-0.080
5036,-0.105,-0.070
5037,-0.100,-0.060
5038,-0.095,-0.055
5039,-0.100,-0.060
5040,-0.105,-0.065
5041,-0.105,-0.070
5042,-0.110,-0.075
5043,-0.115,-0.075
5044,-0.105,-0.065
5045,-0.095,-0.055
5046,-0.100,-0.060
5047,-0.105,-0.065
5048,-0.105,-0.070
5049,-0.105,-0.075
5050,-0.095,-0.070
5051,-0.085,-0.065
5052,-0.080,-0.060
5053,-0.075,-0.055
5054,-0.080,-0.050
5055,-0.080,-0.045
5056,-0.060,-0.040
5057,-0.045,-0.030
5058,-0.040,-0.015
5059,-0.030,0.000
5060,-0.010,0.015
5061,0.015,0.025
5062,0.040,0.030
5063,0.060,0.035
5064,0.075,0.030
5065,0.085,0.010
5066,0.090,-0.020
5067,0.090,-0.040
5068,0.075,-0.055
5069,0.055,-0.065
5070,0.035,-0.065
5071,0.015,-0.070
5072,-0.005,-0.080
5073,-0.030,-0.085
5074,-0.055,-0.080
5075,-0.065,-0.075
5076,-0.070,-0.075
5077,-0.075,-0.075
5078,-0.080,-0.080
5079,-0.085,-0.085
5080,-0.085,-0.090
5081,-0.085,-0.095
5082,-0.080,-0.095
5083,-0.070,-0.080
5084,-0.055,-0.055
5085,-0.025,-0.015
5086,0.005,0.025
5087,0.025,-0.030
5088,0.070,-0.090
5089,0.330,-0.145
5090,0.605,-0.190
5091,0.955,-0.155
5092,1.230,-0.135
5093,1.190,-0.185
5094,0.995,-0.260
5095,0.345,-0.400
5096,-0.195,-0.485
5097,-0.470,-0.415
5098,-0.630,-0.340
5099,-0.555,-0.255
5100,-0.460,-0.195
5101,-0.335,-0.170
5102,-0.230,-0.145
5103,-0.140,-0.120
5104,-0.095,-0.100
5105,-0.095,-0.085
5106,-0.095,-0.075
5107,-0.090,-0.075
5108,-0.085,-0.075
5109,-0.085,-0.070
5110,-0.085,-0.065
5111,-0.085,-0.070
5112,-0.080,-0.075
5113,-0.070,-0.075
5114,-0.065,-0.070
5115,-0.070,-0.060
5116,-0.075,-0.055
5117,-0.070,-0.060
5118,-0.065,-0.065
5119,-0.065,-0.065
5120,-0.065,-0.065
5121,-0.065,-0.065
5122,-0.060,-0.065
5123,-0.050,-0.065
5124,-0.045,-0.065
5125,-0.045,-0.065
5126,-0.045,-0.060
5127,-0.045,-0.065
5128,-0.035,-0.060
5129,-0.025,-0.055
5130,-0.020,-0.055
5131,-0.015,-0.055
5132,-0.010,-0.055
5133,-0.005,-0.055
5134,0.005,-0.060
5135,0.015,-0.065
5136,0.010,-0.060
5137,0.005,-0.055
5138,0.020,-0.050
5139,0.035,-0.045
5140,0.045,-0.050
5141,0.055,-0.055
5142,0.055,-0.060
5143,0.060,-0.065
5144,0.080,-0.060
5145,0.095,-0.055
5146,0.110,-0.055
5147,0.115,-0.055
5148,0.120,-0.060
5149,0.130,-0.065
5150,0.140,-0.070
5151,0.145,-0.075
5152,0.150,-0.070
5153,0.170,-0.065
5154,0.195,-0.065
5155,0.210,-0.065
5156,0.220,-0.070
5157,0.235,-0.080
5158,0.250,-0.090
5159,0.260,-0.090
5160,0.270,-0.080
5161,0.280,-0.075
5162,0.290,-0.075
5163,0.300,-0.075
5164,0.310,-0.075
5165,0.315,-0.075
5166,0.320,-0.080
5167,0.315,-0.085
5168,0.305,-0.085
5169,0.305,-0.075
5170,0.305,-0.065
5171,0.290,-0.065
5172,0.275,-0.065
5173,0.250,-0.060
5174,0.225,-0.055
5175,0.205,-0.050
5176,0.180,-0.045
5177,0.150,-0.035
5178,0.120,-0.025
5179,0.090,-0.030
5180,0.060,-0.035
5181,0.035,-0.035
5182,0.010,-0.035
5183,-0.005,-0.030
5184,-0.015,-0.025
5185,-0.020,-0.025
5186,-0.030,-0.025
5187,-0.045,-0.020
5188,-0.055,-0.020
5189,-0.060,-0.030
5190,-0.065,-0.035
5191,-0.065,-0.030
5192,-0.065,-0.025
5193,-0.065,-0.025
5194,-0.065,-0.025
5195,-0.065,-0.030
5196,-0.065,-0.035
5197,-0.070,-0.035
5198,-0.075,-0.035
5199,-0.070,-0.035
5200,-0.065,-0.035
5201,-0.060,-0.030
5202,-0.055,-0.025
5203,-0.055,-0.030
5204,-0.055,-0.035
5205,-0.055,-0.035
5206,-0.055,-0.035
5207,-0.050,-0.030
5208,-0.045,-0.025
5209,-0.045,-0.025
5210,-0.050,-0.025
5211,-0.055,-0.025
5212,-0.055,-0.035
5213,-0.055,-0.045
5214,-0.060,-0.035
5215,-0.065,-0.025
5216,-0.060,-0.025
5217,-0.055,-0.025
5218,-0.055,-0.020
5219,-0.055,-0.015
5220,-0.060,-0.025
5221,-0.065,-0.035
5222,-0.065,-0.035
5223,-0.065,-0.035
5224,-0.065,-0.030
5225,-0.065,-0.025
5226,-0.065,-0.025
5227,-0.065,-0.025
5228,-0.075,-0.030
5229,-0.085,-0.035
5230,-0.085,-0.035
5231,-0.085,-0.035
5232,-0.080,-0.035
5233,-0.075,-0.035
5234,-0.075,-0.035
5235,-0.075,-0.035
5236,-0.080,-0.040
5237,-0.085,-0.045
5238,-0.080,-0.040
5239,-0.075,-0.035
5240,-0.080,-0.035
5241,-0.085,-0.035
5242,-0.085,-0.040
5243,-0.085,-0.045
5244,-0.090,-0.050
5245,-0.095,-0.055
5246,-0.090,-0.050
5247,-0.085,-0.045
5248,-0.080,-0.040
5249,-0.075,-0.035
5250,-0.075,-0.035
5251,-0.085,-0.050
5252,-0.085,-0.055
5253,-0.080,-0.045
5254,-0.075,-0.035
5255,-0.075,-0.035
5256,-0.075,-0.035
5257,-0.080,-0.035
5258,-0.085,-0.035
5259,-0.080,-0.040
5260,-0.075,-0.045
5261,-0.085,-0.045
5262,-0.095,-0.045
5263,-0.080,-0.040
5264,-0.065,-0.035
5265,-0.065,-0.035
5266,-0.065,-0.035
5267,-0.070,-0.045
5268,-0.075,-0.055
5269,-0.070,-0.050
5270,-0.065,-0.045
5271,-0.070,-0.045
5272,-0.075,-0.045
5273,-0.075,-0.040
5274,-0.075,-0.035
5275,-0.070,-0.040
5276,-0.070,-0.045
5277,-0.080,-0.045
5278,-0.080,-0.045
5279,-0.070,-0.040
5280,-0.065,-0.035
5281,-0.065,-0.040
5282,-0.065,-0.045
5283,-0.070,-0.045
5284,-0.075,-0.045
5285,-0.070,-0.045
5286,-0.065,-0.045
5287,-0.065,-0.040
5288,-0.065,-0.035
5289,-0.065,-0.040
5290,-0.065,-0.045
5291,-0.065,-0.050
5292,-0.075,-0.050
5293,-0.085,-0.045
5294,-0.070,-0.040
5295,-0.055,-0.035
5296,-0.060,-0.040
5297,-0.065,-0.045
5298,-0.065,-0.050
5299,-0.065,-0.055
5300,-0.055,-0.050
5301,-0.045,-0.045
5302,-0.050,-0.040
5303,-0.055,-0.035
5304,-0.060,-0.035
5305,-0.065,-0.035
5306,-0.065,-0.045
5307,-0.065,-0.055
5308,-0.070,-0.050
5309,-0.070,-0.045
5310,-0.055,-0.035
5311,-0.045,-0.025
5312,-0.040,-0.025
5313,-0.025,-0.020
5314,-0.005,-0.005
5315,0.010,0.005
5316,0.020,0.005
5317,0.035,0.020
5318,0.055,0.045
5319,0.070,0.060
5320,0.090,0.070
5321,0.100,0.060
5322,0.110,0.035
5323,0.105,0.005
5324,0.090,-0.025
5325,0.085,-0.035
5326,0.085,-0.040
5327,0.070,-0.045
5328,0.050,-0.050
5329,0.020,-0.055
5330,-0.010,-0.050
5331,-0.020,-0.050
5332,-0.030,-0.060
5333,-0.040,-0.065
5334,-0.055,-0.055
5335,-0.070,-0.065
5336,-0.085,-0.075
5337,-0.080,-0.080
5338,-0.075,-0.085
5339,-0.080,-0.080
5340,-0.085,-0.075
5341,-0.050,-0.050
5342,-0.020,-0.020
5343,0.005,0.020
5344,0.030,0.040
5345,0.060,-0.040
5346,0.175,-0.105
5347,0.480,-0.140
5348,0.810,-0.155
5349,1.185,-0.120
5350,1.305,-0.125
5351,1.020,-0.215
5352,0.595,-0.315
5353,-0.005,-0.430
5354,-0.405,-0.460
5355,-0.595,-0.385
5356,-0.620,-0.305
5357,-0.500,-0.220
5358,-0.370,-0.175
5359,-0.230,-0.145
5360,-0.145,-0.115
5361,-0.095,-0.080
5362,-0.075,-0.065
5363,-0.070,-0.065
5364,-0.070,-0.065
5365,-0.080,-0.060
5366,-0.085,-0.055
5367,-0.085,-0.055
5368,-0.085,-0.060
5369,-0.085,-0.070
5370,-0.085,-0.070
5371,-0.090,-0.060
5372,-0.090,-0.055
5373,-0.080,-0.055
5374,-0.075,-0.055
5375,-0.075,-0.055
5376,-0.075,-0.055
5377,-0.075,-0.065
5378,-0.065,-0.060
5379,-0.055,-0.055
5380,-0.055,-0.050
5381,-0.055,-0.045
5382,-0.055,-0.045
5383,-0.055,-0.045
5384,-0.045,-0.055
5385,-0.035,-0.065
5386,-0.040,-0.060
5387,-0.045,-0.055
5388,-0.030,-0.050
5389,-0.015,-0.045
5390,-0.015,-0.045
5391,-0.015,-0.045
5392,-0.010,-0.050
5393,-0.005,-0.055
5394,0.005,-0.055
5395,0.015,-0.055
5396,0.030,-0.050
5397,0.035,-0.045
5398,0.040,-0.045
5399,0.045,-0.045
5400,0.050,-0.050
5401,0.055,-0.055
5402,0.060,-0.055
5403,0.075,-0.055
5404,0.090,-0.055
5405,0.100,-0.055
5406,0.110,-0.050
5407,0.120,-0.055
5408,0.130,-0.070
5409,0.145,-0.075
5410,0.160,-0.070
5411,0.170,-0.065
5412,0.180,-0.060
5413,0.195,-0.060
5414,0.210,-0.070
5415,0.225,-0.075
5416,0.240,-0.080
5417,0.250,-0.080
5418,0.255,-0.075
5419,0.270,-0.075
5420,0.285,-0.075
5421,0.290,-0.075
5422,0.295,-0.075
5423,0.295,-0.085
5424,0.295,-0.095
5425,0.300,-0.085
5426,0.305,-0.075
5427,0.290,-0.070
5428,0.275,-0.065
5429,0.260,-0.060
5430,0.240,-0.055
5431,0.215,-0.055
5432,0.185,-0.055
5433,0.150,-0.050
5434,0.115,-0.045
5435,0.090,-0.040
5436,0.070,-0.035
5437,0.050,-0.035
5438,0.025,-0.035
5439,0.000,-0.035
5440,-0.020,-0.035
5441,-0.030,-0.030
5442,-0.040,-0.025
5443,-0.055,-0.025
5444,-0.070,-0.025
5445,-0.080,-0.030
5446,-0.085,-0.035
5447,-0.085,-0.035
5448,-0.090,-0.035
5449,-0.100,-0.035
5450,-0.100,-0.035
5451,-0.090,-0.035
5452,-0.085,-0.035
5453,-0.090,-0.035
5454,-0.095,-0.035
5455,-0.095,-0.040
5456,-0.090,-0.045
5457,-0.080,-0.040
5458,-0.075,-0.035
5459,-0.075,-0.035
5460,-0.075,-0.035
5461,-0.075,-0.035
5462,-0.070,-0.040
5463,-0.065,-0.045
5464,-0.075,-0.045
5465,-0.085,-0.045
5466,-0.080,-0.040
5467,-0.075,-0.035
5468,-0.075,-0.035
5469,-0.075,-0.035
5470,-0.080,-0.040
5471,-0.085,-0.045
5472,-0.080,-0.040
5473,-0.075,-0.035
5474,-0.080,-0.035
5475,-0.085,-0.035
5476,-0.085,-0.035
5477,-0.085,-0.035
5478,-0.085,-0.045
5479,-0.085,-0.055
5480,-0.100,-0.055
5481,-0.100,-0.055
5482,-0.090,-0.050
5483,-0.090,-0.045
5484,-0.100,-0.045
5485,-0.105,-0.045
5486,-0.105,-0.050
5487,-0.105,-0.055
5488,-0.105,-0.055
5489,-0.105,-0.055
5490,-0.110,-0.055
5491,-0.115,-0.055
5492,-0.120,-0.055
5493,-0.125,-0.055
5494,-0.125,-0.060
5495,-0.125,-0.065
5496,-0.130,-0.070
5497,-0.130,-0.070
5498,-0.120,-0.060
5499,-0.115,-0.055
5500,-0.115,-0.055
5501,-0.125,-0.060
5502,-0.125,-0.065
5503,-0.120,-0.060
5504,-0.115,-0.055
5505,-0.120,-0.060
5506,-0.125,-0.065
5507,-0.125,-0.065
5508,-0.125,-0.065
5509,-0.125,-0.065
5510,-0.125,-0.065
5511,-0.130,-0.065
5512,-0.135,-0.065
5513,-0.130,-0.065
5514,-0.125,-0.065
5515,-0.125,-0.065
5516,-0.125,-0.065
5517,-0.130,-0.070
5518,-0.135,-0.075
5519,-0.130,-0.070
5520,-0.125,-0.065
5521,-0.125,-0.065
5522,-0.125,-0.065
5523,-0.125,-0.065
5524,-0.125,-0.065
5525,-0.120,-0.070
5526,-0.120,-0.075
5527,-0.130,-0.070
5528,-0.130,-0.065
5529,-0.120,-0.065
5530,-0.115,-0.065
5531,-0.120,-0.065
5532,-0.125,-0.065
5533,-0.125,-0.070
5534,-0.125,-0.075
5535,-0.125,-0.070
5536,-0.125,-0.065
5537,-0.120,-0.065
5538,-0.115,-0.065
5539,-0.120,-0.070
5540,-0.125,-0.075
5541,-0.125,-0.075
5542,-0.125,-0.075
5543,-0.125,-0.075
5544,-0.120,-0.070
5545,-0.115,-0.065
5546,-0.115,-0.070
5547,-0.115,-0.075
5548,-0.115,-0.075
5549,-0.115,-0.075
5550,-0.120,-0.070
5551,-0.125,-0.065
5552,-0.120,-0.065
5553,-0.115,-0.065
5554,-0.120,-0.070
5555,-0.125,-0.075
5556,-0.120,-0.080
5557,-0.115,-0.085
5558,-0.125,-0.080
5559,-0.130,-0.075
5560,-0.115,-0.075
5561,-0.105,-0.075
5562,-0.110,-0.075
5563,-0.115,-0.075
5564,-0.120,-0.080
5565,-0.120,-0.085
5566,-0.110,-0.080
5567,-0.105,-0.075
5568,-0.110,-0.075
5569,-0.115,-0.075
5570,-0.115,-0.075
5571,-0.115,-0.075
5572,-0.115,-0.080
5573,-0.115,-0.085
5574,-0.120,-0.085
5575,-0.120,-0.080
5576,-0.110,-0.070
5577,-0.105,-0.065
5578,-0.105,-0.070
5579,-0.105,-0.075
5580,-0.100,-0.070
5581,-0.080,-0.050
5582,-0.060,-0.030
5583,-0.055,-0.025
5584,-0.055,-0.015
5585,-0.030,-0.005
5586,-0.005,0.005
5587,0.020,0.015
5588,0.045,0.025
5589,0.050,0.005
5590,0.055,-0.015
5591,0.045,-0.050
5592,0.035,-0.075
5593,0.030,-0.080
5594,0.020,-0.085
5595,-0.015,-0.090
5596,-0.045,-0.095
5597,-0.060,-0.090
5598,-0.080,-0.085
5599,-0.100,-0.090
5600,-0.115,-0.095
5601,-0.125,-0.100
5602,-0.135,-0.105
5603,-0.130,-0.110
5604,-0.125,-0.115
5605,-0.130,-0.115
5606,-0.130,-0.115
5607,-0.120,-0.110
5608,-0.110,-0.095
5609,-0.095,-0.065
5610,-0.075,-0.050
5611,-0.055,-0.035
5612,0.020,-0.065
5613,0.125,-0.135
5614,0.385,-0.155
5615,0.705,-0.155
5616,1.040,-0.140
5617,1.380,-0.120
5618,1.100,-0.195
5619,0.675,-0.300
5620,0.175,-0.370
5621,-0.345,-0.435
5622,-0.525,-0.385
5623,-0.675,-0.310
5624,-0.580,-0.265
5625,-0.685,-0.305
5626,-0.365,-0.200
5627,-0.265,-0.185
5628,-0.205,-0.150
5629,-0.145,-0.115
5630,-0.140,-0.110
5631,-0.135,-0.105
5632,-0.145,-0.105
5633,-0.155,-0.105
5634,-0.155,-0.115
5635,-0.155,-0.125
5636,-0.160,-0.115
5637,-0.165,-0.105
5638,-0.155,-0.105
5639,-0.145,-0.105
5640,-0.145,-0.105
5641,-0.145,-0.105
5642,-0.145,-0.105
5643,-0.140,-0.105
5644,-0.125,-0.105
5645,-0.115,-0.105
5646,-0.130,-0.105
5647,-0.130,-0.105
5648,-0.120,-0.105
5649,-0.115,-0.105
5650,-0.110,-0.110
5651,-0.105,-0.115
5652,-0.110,-0.110
5653,-0.110,-0.105
5654,-0.100,-0.100
5655,-0.095,-0.095
5656,-0.095,-0.095
5657,-0.095,-0.095
5658,-0.090,-0.100
5659,-0.080,-0.105
5660,-0.070,-0.100
5661,-0.065,-0.095
5662,-0.060,-0.090
5663,-0.055,-0.085
5664,-0.050,-0.090
5665,-0.045,-0.095
5666,-0.040,-0.100
5667,-0.040,-0.105
5668,-0.045,-0.105
5669,-0.025,-0.100
5670,-0.005,-0.095
5671,0.000,-0.100
5672,0.005,-0.105
5673,0.010,-0.110
5674,0.015,-0.115
5675,0.035,-0.115
5676,0.055,-0.115
5677,0.070,-0.110
5678,0.085,-0.105
5679,0.090,-0.110
5680,0.095,-0.115
5681,0.115,-0.125
5682,0.125,-0.135
5683,0.125,-0.130
5684,0.135,-0.125
5685,0.160,-0.125
5686,0.175,-0.125
5687,0.175,-0.130
5688,0.180,-0.135
5689,0.190,-0.140
5690,0.200,-0.145
5691,0.215,-0.140
5692,0.225,-0.135
5693,0.220,-0.130
5694,0.210,-0.125
5695,0.200,-0.130
5696,0.185,-0.135
5697,0.170,-0.135
5698,0.150,-0.130
5699,0.125,-0.120
5700,0.110,-0.105
5701,0.100,-0.090
5702,0.070,-0.085
5703,0.030,-0.080
5704,0.000,-0.075
5705,-0.030,-0.080
5706,-0.045,-0.085
5707,-0.060,-0.080
5708,-0.075,-0.075
5709,-0.095,-0.065
5710,-0.110,-0.065
5711,-0.125,-0.065
5712,-0.135,-0.070
5713,-0.145,-0.075
5714,-0.155,-0.070
5715,-0.165,-0.065
5716,-0.160,-0.065
5717,-0.155,-0.065
5718,-0.155,-0.065
5719,-0.155,-0.065
5720,-0.155,-0.070
5721,-0.155,-0.075
5722,-0.145,-0.075
5723,-0.135,-0.075
5724,-0.140,-0.070
5725,-0.145,-0.065
5726,-0.145,-0.065
5727,-0.145,-0.065
5728,-0.145,-0.070
5729,-0.145,-0.075
5730,-0.150,-0.075
5731,-0.150,-0.075
5732,-0.140,-0.070
5733,-0.135,-0.065
5734,-0.140,-0.070
5735,-0.145,-0.075
5736,-0.150,-0.075
5737,-0.150,-0.075
5738,-0.140,-0.070
5739,-0.135,-0.065
5740,-0.135,-0.065
5741,-0.140,-0.065
5742,-0.150,-0.065
5743,-0.155,-0.070
5744,-0.150,-0.080
5745,-0.150,-0.085
5746,-0.160,-0.085
5747,-0.165,-0.080
5748,-0.160,-0.070
5749,-0.155,-0.065
5750,-0.155,-0.065
5751,-0.170,-0.075
5752,-0.175,-0.075
5753,-0.170,-0.075
5754,-0.165,-0.075
5755,-0.170,-0.070
5756,-0.175,-0.065
5757,-0.175,-0.065
5758,-0.175,-0.065
5759,-0.170,-0.075
5760,-0.165,-0.085
5761,-0.175,-0.080
5762,-0.185,-0.075
5763,-0.180,-0.075
5764,-0.175,-0.075
5765,-0.180,-0.075
5766,-0.185,-0.075
5767,-0.185,-0.085
5768,-0.185,-0.095
5769,-0.180,-0.085
5770,-0.175,-0.075
5771,-0.175,-0.075
5772,-0.175,-0.075
5773,-0.175,-0.075
5774,-0.175,-0.080
5775,-0.180,-0.090
5776,-0.185,-0.090
5777,-0.185,-0.080
5778,-0.185,-0.075
5779,-0.180,-0.070
5780,-0.175,-0.070
5781,-0.175,-0.080
5782,-0.180,-0.085
5783,-0.190,-0.090
5784,-0.190,-0.090
5785,-0.180,-0.080
5786,-0.175,-0.075
5787,-0.170,-0.075
5788,-0.165,-0.075
5789,-0.170,-0.075
5790,-0.175,-0.075
5791,-0.180,-0.080
5792,-0.180,-0.080
5793,-0.175,-0.075
5794,-0.175,-0.070
5795,-0.175,-0.065
5796,-0.175,-0.075
5797,-0.175,-0.085
5798,-0.170,-0.085
5799,-0.165,-0.085
5800,-0.165,-0.080
5801,-0.165,-0.075
5802,-0.165,-0.070
5803,-0.165,-0.065
5804,-0.165,-0.075
5805,-0.165,-0.085
5806,-0.170,-0.085
5807,-0.175,-0.085
5808,-0.175,-0.085
5809,-0.175,-0.085
5810,-0.170,-0.080
5811,-0.165,-0.075
5812,-0.165,-0.080
5813,-0.165,-0.085
5814,-0.165,-0.085
5815,-0.165,-0.085
5816,-0.160,-0.080
5817,-0.155,-0.075
5818,-0.155,-0.075
5819,-0.155,-0.075
5820,-0.155,-0.075
5821,-0.155,-0.075
5822,-0.155,-0.080
5823,-0.155,-0.085
5824,-0.160,-0.080
5825,-0.165,-0.075
5826,-0.160,-0.080
5827,-0.155,-0.085
5828,-0.155,-0.080
5829,-0.155,-0.075
5830,-0.155,-0.080
5831,-0.155,-0.085
5832,-0.150,-0.080
5833,-0.145,-0.075
5834,-0.145,-0.075
5835,-0.145,-0.075
5836,-0.145,-0.075
5837,-0.150,-0.080
5838,-0.155,-0.085
5839,-0.150,-0.085
5840,-0.145,-0.085
5841,-0.140,-0.075
5842,-0.135,-0.065
5843,-0.125,-0.065
5844,-0.115,-0.060
5845,-0.100,-0.035
5846,-0.085,-0.015
5847,-0.075,-0.015
5848,-0.060,-0.010
5849,-0.045,0.005
5850,-0.025,0.015
5851,0.000,0.025
5852,0.020,0.030
5853,0.035,0.010
5854,0.040,-0.015
5855,0.025,-0.040
5856,0.015,-0.060
5857,0.015,-0.070
5858,0.005,-0.075
5859,-0.015,-0.075
5860,-0.040,-0.080
5861,-0.070,-0.095
5862,-0.095,-0.105
5863,-0.110,-0.100
5864,-0.120,-0.095
5865,-0.130,-0.095
5866,-0.135,-0.095
5867,-0.135,-0.100
5868,-0.135,-0.105
5869,-0.135,-0.110
5870,-0.135,-0.115
5871,-0.135,-0.110
5872,-0.115,-0.075
5873,-0.090,-0.040
5874,-0.065,-0.015
5875,-0.085,-0.035
5876,0.040,-0.060
5877,0.130,-0.135
5878,0.460,-0.160
5879,0.795,-0.185
5880,1.145,-0.170
5881,1.385,-0.165
5882,0.930,-0.265
5883,0.460,-0.350
5884,-0.045,-0.390
5885,-0.465,-0.410
5886,-0.595,-0.335
5887,-0.665,-0.260
5888,-0.545,-0.205
5889,-0.430,-0.160
5890,-0.320,-0.145
5891,-0.225,-0.130
5892,-0.170,-0.115
5893,-0.135,-0.105
5894,-0.130,-0.100
5895,-0.125,-0.095
5896,-0.130,-0.095
5897,-0.135,-0.095
5898,-0.135,-0.090
5899,-0.135,-0.085
5900,-0.130,-0.090
5901,-0.125,-0.095
5902,-0.125,-0.095
5903,-0.125,-0.095
5904,-0.125,-0.090
5905,-0.125,-0.085
5906,-0.120,-0.085
5907,-0.115,-0.085
5908,-0.115,-0.085
5909,-0.115,-0.085
5910,-0.110,-0.080
5911,-0.105,-0.075
5912,-0.100,-0.070
5913,-0.095,-0.065
5914,-0.090,-0.070
5915,-0.085,-0.075
5916,-0.080,-0.075
5917,-0.080,-0.075
5918,-0.085,-0.075
5919,-0.075,-0.075
5920,-0.065,-0.075
5921,-0.060,-0.075
5922,-0.055,-0.075
5923,-0.050,-0.080
5924,-0.045,-0.085
5925,-0.030,-0.080
5926,-0.015,-0.075
5927,-0.010,-0.070
5928,-0.005,-0.065
5929,0.000,-0.065
5930,0.005,-0.065
5931,0.010,-0.075
5932,0.015,-0.085
5933,0.020,-0.085
5934,0.030,-0.085
5935,0.045,-0.080
5936,0.060,-0.075
5937,0.075,-0.080
5938,0.085,-0.085
5939,0.085,-0.090
5940,0.095,-0.095
5941,0.115,-0.090
5942,0.130,-0.085
5943,0.140,-0.085
5944,0.150,-0.085
5945,0.160,-0.090
5946,0.175,-0.100
5947,0.195,-0.110
5948,0.205,-0.115
5949,0.200,-0.110
5950,0.210,-0.105
5951,0.230,-0.105
5952,0.235,-0.105
5953,0.240,-0.105
5954,0.245,-0.110
5955,0.245,-0.120
5956,0.245,-0.120
5957,0.250,-0.110
5958,0.250,-0.105
5959,0.235,-0.095
5960,0.225,-0.095
5961,0.215,-0.095
5962,0.200,-0.090
5963,0.185,-0.085
5964,0.150,-0.080
5965,0.115,-0.075
5966,0.100,-0.065
5967,0.080,-0.055
5968,0.055,-0.050
5969,0.030,-0.045
5970,0.000,-0.050
5971,-0.025,-0.055
5972,-0.030,-0.045
5973,-0.040,-0.035
5974,-0.055,-0.035
5975,-0.065,-0.035
5976,-0.070,-0.035
5977,-0.075,-0.035
5978,-0.080,-0.040
5979,-0.085,-0.045
5980,-0.090,-0.045
5981,-0.095,-0.045
5982,-0.090,-0.040
5983,-0.085,-0.035
5984,-0.085,-0.035
5985,-0.085,-0.035
5986,-0.090,-0.035
5987,-0.090,-0.035
5988,-0.080,-0.035
5989,-0.075,-0.035
5990,-0.070,-0.035
5991,-0.065,-0.035
5992,-0.070,-0.040
5993,-0.075,-0.045
5994,-0.070,-0.045
5995,-0.065,-0.045
5996,-0.070,-0.045
5997,-0.075,-0.045
5998,-0.070,-0.040
5999,-0.065,-0.035
6000,-0.065,-0.035
6001,-0.070,-0.040
6002,-0.075,-0.045
6003,-0.070,-0.040
6004,-0.065,-0.035
6005,-0.065,-0.040
6006,-0.065,-0.045
6007,-0.070,-0.040
6008,-0.075,-0.035
6009,-0.070,-0.045
6010,-0.065,-0.055
6011,-0.075,-0.045
6012,-0.085,-0.035
6013,-0.080,-0.035
6014,-0.075,-0.035
6015,-0.080,-0.040
6016,-0.085,-0.045
6017,-0.090,-0.050
6018,-0.095,-0.055
6019,-0.090,-0.050
6020,-0.085,-0.045
6021,-0.090,-0.040
6022,-0.095,-0.035
6023,-0.095,-0.040
6024,-0.095,-0.045
6025,-0.095,-0.050
6026,-0.095,-0.055
6027,-0.100,-0.055
6028,-0.105,-0.055
6029,-0.100,-0.050
6030,-0.095,-0.045
6031,-0.095,-0.045
6032,-0.100,-0.045
6033,-0.110,-0.050
6034,-0.115,-0.055
6035,-0.110,-0.055
6036,-0.105,-0.055
6037,-0.100,-0.050
6038,-0.095,-0.045
6039,-0.100,-0.050
6040,-0.105,-0.055
6041,-0.105,-0.060
6042,-0.105,-0.065
6043,-0.105,-0.065
6044,-0.105,-0.055
6045,-0.105,-0.045
6046,-0.105,-0.045
6047,-0.105,-0.045
6048,-0.105,-0.050
6049,-0.105,-0.055
6050,-0.100,-0.055
6051,-0.095,-0.055
6052,-0.090,-0.055
6053,-0.085,-0.055
6054,-0.090,-0.055
6055,-0.095,-0.055
6056,-0.095,-0.060
6057,-0.095,-0.065
6058,-0.100,-0.065
6059,-0.105,-0.065
6060,-0.100,-0.055
6061,-0.095,-0.045
6062,-0.090,-0.050
6063,-0.085,-0.055
6064,-0.090,-0.060
6065,-0.095,-0.065
6066,-0.090,-0.060
6067,-0.085,-0.055
6068,-0.085,-0.050
6069,-0.085,-0.045
6070,-0.085,-0.050
6071,-0.085,-0.055
6072,-0.085,-0.060
6073,-0.090,-0.060
6074,-0.100,-0.050
6075,-0.095,-0.045
6076,-0.080,-0.045
6077,-0.075,-0.045
6078,-0.080,-0.050
6079,-0.085,-0.055
6080,-0.090,-0.060
6081,-0.095,-0.065
6082,-0.090,-0.060
6083,-0.085,-0.055
6084,-0.085,-0.045
6085,-0.085,-0.050
6086,-0.085,-0.055
6087,-0.085,-0.060
6088,-0.085,-0.065
6089,-0.085,-0.065
6090,-0.085,-0.065
6091,-0.080,-0.055
6092,-0.075,-0.045
6093,-0.075,-0.045
6094,-0.075,-0.045
6095,-0.080,-0.050
6096,-0.085,-0.055
6097,-0.080,-0.055
6098,-0.075,-0.055
6099,-0.075,-0.050
6100,-0.075,-0.045
6101,-0.075,-0.050
6102,-0.075,-0.055
6103,-0.080,-0.055
6104,-0.085,-0.055
6105,-0.080,-0.055
6106,-0.075,-0.055
6107,-0.075,-0.050
6108,-0.075,-0.045
6109,-0.070,-0.050
6110,-0.060,-0.055
6111,-0.050,-0.050
6112,-0.040,-0.040
6113,-0.030,-0.030
6114,-0.020,-0.015
6115,-0.010,0.010
6116,0.000,0.015
6117,0.010,0.020
6118,0.025,0.025
6119,0.040,0.030
6120,0.065,0.040
6121,0.090,0.050
6122,0.095,0.030
6123,0.095,0.000
6124,0.085,-0.030
6125,0.095,-0.005
6126,0.055,-0.065
6127,0.045,-0.065
6128,0.015,-0.060
6129,-0.015,-0.055
6130,-0.035,-0.055
6131,-0.055,-0.055
6132,-0.065,-0.065
6133,-0.075,-0.075
6134,-0.090,-0.080
6135,-0.105,-0.085
6136,-0.100,-0.085
6137,-0.095,-0.085
6138,-0.090,-0.080
6139,-0.085,-0.075
6140,-0.075,-0.075
6141,-0.060,-0.060
6142,-0.030,-0.015
6143,-0.015,0.005
6144,-0.005,-0.025
6145,0.120,-0.075
6146,0.365,-0.150
6147,0.655,-0.170
6148,0.995,-0.135
6149,1.140,-0.140
6150,1.125,-0.185
6151,0.710,-0.295
6152,0.045,-0.450
6153,-0.355,-0.470
6154,-0.625,-0.415
6155,-0.640,-0.335
6156,-0.540,-0.240
6157,-0.420,-0.200
6158,-0.285,-0.175
6159,-0.190,-0.135
6160,-0.110,-0.095
6161,-0.095,-0.075
6162,-0.095,-0.060
6163,-0.095,-0.060
6164,-0.100,-0.070
6165,-0.110,-0.075
6166,-0.120,-0.075
6167,-0.120,-0.075
6168,-0.115,-0.075
6169,-0.110,-0.065
6170,-0.105,-0.055
6171,-0.105,-0.060
6172,-0.105,-0.065
6173,-0.100,-0.065
6174,-0.095,-0.065
6175,-0.095,-0.065
6176,-0.095,-0.065
6177,-0.095,-0.060
6178,-0.095,-0.055
6179,-0.085,-0.055
6180,-0.075,-0.055
6181,-0.080,-0.055
6182,-0.085,-0.055
6183,-0.080,-0.050
6184,-0.075,-0.045
6185,-0.070,-0.045
6186,-0.065,-0.045
6187,-0.055,-0.045
6188,-0.045,-0.050
6189,-0.040,-0.060
6190,-0.035,-0.060
6191,-0.030,-0.050
6192,-0.020,-0.045
6193,-0.010,-0.045
6194,-0.005,-0.045
6195,-0.005,-0.045
6196,-0.005,-0.045
6197,-0.005,-0.050
6198,0.005,-0.055
6199,0.020,-0.050
6200,0.030,-0.045
6201,0.040,-0.045
6202,0.045,-0.045
6203,0.050,-0.050
6204,0.065,-0.055
6205,0.080,-0.060
6206,0.085,-0.065
6207,0.090,-0.060
6208,0.105,-0.055
6209,0.125,-0.045
6210,0.135,-0.055
6211,0.145,-0.065
6212,0.155,-0.065
6213,0.165,-0.065
6214,0.180,-0.065
6215,0.195,-0.065
6216,0.210,-0.065
6217,0.225,-0.065
6218,0.235,-0.065
6219,0.245,-0.065
6220,0.255,-0.070
6221,0.265,-0.075
6222,0.270,-0.075
6223,0.275,-0.075
6224,0.275,-0.070
6225,0.275,-0.065
6226,0.275,-0.065
6227,0.270,-0.065
6228,0.255,-0.065
6229,0.240,-0.065
6230,0.215,-0.065
6231,0.195,-0.060
6232,0.175,-0.050
6233,0.150,-0.045
6234,0.120,-0.045
6235,0.090,-0.045
6236,0.060,-0.045
6237,0.030,-0.045
6238,0.005,-0.040
6239,-0.015,-0.035
6240,-0.040,-0.030
6241,-0.060,-0.025
6242,-0.080,-0.025
6243,-0.090,-0.025
6244,-0.100,-0.030
6245,-0.110,-0.035
6246,-0.120,-0.035
6247,-0.125,-0.035
6248,-0.120,-0.030
6249,-0.115,-0.025
6250,-0.115,-0.025
6251,-0.120,-0.040
6252,-0.115,-0.045
6253,-0.120,-0.040
6254,-0.125,-0.035
6255,-0.125,-0.030
6256,-0.125,-0.025
6257,-0.120,-0.030
6258,-0.115,-0.035
6259,-0.120,-0.040
6260,-0.125,-0.045
6261,-0.120,-0.040
6262,-0.115,-0.035
6263,-0.110,-0.030
6264,-0.105,-0.025
6265,-0.105,-0.030
6266,-0.105,-0.035
6267,-0.105,-0.035
6268,-0.105,-0.035
6269,-0.105,-0.035
6270,-0.105,-0.035
6271,-0.110,-0.030
6272,-0.115,-0.025
6273,-0.115,-0.030
6274,-0.120,-0.035
6275,-0.130,-0.040
6276,-0.135,-0.045
6277,-0.130,-0.040
6278,-0.125,-0.035
6279,-0.120,-0.035
6280,-0.115,-0.035
6281,-0.120,-0.035
6282,-0.125,-0.035
6283,-0.125,-0.040
6284,-0.125,-0.045
6285,-0.125,-0.040
6286,-0.125,-0.035
6287,-0.130,-0.035
6288,-0.135,-0.035
6289,-0.135,-0.035
6290,-0.140,-0.040
6291,-0.150,-0.050
6292,-0.150,-0.050
6293,-0.145,-0.045
6294,-0.145,-0.045
6295,-0.145,-0.045
6296,-0.145,-0.045
6297,-0.145,-0.045
6298,-0.145,-0.050
6299,-0.145,-0.055
6300,-0.145,-0.055
6301,-0.145,-0.055
6302,-0.145,-0.050
6303,-0.145,-0.045
6304,-0.145,-0.050
6305,-0.145,-0.055
6306,-0.150,-0.055
6307,-0.155,-0.055
6308,-0.155,-0.055
6309,-0.155,-0.055
6310,-0.150,-0.050
6311,-0.145,-0.045
6312,-0.140,-0.050
6313,-0.135,-0.055
6314,-0.140,-0.060
6315,-0.145,-0.065
6316,-0.140,-0.060
6317,-0.135,-0.055
6318,-0.140,-0.050
6319,-0.145,-0.045
6320,-0.145,-0.045
6321,-0.145,-0.050
6322,-0.150,-0.060
6323,-0.155,-0.065
6324,-0.150,-0.060
6325,-0.145,-0.055
6326,-0.145,-0.050
6327,-0.145,-0.045
6328,-0.140,-0.050
6329,-0.135,-0.055
6330,-0.140,-0.060
6331,-0.145,-0.065
6332,-0.140,-0.060
6333,-0.135,-0.055
6334,-0.135,-0.055
6335,-0.135,-0.055
6336,-0.135,-0.055
6337,-0.140,-0.060
6338,-0.145,-0.065
6339,-0.145,-0.060
6340,-0.145,-0.055
6341,-0.140,-0.050
6342,-0.135,-0.045
6343,-0.135,-0.050
6344,-0.135,-0.055
6345,-0.140,-0.060
6346,-0.145,-0.065
6347,-0.135,-0.060
6348,-0.125,-0.055
6349,-0.125,-0.050
6350,-0.125,-0.045
6351,-0.130,-0.055
6352,-0.135,-0.065
6353,-0.135,-0.065
6354,-0.135,-0.065
6355,-0.135,-0.065
6356,-0.135,-0.065
6357,-0.130,-0.060
6358,-0.125,-0.055
6359,-0.130,-0.055
6360,-0.135,-0.055
6361,-0.135,-0.060
6362,-0.135,-0.065
6363,-0.130,-0.065
6364,-0.125,-0.065
6365,-0.125,-0.060
6366,-0.125,-0.055
6367,-0.125,-0.055
6368,-0.125,-0.055
6369,-0.130,-0.060
6370,-0.135,-0.065
6371,-0.130,-0.065
6372,-0.125,-0.065
6373,-0.120,-0.060
6374,-0.115,-0.055
6375,-0.115,-0.055
6376,-0.125,-0.060
6377,-0.125,-0.065
6378,-0.120,-0.060
6379,-0.115,-0.055
6380,-0.115,-0.060
6381,-0.115,-0.065
6382,-0.120,-0.065
6383,-0.125,-0.065
6384,-0.130,-0.065
6385,-0.135,-0.065
6386,-0.125,-0.060
6387,-0.115,-0.055
6388,-0.110,-0.050
6389,-0.100,-0.045
6390,-0.080,-0.035
6391,-0.065,-0.025
6392,-0.055,-0.015
6393,-0.045,-0.005
6394,-0.035,0.005
6395,-0.020,0.015
6396,0.005,0.020
6397,0.025,0.030
6398,0.045,0.040
6399,0.050,0.025
6400,0.040,-0.015
6401,0.035,-0.045
6402,0.030,-0.065
6403,0.015,-0.075
6404,-0.005,-0.070
6405,-0.035,-0.065
6406,-0.065,-0.065
6407,-0.085,-0.075
6408,-0.100,-0.090
6409,-0.110,-0.095
6410,-0.120,-0.095
6411,-0.130,-0.095
6412,-0.140,-0.095
6413,-0.145,-0.095
6414,-0.140,-0.100
6415,-0.135,-0.105
6416,-0.135,-0.100
6417,-0.130,-0.090
6418,-0.125,-0.085
6419,-0.095,-0.040
6420,-0.065,0.005
6421,-0.060,-0.015
6422,-0.030,-0.045
6423,0.200,-0.130
6424,0.450,-0.200
6425,0.790,-0.155
6426,1.060,-0.120
6427,1.095,-0.145
6428,0.955,-0.205
6429,0.300,-0.370
6430,-0.240,-0.475
6431,-0.530,-0.435
6432,-0.690,-0.380
6433,-0.605,-0.295
6434,-0.510,-0.235
6435,-0.385,-0.205
6436,-0.280,-0.170
6437,-0.200,-0.135
6438,-0.155,-0.110
6439,-0.150,-0.100
6440,-0.145,-0.095
6441,-0.150,-0.095
6442,-0.155,-0.095
6443,-0.150,-0.090
6444,-0.150,-0.085
6445,-0.160,-0.085
6446,-0.165,-0.085
6447,-0.160,-0.090
6448,-0.155,-0.095
6449,-0.155,-0.090
6450,-0.150,-0.085
6451,-0.140,-0.080
6452,-0.135,-0.075
6453,-0.140,-0.075
6454,-0.145,-0.075
6455,-0.145,-0.080
