'sample interval','ECG1','ECG2'
'0.004 sec','mV','mV'
0,-0.035,-0.015
1,-0.145,-0.055
2,-0.175,-0.075
3,-0.175,-0.085
4,-0.175,-0.095
5,-0.160,-0.090
6,-0.145,-0.085
7,-0.145,-0.080
8,-0.145,-0.075
9,-0.140,-0.075
10,-0.135,-0.075
11,-0.125,-0.080
12,-0.110,-0.085
13,-0.085,-0.070
14,-0.100,-0.055
15,-0.205,-0.045
16,-0.345,-0.015
17,-0.545,0.040
18,-0.630,0.110
19,-0.545,0.195
20,-0.215,0.280
21,0.390,0.365
22,1.155,0.390
23,2.070,0.360
24,2.700,0.180
25,3.105,-0.125
26,3.135,-0.435
27,2.920,-0.755
28,2.185,-0.845
29,1.175,-0.810
30,0.590,-0.665
31,0.180,-0.475
32,-0.025,-0.310
33,-0.165,-0.160
34,-0.215,-0.095
35,-0.240,-0.055
36,-0.245,-0.045
37,-0.250,-0.050
38,-0.255,-0.055
39,-0.255,-0.050
40,-0.255,-0.050
41,-0.255,-0.060
42,-0.260,-0.065
43,-0.265,-0.065
44,-0.265,-0.060
45,-0.265,-0.055
46,-0.265,-0.045
47,-0.265,-0.035
48,-0.265,-0.050
49,-0.265,-0.065
50,-0.270,-0.060
51,-0.275,-0.055
52,-0.265,-0.055
53,-0.255,-0.055
54,-0.255,-0.045
55,-0.255,-0.035
56,-0.245,-0.040
57,-0.235,-0.045
58,-0.235,-0.045
59,-0.235,-0.045
60,-0.225,-0.050
61,-0.215,-0.055
62,-0.210,-0.050
63,-0.205,-0.050
64,-0.205,-0.060
65,-0.205,-0.070
66,-0.205,-0.080
67,-0.205,-0.085
68,-0.200,-0.085
69,-0.195,-0.085
70,-0.190,-0.085
71,-0.180,-0.085
72,-0.170,-0.090
73,-0.160,-0.100
74,-0.150,-0.110
75,-0.135,-0.115
76,-0.120,-0.115
77,-0.105,-0.115
78,-0.090,-0.115
79,-0.085,-0.115
80,-0.080,-0.120
81,-0.060,-0.130
82,-0.040,-0.140
83,-0.030,-0.140
84,-0.015,-0.125
85,0.010,-0.120
86,0.035,-0.115
87,0.040,-0.115
88,0.045,-0.115
89,0.070,-0.110
90,0.095,-0.105
91,0.100,-0.105
92,0.105,-0.105
93,0.115,-0.085
94,0.125,-0.065
95,0.115,-0.050
96,0.105,-0.035
97,0.100,-0.025
98,0.095,-0.015
99,0.085,-0.005
100,0.070,0.005
101,0.055,0.015
102,0.040,0.025
103,0.025,0.025
104,0.010,0.025
105,-0.015,0.010
106,-0.025,0.005
107,-0.025,0.005
108,-0.025,0.010
109,-0.025,0.020
110,-0.025,0.025
111,-0.025,0.020
112,-0.025,0.010
113,-0.030,0.000
114,-0.035,0.000
115,-0.030,0.010
116,-0.020,0.015
117,-0.010,0.015
118,-0.005,0.010
119,-0.005,0.000
120,-0.010,-0.005
121,-0.020,-0.005
122,-0.020,-0.005
123,-0.010,0.000
124,-0.005,0.005
125,-0.005,0.005
126,-0.010,0.010
127,-0.015,0.005
128,0.000,0.015
129,0.015,0.025
130,0.035,0.055
131,0.055,0.085
132,0.060,0.105
133,0.065,0.125
134,0.075,0.135
135,0.095,0.145
136,0.140,0.140
137,0.165,0.130
138,0.130,0.110
139,0.105,0.075
140,0.100,0.015
141,0.080,-0.020
142,0.040,-0.005
143,0.010,-0.005
144,-0.005,-0.030
145,-0.020,-0.045
146,-0.035,-0.030
147,-0.055,-0.025
148,-0.080,-0.020
149,-0.120,-0.025
150,-0.165,-0.055
151,-0.190,-0.070
152,-0.200,-0.085
153,-0.200,-0.095
154,-0.190,-0.090
155,-0.185,-0.080
156,-0.180,-0.070
157,-0.175,-0.065
158,-0.175,-0.070
159,-0.175,-0.075
160,-0.175,-0.080
161,-0.170,-0.085
162,-0.160,-0.080
163,-0.160,-0.070
164,-0.170,-0.060
165,-0.390,-0.035
166,-0.620,-0.010
167,-0.660,0.060
168,-0.685,0.125
169,-0.310,0.225
170,0.105,0.315
171,1.025,0.380
172,1.905,0.415
173,2.490,0.255
174,2.985,0.060
175,3.045,-0.280
176,2.895,-0.565
177,1.980,-0.660
178,1.140,-0.710
179,0.510,-0.600
180,0.025,-0.475
181,-0.150,-0.300
182,-0.275,-0.165
183,-0.320,-0.105
184,-0.345,-0.065
185,-0.345,-0.065
186,-0.345,-0.065
187,-0.350,-0.070
188,-0.355,-0.075
189,-0.355,-0.075
190,-0.355,-0.075
191,-0.360,-0.080
192,-0.365,-0.085
193,-0.360,-0.080
194,-0.355,-0.075
195,-0.355,-0.070
196,-0.355,-0.065
197,-0.350,-0.070
198,-0.345,-0.075
199,-0.350,-0.075
200,-0.350,-0.075
201,-0.340,-0.070
202,-0.335,-0.065
203,-0.335,-0.065
204,-0.335,-0.065
205,-0.330,-0.065
206,-0.325,-0.065
207,-0.325,-0.070
208,-0.325,-0.075
209,-0.315,-0.075
210,-0.315,-0.075
211,-0.315,-0.075
212,-0.315,-0.085
213,-0.315,-0.095
214,-0.310,-0.095
215,-0.305,-0.095
216,-0.305,-0.095
217,-0.305,-0.095
218,-0.290,-0.100
219,-0.275,-0.105
220,-0.275,-0.115
221,-0.275,-0.125
222,-0.265,-0.135
223,-0.255,-0.145
224,-0.250,-0.140
225,-0.235,-0.135
226,-0.210,-0.135
227,-0.195,-0.135
228,-0.190,-0.140
229,-0.180,-0.145
230,-0.165,-0.150
231,-0.150,-0.155
232,-0.140,-0.150
233,-0.120,-0.140
234,-0.090,-0.130
235,-0.070,-0.125
236,-0.055,-0.130
237,-0.035,-0.135
238,-0.020,-0.130
239,-0.005,-0.115
240,0.020,-0.090
241,0.025,-0.075
242,0.025,-0.060
243,0.025,-0.055
244,0.025,-0.050
245,0.020,-0.035
246,0.010,-0.020
247,0.000,-0.005
248,-0.010,0.010
249,-0.035,0.020
250,-0.015,0.015
251,-0.075,0.030
252,-0.085,0.025
253,-0.100,0.020
254,-0.115,0.015
255,-0.110,0.015
256,-0.105,0.015
257,-0.105,0.020
258,-0.105,0.025
259,-0.100,0.020
260,-0.095,0.015
261,-0.095,0.010
262,-0.095,0.005
263,-0.090,0.010
264,-0.085,0.015
265,-0.080,0.020
266,-0.075,0.025
267,-0.085,0.020
268,-0.095,0.010
269,-0.090,-0.005
270,-0.085,-0.010
271,-0.085,0.005
272,-0.080,0.015
273,-0.070,0.020
274,-0.060,0.025
275,-0.045,0.025
276,-0.025,0.040
277,-0.005,0.070
278,0.005,0.090
279,0.000,0.100
280,0.000,0.115
281,0.010,0.130
282,0.055,0.135
283,0.110,0.135
284,0.110,0.115
285,0.090,0.080
286,0.070,0.035
287,0.050,-0.015
288,0.020,-0.010
289,-0.010,0.010
290,-0.035,-0.005
291,-0.060,-0.030
292,-0.090,-0.035
293,-0.115,-0.035
294,-0.130,-0.035
295,-0.145,-0.035
296,-0.180,-0.045
297,-0.215,-0.055
298,-0.230,-0.065
299,-0.245,-0.075
300,-0.245,-0.085
301,-0.245,-0.095
302,-0.240,-0.095
303,-0.235,-0.095
304,-0.245,-0.085
305,-0.250,-0.075
306,-0.215,-0.080
307,-0.195,-0.085
308,-0.190,-0.075
309,-0.185,-0.065
310,-0.190,-0.065
311,-0.300,-0.060
312,-0.540,-0.040
313,-0.675,0.005
314,-0.695,0.065
315,-0.460,0.155
316,-0.005,0.275
317,0.740,0.385
318,1.675,0.495
319,2.315,0.450
320,2.785,0.320
321,2.945,0.040
322,2.965,-0.310
323,2.320,-0.485
324,1.425,-0.600
325,0.775,-0.585
326,0.195,-0.535
327,-0.045,-0.405
328,-0.220,-0.255
329,-0.295,-0.160
330,-0.360,-0.075
331,-0.375,-0.065
332,-0.390,-0.065
333,-0.380,-0.075
334,-0.355,-0.095
335,-0.340,-0.100
336,-0.325,-0.105
337,-0.335,-0.095
338,-0.345,-0.085
339,-0.345,-0.085
340,-0.345,-0.085
341,-0.350,-0.090
342,-0.355,-0.095
343,-0.345,-0.090
344,-0.340,-0.085
345,-0.370,-0.085
346,-0.395,-0.085
347,-0.385,-0.095
348,-0.365,-0.105
349,-0.330,-0.100
350,-0.305,-0.095
351,-0.295,-0.095
352,-0.295,-0.095
353,-0.325,-0.100
354,-0.345,-0.105
355,-0.350,-0.110
356,-0.345,-0.115
357,-0.320,-0.115
358,-0.300,-0.115
359,-0.285,-0.115
360,-0.280,-0.115
361,-0.290,-0.120
362,-0.295,-0.125
363,-0.295,-0.130
364,-0.285,-0.135
365,-0.260,-0.130
366,-0.255,-0.130
367,-0.255,-0.140
368,-0.255,-0.150
369,-0.255,-0.160
370,-0.245,-0.170
371,-0.230,-0.180
372,-0.220,-0.185
373,-0.210,-0.180
374,-0.185,-0.175
375,-0.205,-0.175
376,-0.135,-0.195
377,-0.115,-0.205
378,-0.110,-0.205
379,-0.105,-0.205
380,-0.080,-0.195
381,-0.055,-0.185
382,-0.045,-0.185
383,-0.030,-0.185
384,0.005,-0.185
385,0.035,-0.185
386,0.050,-0.175
387,0.060,-0.160
388,0.035,-0.140
389,0.025,-0.120
390,0.060,-0.100
391,0.085,-0.085
392,0.080,-0.075
393,0.065,-0.065
394,0.040,-0.055
395,0.015,-0.045
396,-0.020,-0.030
397,-0.030,-0.020
398,-0.015,-0.005
399,-0.010,0.005
400,-0.025,0.000
401,-0.040,-0.010
402,-0.050,-0.020
403,-0.050,-0.020
404,-0.040,-0.010
405,-0.035,-0.005
406,-0.030,-0.010
407,-0.040,-0.015
408,-0.065,-0.010
409,-0.065,-0.005
410,-0.050,-0.010
411,-0.035,-0.015
412,-0.020,-0.015
413,-0.005,-0.010
414,0.010,0.000
415,0.010,0.000
416,0.000,-0.010
417,-0.025,-0.020
418,-0.045,-0.025
419,-0.035,-0.025
420,-0.025,-0.025
421,0.000,-0.010
422,0.025,0.005
423,0.020,0.030
424,0.015,0.055
425,0.025,0.070
426,0.040,0.085
427,0.070,0.095
428,0.105,0.105
429,0.165,0.115
430,0.195,0.120
431,0.160,0.085
432,0.130,0.045
433,0.110,-0.010
434,0.085,-0.040
435,0.060,-0.020
436,0.040,-0.010
437,0.020,-0.025
438,0.010,-0.035
439,0.020,-0.030
440,0.010,-0.025
441,-0.030,-0.025
442,-0.075,-0.035
443,-0.130,-0.055
444,-0.155,-0.070
445,-0.150,-0.080
446,-0.145,-0.085
447,-0.145,-0.085
448,-0.155,-0.085
449,-0.170,-0.090
450,-0.165,-0.095
451,-0.150,-0.095
452,-0.140,-0.095
453,-0.130,-0.095
454,-0.125,-0.095
455,-0.130,-0.090
456,-0.120,-0.085
457,-0.100,-0.090
458,-0.250,-0.090
459,-0.415,-0.075
460,-0.550,-0.035
461,-0.665,0.010
462,-0.435,0.130
463,-0.130,0.250
464,0.780,0.385
465,1.645,0.505
466,2.310,0.520
467,2.880,0.465
468,3.065,0.120
469,2.990,-0.210
470,2.130,-0.490
471,1.325,-0.680
472,0.640,-0.650
473,0.115,-0.575
474,-0.095,-0.430
475,-0.235,-0.290
476,-0.265,-0.175
477,-0.285,-0.100
478,-0.275,-0.085
479,-0.265,-0.075
480,-0.280,-0.080
481,-0.285,-0.085
482,-0.285,-0.090
483,-0.285,-0.095
484,-0.290,-0.090
485,-0.290,-0.085
486,-0.275,-0.090
487,-0.270,-0.095
488,-0.280,-0.095
489,-0.285,-0.095
490,-0.285,-0.095
491,-0.285,-0.090
492,-0.290,-0.080
493,-0.290,-0.075
494,-0.280,-0.080
495,-0.275,-0.085
496,-0.275,-0.085
497,-0.270,-0.085
498,-0.260,-0.085
499,-0.255,-0.085
500,-0.255,-0.085
501,-0.260,-0.090
502,-0.255,-0.095
503,-0.255,-0.110
504,-0.255,-0.125
505,-0.245,-0.120
506,-0.235,-0.115
507,-0.235,-0.125
508,-0.235,-0.135
509,-0.240,-0.135
510,-0.245,-0.135
511,-0.220,-0.140
512,-0.205,-0.145
513,-0.195,-0.155
514,-0.185,-0.165
515,-0.190,-0.165
516,-0.195,-0.170
517,-0.190,-0.185
518,-0.175,-0.195
519,-0.145,-0.200
520,-0.125,-0.205
521,-0.125,-0.210
522,-0.120,-0.215
523,-0.105,-0.215
524,-0.085,-0.215
525,-0.065,-0.215
526,-0.045,-0.215
527,-0.025,-0.210
528,-0.005,-0.205
529,0.015,-0.205
530,0.035,-0.200
531,0.055,-0.190
532,0.075,-0.180
533,0.090,-0.170
534,0.095,-0.155
535,0.090,-0.140
536,0.095,-0.125
537,0.110,-0.110
538,0.120,-0.080
539,0.130,-0.050
540,0.125,-0.045
541,0.110,-0.040
542,0.085,-0.030
543,0.065,-0.025
544,0.070,-0.020
545,0.075,-0.015
546,0.070,0.000
547,0.065,0.015
548,0.050,0.010
549,0.035,0.005
550,0.035,-0.005
551,0.035,-0.015
552,0.045,-0.010
553,0.055,-0.005
554,0.065,-0.010
555,0.075,-0.015
556,0.075,-0.020
557,0.070,-0.025
558,0.055,-0.025
559,0.055,-0.025
560,0.080,-0.025
561,0.095,-0.025
562,0.090,-0.020
563,0.080,-0.015
564,0.070,-0.020
565,0.070,-0.025
566,0.085,-0.030
567,0.110,-0.030
568,0.135,-0.015
569,0.150,0.015
570,0.170,0.050
571,0.175,0.065
572,0.170,0.070
573,0.190,0.075
574,0.225,0.075
575,0.245,0.085
576,0.260,0.100
577,0.260,0.060
578,0.250,0.005
579,0.245,-0.030
580,0.240,-0.060
581,0.210,-0.055
582,0.180,-0.040
583,0.155,-0.035
584,0.125,-0.045
585,0.115,-0.035
586,0.105,-0.025
587,0.065,-0.040
588,0.025,-0.055
589,-0.005,-0.075
590,-0.035,-0.095
591,-0.035,-0.100
592,-0.035,-0.105
593,-0.015,-0.105
594,0.005,-0.105
595,0.000,-0.100
596,-0.005,-0.095
597,-0.015,-0.100
598,-0.015,-0.105
599,0.020,-0.105
600,0.045,-0.105
601,0.050,-0.095
602,-0.025,-0.085
603,-0.205,-0.075
604,-0.350,-0.055
605,-0.455,-0.020
606,-0.380,0.050
607,-0.145,0.155
608,0.385,0.270
609,1.130,0.390
610,1.870,0.440
611,2.600,0.450
612,3.035,0.250
613,3.320,-0.055
614,2.880,-0.335
615,2.150,-0.600
616,1.415,-0.650
617,0.675,-0.630
618,0.355,-0.515
619,0.130,-0.375
620,0.030,-0.250
621,-0.045,-0.130
622,-0.070,-0.100
623,-0.090,-0.080
624,-0.095,-0.075
625,-0.095,-0.075
626,-0.095,-0.095
627,-0.085,-0.105
628,-0.100,-0.110
629,-0.115,-0.115
630,-0.110,-0.115
631,-0.105,-0.115
632,-0.095,-0.110
633,-0.085,-0.105
634,-0.080,-0.095
635,-0.075,-0.085
636,-0.090,-0.095
637,-0.105,-0.105
638,-0.105,-0.100
639,-0.100,-0.095
640,-0.085,-0.090
641,-0.075,-0.085
642,-0.085,-0.095
643,-0.095,-0.105
644,-0.095,-0.110
645,-0.095,-0.115
646,-0.090,-0.110
647,-0.080,-0.105
648,-0.070,-0.100
649,-0.065,-0.100
650,-0.060,-0.110
651,-0.050,-0.115
652,-0.035,-0.120
653,-0.025,-0.125
654,-0.030,-0.125
655,-0.035,-0.125
656,-0.030,-0.120
657,-0.020,-0.125
658,-0.010,-0.140
659,-0.005,-0.145
660,0.000,-0.150
661,0.015,-0.155
662,0.030,-0.155
663,0.040,-0.160
664,0.050,-0.170
665,0.060,-0.180
666,0.070,-0.190
667,0.080,-0.195
668,0.085,-0.195
669,0.110,-0.200
670,0.135,-0.205
671,0.120,-0.200
672,0.110,-0.195
673,0.150,-0.190
674,0.185,-0.185
675,0.205,-0.180
676,0.225,-0.175
677,0.230,-0.170
678,0.240,-0.165
679,0.270,-0.155
680,0.295,-0.145
681,0.300,-0.125
682,0.305,-0.115
683,0.300,-0.105
684,0.295,-0.090
685,0.295,-0.075
686,0.290,-0.060
687,0.275,-0.040
688,0.265,-0.025
689,0.260,-0.020
690,0.250,-0.015
691,0.235,-0.010
692,0.220,-0.005
693,0.210,-0.005
694,0.200,-0.005
695,0.180,-0.010
696,0.175,-0.015
697,0.180,-0.015
698,0.185,-0.015
699,0.185,-0.020
700,0.190,-0.025
701,0.200,-0.020
702,0.205,-0.015
703,0.210,-0.015
704,0.210,-0.015
705,0.200,-0.020
706,0.195,-0.025
707,0.200,-0.030
708,0.205,-0.035
709,0.205,-0.035
710,0.190,-0.025
711,0.175,-0.015
712,0.180,-0.035
713,0.185,-0.055
714,0.195,-0.030
715,0.205,-0.005
716,0.215,-0.010
717,0.230,-0.010
718,0.260,0.015
719,0.280,0.035
720,0.260,0.045
721,0.245,0.060
722,0.255,0.080
723,0.275,0.095
724,0.320,0.100
725,0.345,0.105
726,0.355,0.100
727,0.360,0.065
728,0.340,-0.015
729,0.310,-0.055
730,0.275,-0.050
731,0.245,-0.055
732,0.220,-0.075
733,0.195,-0.080
734,0.175,-0.065
735,0.140,-0.055
736,0.100,-0.060
737,0.065,-0.080
738,0.030,-0.105
739,0.015,-0.115
740,0.010,-0.115
741,0.010,-0.110
742,0.020,-0.100
743,0.025,-0.100
744,0.020,-0.110
745,0.015,-0.115
746,0.015,-0.115
747,0.025,-0.110
748,0.040,-0.100
749,0.060,-0.095
750,0.045,-0.095
751,-0.010,-0.090
752,-0.110,-0.085
753,-0.310,-0.055
754,-0.490,-0.015
755,-0.410,0.095
756,-0.230,0.205
757,0.545,0.305
758,1.320,0.385
759,2.110,0.400
760,2.785,0.340
761,3.085,0.005
762,3.140,-0.305
763,2.545,-0.555
764,1.890,-0.725
765,1.115,-0.715
766,0.520,-0.645
767,0.225,-0.475
768,0.025,-0.330
769,-0.060,-0.215
770,-0.115,-0.140
771,-0.150,-0.105
772,-0.165,-0.090
773,-0.170,-0.100
774,-0.175,-0.105
775,-0.180,-0.110
776,-0.185,-0.115
777,-0.185,-0.120
778,-0.185,-0.125
779,-0.190,-0.120
780,-0.195,-0.115
781,-0.190,-0.115
782,-0.185,-0.115
783,-0.190,-0.110
784,-0.195,-0.110
785,-0.190,-0.120
786,-0.185,-0.120
787,-0.190,-0.110
788,-0.195,-0.105
789,-0.195,-0.105
790,-0.195,-0.105
791,-0.195,-0.110
792,-0.195,-0.120
793,-0.195,-0.125
794,-0.195,-0.120
795,-0.195,-0.115
796,-0.190,-0.115
797,-0.185,-0.115
798,-0.180,-0.125
799,-0.175,-0.135
800,-0.185,-0.135
801,-0.195,-0.135
802,-0.180,-0.140
803,-0.165,-0.145
804,-0.170,-0.140
805,-0.175,-0.135
806,-0.165,-0.155
807,-0.155,-0.170
808,-0.145,-0.185
809,-0.130,-0.195
810,-0.110,-0.190
811,-0.095,-0.185
812,-0.090,-0.185
813,-0.080,-0.190
814,-0.070,-0.200
815,-0.065,-0.205
816,-0.060,-0.210
817,-0.040,-0.215
818,-0.015,-0.210
819,0.000,-0.205
820,0.010,-0.200
821,0.025,-0.195
822,0.040,-0.195
823,0.055,-0.195
824,0.070,-0.190
825,0.090,-0.180
826,0.110,-0.170
827,0.125,-0.150
828,0.140,-0.130
829,0.140,-0.120
830,0.130,-0.110
831,0.125,-0.100
832,0.120,-0.090
833,0.100,-0.075
834,0.075,-0.055
835,0.070,-0.040
836,0.065,-0.025
837,0.050,-0.015
838,0.035,-0.005
839,0.015,-0.005
840,-0.005,-0.005
841,-0.015,-0.010
842,-0.025,-0.015
843,-0.015,-0.010
844,-0.005,-0.005
845,-0.020,-0.005
846,-0.035,-0.005
847,-0.030,-0.015
848,-0.025,-0.025
849,-0.025,-0.025
850,-0.025,-0.025
851,-0.030,-0.015
852,-0.035,-0.010
853,-0.030,-0.025
854,-0.025,-0.035
855,-0.025,-0.020
856,-0.025,-0.015
857,-0.025,-0.015
858,-0.025,-0.015
859,-0.030,-0.010
860,-0.035,-0.010
861,-0.035,-0.025
862,-0.035,-0.035
863,-0.035,-0.030
864,-0.035,-0.025
865,-0.035,-0.020
866,-0.020,-0.005
867,0.010,0.010
868,0.020,0.035
869,0.030,0.060
870,0.035,0.075
871,0.030,0.090
872,0.045,0.100
873,0.070,0.110
874,0.110,0.115
875,0.075,0.115
876,0.125,0.075
877,0.095,0.025
878,0.050,-0.015
879,0.005,-0.055
880,-0.005,-0.065
881,-0.015,-0.075
882,-0.035,-0.060
883,-0.055,-0.045
884,-0.070,-0.045
885,-0.095,-0.045
886,-0.140,-0.070
887,-0.180,-0.085
888,-0.200,-0.090
889,-0.215,-0.095
890,-0.205,-0.090
891,-0.195,-0.085
892,-0.200,-0.090
893,-0.205,-0.095
894,-0.195,-0.105
895,-0.185,-0.115
896,-0.185,-0.100
897,-0.185,-0.095
898,-0.180,-0.090
899,-0.180,-0.090
900,-0.190,-0.100
901,-0.310,-0.085
902,-0.505,-0.050
903,-0.630,0.010
904,-0.715,0.080
905,-0.490,0.180
906,-0.130,0.285
907,0.675,0.380
908,1.630,0.465
909,2.275,0.375
910,2.845,0.230
911,2.925,-0.100
912,2.910,-0.465
913,2.080,-0.615
914,1.155,-0.745
915,0.600,-0.660
916,0.065,-0.560
917,-0.125,-0.425
918,-0.305,-0.295
919,-0.325,-0.195
920,-0.345,-0.105
921,-0.350,-0.075
922,-0.355,-0.045
923,-0.365,-0.065
924,-0.375,-0.085
925,-0.375,-0.090
926,-0.375,-0.095
927,-0.385,-0.100
928,-0.395,-0.105
929,-0.390,-0.105
930,-0.385,-0.105
931,-0.390,-0.100
932,-0.395,-0.095
933,-0.390,-0.095
934,-0.385,-0.095
935,-0.380,-0.090
936,-0.375,-0.085
937,-0.370,-0.080
938,-0.370,-0.080
939,-0.385,-0.090
940,-0.395,-0.095
941,-0.400,-0.100
942,-0.405,-0.105
943,-0.400,-0.105
944,-0.390,-0.105
945,-0.380,-0.100
946,-0.375,-0.095
947,-0.375,-0.100
948,-0.375,-0.110
949,-0.380,-0.120
950,-0.385,-0.125
951,-0.385,-0.125
952,-0.385,-0.125
953,-0.380,-0.130
954,-0.370,-0.135
955,-0.360,-0.140
956,-0.355,-0.150
957,-0.350,-0.160
958,-0.345,-0.170
959,-0.345,-0.185
960,-0.320,-0.190
961,-0.295,-0.195
962,-0.285,-0.190
963,-0.275,-0.185
964,-0.270,-0.190
965,-0.265,-0.195
966,-0.255,-0.200
967,-0.245,-0.205
968,-0.230,-0.200
969,-0.210,-0.195
970,-0.190,-0.195
971,-0.170,-0.195
972,-0.150,-0.195
973,-0.130,-0.195
974,-0.115,-0.190
975,-0.100,-0.180
976,-0.080,-0.160
977,-0.065,-0.145
978,-0.065,-0.135
979,-0.065,-0.120
980,-0.070,-0.095
981,-0.075,-0.080
982,-0.080,-0.070
983,-0.095,-0.055
984,-0.115,-0.035
985,-0.130,-0.025
986,-0.145,-0.020
987,-0.160,-0.015
988,-0.170,-0.015
989,-0.180,-0.015
990,-0.190,-0.010
991,-0.195,-0.005
992,-0.200,0.000
993,-0.210,0.000
994,-0.220,-0.010
995,-0.220,-0.015
996,-0.210,-0.020
997,-0.205,-0.025
998,-0.205,-0.025
999,-0.205,-0.025
1000,-0.205,-0.025
1001,-0.195,-0.025
1002,-0.195,-0.035
1003,-0.200,-0.030
1004,-0.205,-0.025
1005,-0.205,-0.020
1006,-0.205,-0.015
1007,-0.200,-0.020
1008,-0.195,-0.025
1009,-0.200,-0.030
1010,-0.205,-0.035
1011,-0.215,-0.030
1012,-0.225,-0.025
1013,-0.230,-0.030
1014,-0.230,-0.035
1015,-0.215,-0.035
1016,-0.210,-0.035
1017,-0.230,-0.035
1018,-0.245,-0.035
1019,-0.240,-0.040
1020,-0.225,-0.040
1021,-0.200,-0.015
1022,-0.180,0.010
1023,-0.165,0.040
1024,-0.155,0.065
1025,-0.160,0.085
1026,-0.150,0.090
1027,-0.120,0.075
1028,-0.090,0.075
1029,-0.065,0.090
1030,-0.070,0.060
1031,-0.095,0.010
1032,-0.135,-0.035
1033,-0.185,-0.075
1034,-0.210,-0.085
1035,-0.230,-0.090
1036,-0.250,-0.095
1037,-0.270,-0.095
1038,-0.285,-0.085
1039,-0.300,-0.070
1040,-0.320,-0.080
1041,-0.340,-0.100
1042,-0.365,-0.110
1043,-0.385,-0.115
1044,-0.390,-0.125
1045,-0.395,-0.135
1046,-0.385,-0.130
1047,-0.375,-0.125
1048,-0.370,-0.125
1049,-0.365,-0.125
1050,-0.355,-0.120
1051,-0.340,-0.115
1052,-0.310,-0.110
1053,-0.330,-0.100
1054,-0.510,-0.075
1055,-0.680,-0.045
1056,-0.825,0.005
1057,-0.860,0.060
1058,-0.675,0.135
1059,-0.270,0.220
1060,0.455,0.305
1061,1.240,0.355
1062,2.095,0.360
1063,2.680,0.215
1064,3.000,-0.085
1065,2.770,-0.375
1066,2.085,-0.660
1067,1.310,-0.760
1068,0.475,-0.730
1069,0.005,-0.615
1070,-0.260,-0.450
1071,-0.395,-0.310
1072,-0.470,-0.180
1073,-0.495,-0.125
1074,-0.495,-0.095
1075,-0.495,-0.090
1076,-0.500,-0.100
1077,-0.505,-0.105
1078,-0.505,-0.110
1079,-0.510,-0.115
1080,-0.520,-0.115
1081,-0.525,-0.115
1082,-0.530,-0.115
1083,-0.535,-0.120
1084,-0.535,-0.135
1085,-0.525,-0.115
1086,-0.515,-0.095
1087,-0.515,-0.105
1088,-0.515,-0.115
1089,-0.515,-0.115
1090,-0.515,-0.115
1091,-0.515,-0.110
1092,-0.515,-0.105
1093,-0.495,-0.100
1094,-0.475,-0.095
1095,-0.480,-0.105
1096,-0.485,-0.115
1097,-0.480,-0.120
1098,-0.475,-0.125
1099,-0.480,-0.125
1100,-0.485,-0.125
1101,-0.485,-0.120
1102,-0.485,-0.115
1103,-0.480,-0.125
1104,-0.475,-0.135
1105,-0.470,-0.140
1106,-0.460,-0.150
1107,-0.450,-0.160
1108,-0.445,-0.160
1109,-0.445,-0.150
1110,-0.435,-0.150
1111,-0.415,-0.165
1112,-0.405,-0.175
1113,-0.400,-0.180
1114,-0.390,-0.185
1115,-0.380,-0.190
1116,-0.370,-0.195
1117,-0.360,-0.195
1118,-0.345,-0.195
1119,-0.330,-0.195
1120,-0.325,-0.205
1121,-0.320,-0.220
1122,-0.290,-0.225
1123,-0.260,-0.220
1124,-0.240,-0.205
1125,-0.255,-0.215
1126,-0.200,-0.180
1127,-0.185,-0.175
1128,-0.170,-0.175
1129,-0.155,-0.175
1130,-0.135,-0.155
1131,-0.115,-0.135
1132,-0.110,-0.120
1133,-0.105,-0.105
1134,-0.115,-0.095
1135,-0.125,-0.085
1136,-0.140,-0.070
1137,-0.160,-0.055
1138,-0.180,-0.050
1139,-0.195,-0.040
1140,-0.200,-0.025
1141,-0.210,-0.015
1142,-0.225,-0.020
1143,-0.235,-0.025
1144,-0.245,-0.025
1145,-0.255,-0.025
1146,-0.255,-0.020
1147,-0.255,-0.015
1148,-0.250,-0.015
1149,-0.245,-0.015
1150,-0.240,-0.020
1151,-0.235,-0.025
1152,-0.240,-0.030
1153,-0.245,-0.035
1154,-0.240,-0.030
1155,-0.235,-0.025
1156,-0.235,-0.020
1157,-0.235,-0.015
1158,-0.235,-0.020
1159,-0.235,-0.025
1160,-0.230,-0.030
1161,-0.225,-0.030
1162,-0.225,-0.020
1163,-0.225,-0.015
1164,-0.225,-0.015
1165,-0.225,-0.015
1166,-0.230,-0.020
1167,-0.240,-0.025
1168,-0.245,-0.025
1169,-0.245,-0.025
1170,-0.245,-0.025
1171,-0.250,-0.020
1172,-0.255,-0.015
1173,-0.260,-0.025
1174,-0.265,-0.035
1175,-0.245,-0.025
1176,-0.225,-0.010
1177,-0.210,0.020
1178,-0.195,0.050
1179,-0.185,0.070
1180,-0.175,0.085
1181,-0.165,0.095
1182,-0.145,0.105
1183,-0.110,0.100
1184,-0.085,0.090
1185,-0.085,0.075
1186,-0.100,0.040
1187,-0.140,-0.015
1188,-0.170,-0.055
1189,-0.185,-0.075
1190,-0.205,-0.085
1191,-0.225,-0.080
1192,-0.235,-0.070
1193,-0.240,-0.060
1194,-0.260,-0.060
1195,-0.285,-0.070
1196,-0.310,-0.085
1197,-0.335,-0.100
1198,-0.345,-0.110
1199,-0.340,-0.120
1200,-0.335,-0.125
1201,-0.330,-0.120
1202,-0.325,-0.115
1203,-0.320,-0.110
1204,-0.310,-0.105
1205,-0.300,-0.105
1206,-0.285,-0.105
1207,-0.270,-0.110
1208,-0.310,-0.110
1209,-0.365,-0.095
1210,-0.590,-0.035
1211,-0.805,0.025
1212,-0.785,0.100
1213,-0.720,0.170
1214,-0.275,0.255
1215,0.255,0.330
1216,1.220,0.370
1217,2.100,0.365
1218,2.635,0.160
1219,3.020,-0.080
1220,2.940,-0.430
1221,2.595,-0.705
1222,1.605,-0.810
1223,0.770,-0.840
1224,0.220,-0.710
1225,-0.175,-0.550
1226,-0.325,-0.355
1227,-0.415,-0.210
1228,-0.420,-0.120
1229,-0.425,-0.075
1230,-0.430,-0.070
1231,-0.435,-0.070
1232,-0.440,-0.085
1233,-0.440,-0.095
1234,-0.430,-0.090
1235,-0.430,-0.085
1236,-0.445,-0.090
1237,-0.455,-0.095
1238,-0.455,-0.095
1239,-0.455,-0.095
1240,-0.450,-0.095
1241,-0.445,-0.095
1242,-0.445,-0.100
1243,-0.440,-0.105
1244,-0.430,-0.100
1245,-0.425,-0.095
1246,-0.425,-0.095
1247,-0.425,-0.095
1248,-0.430,-0.095
1249,-0.435,-0.095
1250,-0.435,-0.095
1251,-0.425,-0.100
1252,-0.415,-0.105
1253,-0.430,-0.110
1254,-0.445,-0.115
1255,-0.435,-0.120
1256,-0.425,-0.125
1257,-0.420,-0.120
1258,-0.415,-0.115
1259,-0.410,-0.125
1260,-0.405,-0.135
1261,-0.410,-0.145
1262,-0.415,-0.155
1263,-0.410,-0.150
1264,-0.405,-0.145
1265,-0.395,-0.145
1266,-0.385,-0.145
1267,-0.380,-0.155
1268,-0.370,-0.170
1269,-0.355,-0.190
1270,-0.345,-0.205
1271,-0.340,-0.200
1272,-0.330,-0.195
1273,-0.315,-0.195
1274,-0.300,-0.195
1275,-0.290,-0.200
1276,-0.280,-0.205
1277,-0.270,-0.210
1278,-0.260,-0.215
1279,-0.250,-0.210
1280,-0.230,-0.200
1281,-0.205,-0.190
1282,-0.190,-0.185
1283,-0.180,-0.185
1284,-0.160,-0.185
1285,-0.140,-0.180
1286,-0.130,-0.165
1287,-0.120,-0.150
1288,-0.110,-0.125
1289,-0.100,-0.100
1290,-0.100,-0.090
1291,-0.110,-0.080
1292,-0.135,-0.065
1293,-0.155,-0.055
1294,-0.165,-0.055
1295,-0.175,-0.055
1296,-0.185,-0.035
1297,-0.195,-0.015
1298,-0.210,-0.020
1299,-0.225,-0.025
1300,-0.230,-0.025
1301,-0.235,-0.025
1302,-0.235,-0.030
1303,-0.235,-0.035
1304,-0.235,-0.030
1305,-0.235,-0.025
1306,-0.235,-0.025
1307,-0.235,-0.025
1308,-0.235,-0.030
1309,-0.235,-0.035
1310,-0.225,-0.035
1311,-0.215,-0.035
1312,-0.215,-0.030
1313,-0.215,-0.025
1314,-0.215,-0.025
1315,-0.215,-0.030
1316,-0.215,-0.040
1317,-0.215,-0.045
1318,-0.215,-0.045
1319,-0.215,-0.040
1320,-0.220,-0.030
1321,-0.225,-0.025
1322,-0.230,-0.030
1323,-0.235,-0.035
1324,-0.235,-0.040
1325,-0.235,-0.045
1326,-0.240,-0.040
1327,-0.245,-0.035
1328,-0.245,-0.035
1329,-0.245,-0.035
1330,-0.250,-0.040
1331,-0.265,-0.045
1332,-0.280,-0.050
1333,-0.275,-0.055
1334,-0.255,-0.045
1335,-0.225,-0.010
1336,-0.195,0.025
1337,-0.200,0.040
1338,-0.205,0.055
1339,-0.195,0.070
1340,-0.180,0.085
1341,-0.135,0.085
1342,-0.095,0.085
1343,-0.090,0.080
1344,-0.095,0.060
1345,-0.135,-0.005
1346,-0.170,-0.060
1347,-0.195,-0.080
1348,-0.215,-0.095
1349,-0.225,-0.090
1350,-0.240,-0.080
1351,-0.255,-0.065
1352,-0.275,-0.060
1353,-0.300,-0.075
1354,-0.325,-0.090
1355,-0.360,-0.105
1356,-0.375,-0.120
1357,-0.375,-0.130
1358,-0.370,-0.130
1359,-0.360,-0.120
1360,-0.350,-0.115
1361,-0.340,-0.120
1362,-0.335,-0.125
1363,-0.340,-0.125
1364,-0.335,-0.120
1365,-0.310,-0.110
1366,-0.340,-0.095
1367,-0.385,-0.080
1368,-0.580,-0.035
1369,-0.810,0.015
1370,-0.820,0.095
1371,-0.790,0.175
1372,-0.335,0.245
1373,0.170,0.320
1374,1.150,0.325
1375,0.195,0.325
1376,2.655,0.025
1377,3.125,-0.270
1378,2.835,-0.590
1379,2.485,-0.885
1380,1.520,-0.870
1381,0.625,-0.830
1382,0.180,-0.620
1383,-0.205,-0.415
1384,-0.335,-0.245
1385,-0.435,-0.110
1386,-0.460,-0.085
1387,-0.475,-0.065
1388,-0.475,-0.065
1389,-0.475,-0.065
1390,-0.470,-0.070
1391,-0.465,-0.075
1392,-0.470,-0.080
1393,-0.475,-0.085
1394,-0.480,-0.085
1395,-0.485,-0.085
1396,-0.485,-0.080
1397,-0.485,-0.075
1398,-0.480,-0.075
1399,-0.475,-0.075
1400,-0.475,-0.070
1401,-0.475,-0.065
1402,-0.480,-0.070
1403,-0.485,-0.075
1404,-0.485,-0.075
1405,-0.480,-0.075
1406,-0.470,-0.070
1407,-0.465,-0.065
1408,-0.460,-0.070
1409,-0.455,-0.075
1410,-0.455,-0.080
1411,-0.455,-0.085
1412,-0.455,-0.085
1413,-0.450,-0.080
1414,-0.440,-0.070
1415,-0.435,-0.075
1416,-0.435,-0.090
1417,-0.425,-0.100
1418,-0.415,-0.105
1419,-0.405,-0.110
1420,-0.395,-0.115
1421,-0.385,-0.120
1422,-0.375,-0.125
1423,-0.370,-0.130
1424,-0.365,-0.135
1425,-0.355,-0.140
1426,-0.345,-0.145
1427,-0.330,-0.150
1428,-0.315,-0.155
1429,-0.300,-0.155
1430,-0.285,-0.155
1431,-0.265,-0.165
1432,-0.250,-0.175
1433,-0.235,-0.175
1434,-0.220,-0.175
1435,-0.205,-0.170
1436,-0.195,-0.165
1437,-0.185,-0.155
1438,-0.165,-0.145
1439,-0.140,-0.145
1440,-0.120,-0.145
1441,-0.110,-0.140
1442,-0.100,-0.130
1443,-0.090,-0.115
1444,-0.085,-0.100
1445,-0.080,-0.080
1446,-0.075,-0.070
1447,-0.080,-0.060
1448,-0.095,-0.050
1449,-0.110,-0.040
1450,-0.125,-0.025
1451,-0.140,-0.010
1452,-0.155,-0.005
1453,-0.170,0.000
1454,-0.180,0.005
1455,-0.190,0.005
1456,-0.195,0.005
1457,-0.200,0.000
1458,-0.205,-0.005
1459,-0.215,-0.005
1460,-0.210,0.000
1461,-0.205,0.005
1462,-0.210,0.000
1463,-0.215,-0.005
1464,-0.210,-0.015
1465,-0.205,-0.025
1466,-0.205,-0.020
1467,-0.205,-0.015
1468,-0.200,-0.015
1469,-0.195,-0.015
1470,-0.195,-0.015
1471,-0.195,-0.015
1472,-0.190,-0.020
1473,-0.185,-0.025
1474,-0.190,-0.025
1475,-0.195,-0.025
1476,-0.195,-0.015
1477,-0.195,-0.005
1478,-0.200,-0.015
1479,-0.205,-0.025
1480,-0.205,-0.025
1481,-0.205,-0.025
1482,-0.205,-0.020
1483,-0.205,-0.015
1484,-0.210,-0.015
1485,-0.220,-0.015
1486,-0.230,-0.020
1487,-0.235,-0.025
1488,-0.240,-0.030
1489,-0.245,-0.035
1490,-0.245,-0.030
1491,-0.220,-0.020
1492,-0.185,-0.010
1493,-0.165,0.015
1494,-0.150,0.050
1495,-0.145,0.060
1496,-0.140,0.070
1497,-0.125,0.085
1498,-0.110,0.100
1499,-0.075,0.105
1500,-0.105,0.105
1501,-0.035,0.090
1502,-0.035,0.075
1503,-0.085,0.000
1504,-0.135,-0.065
1505,-0.150,-0.080
1506,-0.165,-0.095
1507,-0.180,-0.085
1508,-0.195,-0.075
1509,-0.210,-0.070
1510,-0.230,-0.065
1511,-0.260,-0.080
1512,-0.290,-0.095
1513,-0.310,-0.100
1514,-0.325,-0.105
1515,-0.325,-0.110
1516,-0.325,-0.115
1517,-0.320,-0.120
1518,-0.315,-0.125
1519,-0.310,-0.125
1520,-0.305,-0.125
1521,-0.300,-0.120
1522,-0.285,-0.110
1523,-0.265,-0.100
1524,-0.285,-0.095
1525,-0.340,-0.090
1526,-0.495,-0.065
1527,-0.715,-0.020
1528,-0.775,0.045
1529,-0.745,0.120
1530,-0.445,0.195
1531,-0.030,0.265
1532,0.760,0.315
1533,1.675,0.365
1534,2.320,0.220
1535,2.895,0.020
1536,2.910,-0.295
1537,2.820,-0.625
1538,1.935,-0.730
1539,0.960,-0.810
1540,0.420,-0.695
1541,-0.085,-0.560
1542,-0.245,-0.370
1543,-0.395,-0.185
1544,-0.410,-0.125
1545,-0.425,-0.065
1546,-0.425,-0.065
1547,-0.425,-0.065
1548,-0.430,-0.080
1549,-0.435,-0.095
1550,-0.440,-0.105
1551,-0.445,-0.115
1552,-0.445,-0.110
1553,-0.445,-0.105
1554,-0.440,-0.100
1555,-0.435,-0.095
1556,-0.435,-0.095
1557,-0.435,-0.095
1558,-0.440,-0.100
1559,-0.445,-0.105
1560,-0.445,-0.100
1561,-0.445,-0.095
1562,-0.440,-0.090
1563,-0.435,-0.085
1564,-0.435,-0.090
1565,-0.435,-0.095
1566,-0.430,-0.100
1567,-0.425,-0.105
1568,-0.425,-0.100
1569,-0.425,-0.095
1570,-0.420,-0.100
1571,-0.415,-0.105
1572,-0.420,-0.105
1573,-0.415,-0.105
1574,-0.400,-0.110
1575,-0.395,-0.115
1576,-0.390,-0.115
1577,-0.380,-0.115
1578,-0.370,-0.115
1579,-0.365,-0.120
1580,-0.365,-0.130
1581,-0.355,-0.135
1582,-0.340,-0.140
1583,-0.335,-0.145
1584,-0.335,-0.155
1585,-0.325,-0.160
1586,-0.315,-0.165
1587,-0.305,-0.175
1588,-0.295,-0.185
1589,-0.285,-0.190
1590,-0.275,-0.195
1591,-0.260,-0.200
1592,-0.245,-0.205
1593,-0.230,-0.195
1594,-0.210,-0.185
1595,-0.190,-0.180
1596,-0.175,-0.175
1597,-0.160,-0.180
1598,-0.140,-0.185
1599,-0.125,-0.180
1600,-0.110,-0.175
1601,-0.090,-0.165
1602,-0.075,-0.155
1603,-0.070,-0.155
1604,-0.065,-0.145
1605,-0.070,-0.120
1606,-0.075,-0.100
1607,-0.075,-0.090
1608,-0.080,-0.080
1609,-0.095,-0.065
1610,-0.110,-0.050
1611,-0.120,-0.040
1612,-0.140,-0.035
1613,-0.165,-0.035
1614,-0.175,-0.030
1615,-0.175,-0.020
1616,-0.175,-0.015
1617,-0.180,-0.020
1618,-0.185,-0.025
1619,-0.185,-0.030
1620,-0.185,-0.035
1621,-0.190,-0.040
1622,-0.195,-0.045
1623,-0.195,-0.045
1624,-0.190,-0.045
1625,-0.195,-0.045
1626,-0.175,-0.040
1627,-0.175,-0.045
1628,-0.185,-0.050
1629,-0.195,-0.055
1630,-0.190,-0.050
1631,-0.185,-0.045
1632,-0.185,-0.045
1633,-0.185,-0.045
1634,-0.185,-0.045
1635,-0.185,-0.045
1636,-0.190,-0.050
1637,-0.195,-0.055
1638,-0.195,-0.050
1639,-0.195,-0.045
1640,-0.190,-0.045
1641,-0.185,-0.045
1642,-0.190,-0.050
1643,-0.200,-0.055
1644,-0.215,-0.060
1645,-0.225,-0.065
1646,-0.220,-0.060
1647,-0.215,-0.055
1648,-0.210,-0.055
1649,-0.210,-0.055
1650,-0.225,-0.060
1651,-0.225,-0.065
1652,-0.205,-0.065
1653,-0.185,-0.045
1654,-0.165,-0.015
1655,-0.145,0.010
1656,-0.130,0.035
1657,-0.120,0.050
1658,-0.110,0.060
1659,-0.080,0.065
1660,-0.045,0.060
1661,-0.035,0.055
1662,-0.030,0.060
1663,-0.050,0.015
1664,-0.080,-0.040
1665,-0.105,-0.075
1666,-0.130,-0.110
1667,-0.155,-0.110
1668,-0.175,-0.105
1669,-0.190,-0.095
1670,-0.205,-0.085
1671,-0.230,-0.090
1672,-0.255,-0.095
1673,-0.275,-0.105
1674,-0.295,-0.115
1675,-0.305,-0.125
1676,-0.315,-0.135
1677,-0.300,-0.135
1678,-0.285,-0.135
1679,-0.280,-0.130
1680,-0.275,-0.125
1681,-0.270,-0.130
1682,-0.260,-0.135
1683,-0.245,-0.125
1684,-0.235,-0.115
1685,-0.235,-0.110
1686,-0.320,-0.095
1687,-0.510,-0.070
1688,-0.645,-0.025
1689,-0.735,0.040
1690,-0.565,0.130
1691,-0.175,0.240
1692,0.555,0.330
1693,1.525,0.415
1694,2.225,0.360
1695,2.770,0.230
1696,2.965,-0.045
1697,3.005,-0.385
1698,2.340,-0.595
1699,1.420,-0.765
1700,0.715,-0.745
1701,0.075,-0.670
1702,-0.165,-0.520
1703,-0.325,-0.350
1704,-0.355,-0.240
1705,-0.370,-0.135
1706,-0.380,-0.110
1707,-0.390,-0.090
1708,-0.395,-0.085
1709,-0.395,-0.095
1710,-0.395,-0.105
1711,-0.395,-0.115
1712,-0.400,-0.115
1713,-0.405,-0.115
1714,-0.400,-0.125
1715,-0.395,-0.135
1716,-0.395,-0.120
1717,-0.395,-0.105
1718,-0.390,-0.095
1719,-0.385,-0.085
1720,-0.390,-0.095
1721,-0.395,-0.105
1722,-0.395,-0.110
1723,-0.395,-0.115
1724,-0.395,-0.110
1725,-0.395,-0.105
1726,-0.390,-0.105
1727,-0.385,-0.105
1728,-0.380,-0.110
1729,-0.375,-0.115
1730,-0.380,-0.120
1731,-0.380,-0.125
1732,-0.370,-0.120
1733,-0.360,-0.115
1734,-0.350,-0.115
1735,-0.345,-0.120
1736,-0.340,-0.130
1737,-0.335,-0.135
1738,-0.330,-0.135
1739,-0.325,-0.135
1740,-0.320,-0.140
1741,-0.310,-0.145
1742,-0.300,-0.150
1743,-0.290,-0.155
1744,-0.280,-0.160
1745,-0.275,-0.170
1746,-0.275,-0.180
1747,-0.265,-0.195
1748,-0.250,-0.210
1749,-0.235,-0.215
1750,-0.245,-0.215
1751,-0.195,-0.205
1752,-0.175,-0.205
1753,-0.170,-0.210
1754,-0.165,-0.215
1755,-0.135,-0.210
1756,-0.105,-0.205
1757,-0.085,-0.205
1758,-0.065,-0.205
1759,-0.050,-0.200
1760,-0.035,-0.195
1761,-0.025,-0.190
1762,-0.015,-0.180
1763,-0.020,-0.160
1764,-0.020,-0.140
1765,0.005,-0.120
1766,0.025,-0.100
1767,0.015,-0.085
1768,0.000,-0.075
1769,-0.015,-0.065
1770,-0.030,-0.055
1771,-0.055,-0.040
1772,-0.070,-0.030
1773,-0.080,-0.015
1774,-0.095,-0.005
1775,-0.125,-0.005
1776,-0.135,-0.005
1777,-0.140,-0.005
1778,-0.145,-0.005
1779,-0.145,-0.005
1780,-0.145,-0.005
1781,-0.140,0.000
1782,-0.135,0.005
1783,-0.140,0.005
1784,-0.145,0.000
1785,-0.140,-0.010
1786,-0.135,-0.015
1787,-0.135,-0.015
1788,-0.135,-0.015
1789,-0.130,-0.010
1790,-0.125,-0.005
1791,-0.130,-0.010
1792,-0.135,-0.015
1793,-0.135,-0.015
1794,-0.135,-0.015
1795,-0.135,-0.015
1796,-0.135,-0.010
1797,-0.135,-0.005
1798,-0.140,-0.015
1799,-0.145,-0.025
1800,-0.145,-0.025
1801,-0.145,-0.025
1802,-0.150,-0.025
1803,-0.155,-0.025
1804,-0.150,-0.020
1805,-0.145,-0.015
1806,-0.145,-0.020
1807,-0.145,-0.025
1808,-0.150,-0.025
1809,-0.155,-0.025
1810,-0.145,-0.020
1811,-0.135,-0.015
1812,-0.145,-0.015
1813,-0.145,-0.015
1814,-0.125,-0.015
1815,-0.105,-0.005
1816,-0.085,0.015
1817,-0.075,0.040
1818,-0.070,0.065
1819,-0.060,0.085
1820,-0.050,0.105
1821,-0.015,0.115
1822,0.030,0.110
1823,0.045,0.100
1824,0.050,0.090
1825,0.035,0.045
1826,0.005,-0.005
1827,-0.030,-0.035
1828,-0.060,-0.060
1829,-0.070,-0.065
1830,-0.080,-0.065
1831,-0.095,-0.060
1832,-0.110,-0.050
1833,-0.140,-0.055
1834,-0.175,-0.075
1835,-0.190,-0.085
1836,-0.205,-0.095
1837,-0.215,-0.095
1838,-0.225,-0.095
1839,-0.210,-0.100
1840,-0.195,-0.105
1841,-0.190,-0.095
1842,-0.185,-0.085
1843,-0.170,-0.080
1844,-0.150,-0.075
1845,-0.130,-0.080
1846,-0.160,-0.080
1847,-0.310,-0.060
1848,-0.470,-0.025
1849,-0.645,0.040
1850,-0.685,0.120
1851,-0.495,0.220
1852,-0.075,0.305
1853,0.645,0.375
1854,1.420,0.390
1855,2.260,0.335
1856,2.830,0.135
1857,3.160,-0.185
1858,2.975,-0.495
1859,2.405,-0.790
1860,1.640,-0.880
1861,0.765,-0.835
1862,0.270,-0.685
1863,-0.035,-0.485
1864,-0.185,-0.310
1865,-0.270,-0.145
1866,-0.300,-0.075
1867,-0.310,-0.035
1868,-0.315,-0.035
1869,-0.320,-0.050
1870,-0.325,-0.060
1871,-0.325,-0.070
1872,-0.325,-0.075
1873,-0.325,-0.075
1874,-0.325,-0.075
1875,-0.325,-0.075
1876,-0.310,-0.065
1877,-0.305,-0.065
1878,-0.315,-0.065
1879,-0.325,-0.065
1880,-0.315,-0.065
1881,-0.305,-0.065
1882,-0.300,-0.055
1883,-0.295,-0.045
1884,-0.295,-0.050
1885,-0.295,-0.055
1886,-0.295,-0.065
1887,-0.295,-0.075
1888,-0.290,-0.075
1889,-0.285,-0.075
1890,-0.285,-0.065
1891,-0.285,-0.055
1892,-0.275,-0.065
1893,-0.265,-0.075
1894,-0.270,-0.085
1895,-0.275,-0.095
1896,-0.270,-0.090
1897,-0.265,-0.085
1898,-0.265,-0.090
1899,-0.265,-0.100
1900,-0.260,-0.110
1901,-0.250,-0.115
1902,-0.240,-0.115
1903,-0.235,-0.115
1904,-0.235,-0.120
1905,-0.225,-0.125
1906,-0.210,-0.130
1907,-0.200,-0.135
1908,-0.190,-0.140
1909,-0.180,-0.145
1910,-0.170,-0.150
1911,-0.155,-0.155
1912,-0.140,-0.160
1913,-0.120,-0.165
1914,-0.100,-0.160
1915,-0.095,-0.155
1916,-0.090,-0.160
1917,-0.060,-0.165
1918,-0.035,-0.165
1919,-0.025,-0.160
1920,-0.015,-0.155
1921,0.010,-0.145
1922,0.035,-0.135
1923,0.040,-0.125
1924,0.045,-0.115
1925,0.045,-0.100
1926,0.045,-0.085
1927,0.050,-0.075
1928,0.055,-0.060
1929,0.045,-0.040
1930,0.035,-0.025
1931,0.025,-0.015
1932,0.010,-0.005
1933,-0.015,0.000
1934,-0.035,0.005
1935,-0.040,0.015
1936,-0.045,0.025
1937,-0.050,0.025
1938,-0.060,0.025
1939,-0.070,0.025
1940,-0.075,0.020
1941,-0.080,0.010
1942,-0.085,0.005
1943,-0.080,0.010
1944,-0.075,0.015
1945,-0.070,0.020
1946,-0.065,0.015
1947,-0.065,0.000
1948,-0.065,-0.005
1949,-0.065,0.000
1950,-0.065,0.005
1951,-0.060,0.005
1952,-0.055,0.005
1953,-0.050,0.005
1954,-0.045,0.005
1955,-0.050,0.005
1956,-0.055,0.005
1957,-0.055,0.000
1958,-0.055,-0.005
1959,-0.055,-0.005
1960,-0.055,0.005
1961,-0.055,0.015
1962,-0.060,0.005
1963,-0.065,-0.005
1964,-0.065,-0.010
1965,-0.065,-0.015
1966,-0.070,-0.015
1967,-0.075,-0.015
1968,-0.075,-0.010
1969,-0.075,-0.005
1970,-0.085,-0.010
1971,-0.095,-0.015
1972,-0.090,-0.015
1973,-0.085,-0.015
1974,-0.095,-0.015
1975,-0.105,-0.015
1976,-0.095,-0.010
1977,-0.075,0.000
1978,-0.050,0.015
1979,-0.035,0.035
1980,-0.030,0.060
1981,-0.015,0.080
1982,0.005,0.095
1983,0.020,0.110
1984,0.035,0.120
1985,0.060,0.125
1986,0.090,0.120
1987,0.095,0.095
1988,0.075,0.065
1989,0.035,0.020
1990,-0.010,-0.030
1991,-0.035,-0.045
1992,-0.050,-0.050
1993,-0.060,-0.055
1994,-0.070,-0.055
1995,-0.095,-0.055
1996,-0.120,-0.050
1997,-0.150,-0.055
1998,-0.180,-0.070
1999,-0.185,-0.075
2000,-0.185,-0.075
2001,-0.185,-0.080
2002,-0.175,-0.085
2003,-0.180,-0.090
2004,-0.185,-0.095
2005,-0.175,-0.090
2006,-0.165,-0.085
2007,-0.150,-0.080
2008,-0.135,-0.075
2009,-0.130,-0.070
2010,-0.175,-0.060
2011,-0.390,-0.030
2012,-0.560,0.015
2013,-0.630,0.085
2014,-0.575,0.165
2015,-0.265,0.255
2016,0.265,0.320
2017,1.145,0.350
2018,1.925,0.295
2019,2.565,0.120
2020,2.970,-0.120
2021,3.120,-0.440
2022,2.715,-0.655
2023,1.785,-0.780
2024,1.015,-0.770
2025,0.375,-0.645
2026,0.020,-0.475
2027,-0.160,-0.275
2028,-0.245,-0.155
2029,-0.280,-0.070
2030,-0.295,-0.045
2031,-0.295,-0.040
2032,-0.295,-0.040
2033,-0.295,-0.050
2034,-0.295,-0.055
2035,-0.300,-0.060
2036,-0.305,-0.065
2037,-0.300,-0.060
2038,-0.295,-0.055
2039,-0.290,-0.055
2040,-0.285,-0.055
2041,-0.290,-0.055
2042,-0.290,-0.060
2043,-0.285,-0.065
2044,-0.285,-0.060
2045,-0.285,-0.055
2046,-0.280,-0.045
2047,-0.275,-0.035
2048,-0.275,-0.045
2049,-0.275,-0.055
2050,-0.275,-0.055
2051,-0.275,-0.055
2052,-0.270,-0.055
2053,-0.265,-0.055
2054,-0.255,-0.055
2055,-0.245,-0.055
2056,-0.245,-0.065
2057,-0.245,-0.075
2058,-0.245,-0.080
2059,-0.245,-0.085
2060,-0.240,-0.080
2061,-0.235,-0.075
2062,-0.225,-0.075
2063,-0.215,-0.080
2064,-0.215,-0.095
2065,-0.215,-0.105
2066,-0.210,-0.105
2067,-0.195,-0.105
2068,-0.175,-0.110
2069,-0.160,-0.115
2070,-0.150,-0.120
2071,-0.140,-0.125
2072,-0.130,-0.130
2073,-0.115,-0.140
2074,-0.100,-0.150
2075,-0.080,-0.155
2076,-0.060,-0.155
2077,-0.050,-0.155
2078,-0.040,-0.150
2079,-0.020,-0.145
2080,0.000,-0.145
2081,0.020,-0.145
2082,0.040,-0.150
2083,0.055,-0.150
2084,0.075,-0.135
2085,0.080,-0.125
2086,0.085,-0.115
2087,0.090,-0.100
2088,0.095,-0.085
2089,0.090,-0.075
2090,0.085,-0.065
2091,0.070,-0.050
2092,0.055,-0.035
2093,0.040,-0.025
2094,0.020,-0.015
2095,0.000,-0.010
2096,-0.015,-0.005
2097,-0.030,0.000
2098,-0.045,0.005
2099,-0.055,0.000
2100,-0.065,-0.005
2101,-0.060,0.000
2102,-0.055,0.005
2103,-0.060,0.000
2104,-0.065,-0.005
2105,-0.060,-0.005
2106,-0.055,-0.005
2107,-0.055,-0.010
2108,-0.055,-0.015
2109,-0.050,-0.010
2110,-0.045,-0.005
2111,-0.040,-0.010
2112,-0.035,-0.015
2113,-0.035,-0.020
2114,-0.035,-0.025
2115,-0.030,-0.020
2116,-0.025,-0.015
2117,-0.025,-0.015
2118,-0.025,-0.015
2119,-0.025,-0.020
2120,-0.030,-0.025
2121,-0.040,-0.025
2122,-0.045,-0.025
2123,-0.040,-0.025
2124,-0.035,-0.025
2125,-0.035,-0.025
2126,-0.040,-0.015
2127,-0.045,-0.015
2128,-0.050,-0.020
2129,-0.055,-0.025
2130,-0.060,-0.025
2131,-0.065,-0.025
2132,-0.065,-0.025
2133,-0.065,-0.025
2134,-0.070,-0.030
2135,-0.075,-0.035
2136,-0.085,-0.040
2137,-0.095,-0.045
2138,-0.095,-0.045
2139,-0.095,-0.045
2140,-0.100,-0.040
2141,-0.100,-0.035
2142,-0.070,-0.030
2143,-0.045,-0.015
2144,-0.020,0.010
2145,-0.005,0.030
2146,0.000,0.055
2147,0.010,0.075
2148,0.025,0.095
2149,0.055,0.105
2150,0.090,0.100
2151,0.105,0.090
2152,0.100,0.075
2153,0.060,0.025
2154,0.005,-0.035
2155,-0.025,-0.065
2156,-0.040,-0.080
2157,-0.060,-0.085
2158,-0.080,-0.080
2159,-0.095,-0.075
2160,-0.110,-0.080
2161,-0.140,-0.085
2162,-0.170,-0.090
2163,-0.185,-0.095
2164,-0.200,-0.100
2165,-0.205,-0.105
2166,-0.200,-0.110
2167,-0.185,-0.120
2168,-0.175,-0.125
2169,-0.170,-0.125
2170,-0.165,-0.125
2171,-0.160,-0.115
2172,-0.155,-0.105
2173,-0.135,-0.110
2174,-0.125,-0.115
2175,-0.190,-0.105
2176,-0.285,-0.090
2177,-0.465,-0.055
2178,-0.600,0.000
2179,-0.580,0.095
2180,-0.400,0.190
2181,0.145,0.270
2182,0.815,0.335
2183,1.705,0.365
2184,2.420,0.290
2185,2.875,0.050
2186,3.045,-0.220
2187,2.860,-0.530
2188,2.305,-0.710
2189,1.375,-0.765
2190,0.695,-0.725
2191,0.220,-0.600
2192,-0.050,-0.460
2193,-0.185,-0.320
2194,-0.245,-0.205
2195,-0.265,-0.110
2196,-0.275,-0.075
2197,-0.280,-0.075
2198,-0.290,-0.090
2199,-0.300,-0.110
2200,-0.310,-0.115
2201,-0.320,-0.110
2202,-0.320,-0.105
2203,-0.310,-0.105
2204,-0.305,-0.105
2205,-0.300,-0.105
2206,-0.295,-0.105
2207,-0.295,-0.100
2208,-0.300,-0.095
2209,-0.315,-0.095
2210,-0.310,-0.090
2211,-0.305,-0.085
2212,-0.305,-0.090
2213,-0.305,-0.095
2214,-0.305,-0.095
2215,-0.305,-0.095
2216,-0.305,-0.095
2217,-0.305,-0.095
2218,-0.295,-0.100
2219,-0.285,-0.105
2220,-0.290,-0.105
2221,-0.295,-0.105
2222,-0.295,-0.110
2223,-0.295,-0.115
2224,-0.295,-0.120
2225,-0.295,-0.125
2226,-0.285,-0.125
2227,-0.275,-0.125
2228,-0.270,-0.135
2229,-0.265,-0.145
2230,-0.260,-0.150
2231,-0.250,-0.155
2232,-0.240,-0.160
2233,-0.230,-0.165
2234,-0.220,-0.170
2235,-0.210,-0.180
2236,-0.195,-0.190
2237,-0.175,-0.200
2238,-0.160,-0.210
2239,-0.150,-0.215
2240,-0.140,-0.210
2241,-0.120,-0.205
2242,-0.100,-0.200
2243,-0.085,-0.200
2244,-0.070,-0.210
2245,-0.055,-0.215
2246,-0.040,-0.215
2247,-0.025,-0.210
2248,-0.010,-0.200
2249,0.005,-0.195
2250,-0.005,-0.195
2251,0.040,-0.180
2252,0.055,-0.175
2253,0.055,-0.155
2254,0.055,-0.135
2255,0.055,-0.120
2256,0.055,-0.105
2257,0.035,-0.090
2258,0.015,-0.075
2259,0.000,-0.070
2260,-0.015,-0.065
2261,-0.040,-0.060
2262,-0.055,-0.055
2263,-0.065,-0.045
2264,-0.075,-0.035
2265,-0.085,-0.035
2266,-0.095,-0.035
2267,-0.095,-0.035
2268,-0.095,-0.035
2269,-0.100,-0.040
2270,-0.105,-0.045
2271,-0.105,-0.045
2272,-0.105,-0.045
2273,-0.100,-0.050
2274,-0.095,-0.055
2275,-0.095,-0.050
2276,-0.095,-0.045
2277,-0.090,-0.045
2278,-0.085,-0.045
2279,-0.080,-0.045
2280,-0.075,-0.045
2281,-0.075,-0.045
2282,-0.075,-0.045
2283,-0.075,-0.050
2284,-0.080,-0.055
2285,-0.090,-0.055
2286,-0.095,-0.055
2287,-0.095,-0.055
2288,-0.100,-0.055
2289,-0.110,-0.055
2290,-0.120,-0.055
2291,-0.130,-0.055
2292,-0.130,-0.060
2293,-0.125,-0.065
2294,-0.125,-0.065
2295,-0.125,-0.065
2296,-0.120,-0.060
2297,-0.115,-0.055
2298,-0.125,-0.060
2299,-0.135,-0.065
2300,-0.135,-0.070
2301,-0.135,-0.075
2302,-0.130,-0.070
2303,-0.125,-0.065
2304,-0.135,-0.065
2305,-0.145,-0.065
2306,-0.145,-0.065
2307,-0.140,-0.065
2308,-0.120,-0.065
2309,-0.100,-0.055
2310,-0.080,-0.030
2311,-0.065,-0.005
2312,-0.060,0.020
2313,-0.050,0.040
2314,-0.040,0.050
2315,-0.015,0.055
2316,0.025,0.050
2317,0.050,0.045
2318,0.060,0.045
2319,0.040,0.020
2320,0.000,-0.030
2321,-0.030,-0.065
2322,-0.055,-0.095
2323,-0.070,-0.105
2324,-0.080,-0.105
2325,-0.100,-0.100
2326,-0.120,-0.090
2327,-0.145,-0.090
2328,-0.170,-0.100
2329,-0.185,-0.110
2330,-0.200,-0.120
2331,-0.205,-0.125
2332,-0.210,-0.130
2333,-0.210,-0.135
2334,-0.195,-0.135
2335,-0.185,-0.130
2336,-0.175,-0.125
2337,-0.175,-0.125
2338,-0.175,-0.125
2339,-0.165,-0.125
2340,-0.155,-0.125
2341,-0.160,-0.120
2342,-0.200,-0.110
2343,-0.395,-0.080
2344,-0.555,-0.040
2345,-0.600,0.040
2346,-0.520,0.125
2347,-0.120,0.225
2348,0.465,0.320
2349,1.395,0.410
2350,2.175,0.405
2351,2.710,0.255
2352,2.985,0.015
2353,2.915,-0.335
2354,2.435,-0.590
2355,1.525,-0.755
2356,0.800,-0.785
2357,0.235,-0.690
2358,-0.075,-0.555
2359,-0.205,-0.390
2360,-0.260,-0.265
2361,-0.275,-0.160
2362,-0.290,-0.110
2363,-0.300,-0.085
2364,-0.305,-0.080
2365,-0.300,-0.090
2366,-0.295,-0.095
2367,-0.295,-0.095
2368,-0.295,-0.095
2369,-0.295,-0.100
2370,-0.295,-0.105
2371,-0.295,-0.105
2372,-0.295,-0.105
2373,-0.290,-0.105
2374,-0.285,-0.105
2375,-0.285,-0.105
2376,-0.280,-0.095
2377,-0.275,-0.095
2378,-0.280,-0.100
2379,-0.285,-0.105
2380,-0.275,-0.100
2381,-0.265,-0.095
2382,-0.265,-0.095
2383,-0.265,-0.095
2384,-0.260,-0.095
2385,-0.255,-0.095
2386,-0.260,-0.105
2387,-0.265,-0.115
2388,-0.260,-0.115
2389,-0.255,-0.115
2390,-0.250,-0.110
2391,-0.245,-0.105
2392,-0.235,-0.115
2393,-0.225,-0.125
2394,-0.230,-0.135
2395,-0.235,-0.145
2396,-0.235,-0.145
2397,-0.225,-0.145
2398,-0.205,-0.150
2399,-0.195,-0.155
2400,-0.195,-0.160
2401,-0.190,-0.170
2402,-0.180,-0.180
2403,-0.165,-0.185
2404,-0.150,-0.185
2405,-0.135,-0.185
2406,-0.115,-0.185
2407,-0.105,-0.190
2408,-0.100,-0.200
2409,-0.080,-0.205
2410,-0.060,-0.210
2411,-0.050,-0.215
2412,-0.040,-0.210
2413,-0.010,-0.200
2414,0.020,-0.190
2415,0.030,-0.185
2416,0.040,-0.190
2417,0.060,-0.190
2418,0.075,-0.185
2419,0.080,-0.170
2420,0.085,-0.155
2421,0.095,-0.135
2422,0.105,-0.115
2423,0.090,-0.105
2424,0.075,-0.095
2425,0.065,-0.080
2426,0.055,-0.065
2427,0.040,-0.050
2428,0.025,-0.035
2429,0.010,-0.025
2430,-0.005,-0.015
2431,-0.010,-0.010
2432,-0.015,-0.005
2433,-0.025,-0.005
2434,-0.035,-0.005
2435,-0.035,-0.005
2436,-0.035,-0.005
2437,-0.035,-0.005
2438,-0.035,-0.005
2439,-0.035,-0.010
2440,-0.035,-0.015
2441,-0.035,-0.020
2442,-0.030,-0.025
2443,-0.015,-0.025
2444,-0.005,-0.025
2445,-0.010,-0.020
2446,-0.015,-0.015
2447,-0.015,-0.020
2448,-0.015,-0.025
2449,-0.020,-0.025
2450,-0.025,-0.025
2451,-0.020,-0.025
2452,-0.015,-0.025
2453,-0.015,-0.025
2454,-0.015,-0.025
2455,-0.015,-0.025
2456,-0.020,-0.030
2457,-0.030,-0.040
2458,-0.035,-0.040
2459,-0.035,-0.025
2460,-0.035,-0.030
2461,-0.035,-0.035
2462,-0.045,-0.035
2463,-0.055,-0.035
2464,-0.055,-0.040
2465,-0.055,-0.045
2466,-0.060,-0.040
2467,-0.065,-0.035
2468,-0.070,-0.030
2469,-0.075,-0.025
2470,-0.080,-0.025
2471,-0.085,-0.025
2472,-0.090,-0.035
2473,-0.095,-0.045
2474,-0.100,-0.040
2475,-0.095,-0.035
2476,-0.060,-0.025
2477,-0.035,-0.005
2478,-0.025,0.020
2479,-0.015,0.035
2480,0.000,0.050
2481,0.010,0.065
2482,0.020,0.090
2483,0.045,0.105
2484,0.085,0.110
2485,0.105,0.105
2486,0.100,0.085
2487,0.060,0.035
2488,0.005,-0.025
2489,-0.025,-0.055
2490,-0.040,-0.070
2491,-0.050,-0.075
2492,-0.060,-0.070
2493,-0.075,-0.065
2494,-0.090,-0.065
2495,-0.110,-0.070
2496,-0.130,-0.080
2497,-0.150,-0.085
2498,-0.170,-0.090
2499,-0.175,-0.095
2500,-0.175,-0.095
2501,-0.175,-0.100
2502,-0.165,-0.105
2503,-0.165,-0.110
2504,-0.165,-0.115
2505,-0.150,-0.105
2506,-0.135,-0.095
2507,-0.110,-0.085
2508,-0.100,-0.075
2509,-0.185,-0.070
2510,-0.295,-0.055
2511,-0.485,-0.010
2512,-0.610,0.055
2513,-0.540,0.165
2514,-0.280,0.270
2515,0.380,0.350
2516,1.125,0.390
2517,2.005,0.350
2518,2.670,0.185
2519,3.035,-0.155
2520,3.035,-0.460
2521,2.600,-0.740
2522,1.945,-0.860
2523,1.085,-0.830
2524,0.490,-0.705
2525,0.105,-0.505
2526,-0.110,-0.345
2527,-0.225,-0.215
2528,-0.275,-0.120
2529,-0.290,-0.050
2530,-0.295,-0.025
2531,-0.295,-0.030
2532,-0.295,-0.040
2533,-0.300,-0.050
2534,-0.305,-0.055
2535,-0.305,-0.060
2536,-0.305,-0.065
2537,-0.310,-0.065
2538,-0.310,-0.065
2539,-0.300,-0.060
2540,-0.295,-0.055
2541,-0.295,-0.055
2542,-0.295,-0.055
2543,-0.295,-0.055
2544,-0.295,-0.055
2545,-0.295,-0.055
2546,-0.290,-0.045
2547,-0.285,-0.035
2548,-0.290,-0.040
2549,-0.295,-0.045
2550,-0.295,-0.050
2551,-0.295,-0.055
2552,-0.290,-0.055
2553,-0.285,-0.055
2554,-0.280,-0.050
2555,-0.275,-0.045
2556,-0.270,-0.050
2557,-0.265,-0.055
2558,-0.260,-0.060
2559,-0.255,-0.065
2560,-0.245,-0.070
2561,-0.235,-0.075
2562,-0.235,-0.070
2563,-0.235,-0.070
2564,-0.230,-0.080
2565,-0.225,-0.090
2566,-0.220,-0.100
2567,-0.210,-0.105
2568,-0.195,-0.110
2569,-0.180,-0.115
2570,-0.170,-0.115
2571,-0.155,-0.120
2572,-0.140,-0.130
2573,-0.130,-0.135
2574,-0.120,-0.140
2575,-0.100,-0.145
2576,-0.080,-0.145
2577,-0.060,-0.145
2578,-0.040,-0.140
2579,-0.025,-0.135
2580,-0.010,-0.135
2581,-0.005,-0.135
2582,0.000,-0.135
2583,0.025,-0.130
2584,0.055,-0.115
2585,0.065,-0.100
2586,0.075,-0.085
2587,0.075,-0.080
2588,0.075,-0.075
2589,0.065,-0.060
2590,0.055,-0.045
2591,0.050,-0.035
2592,0.045,-0.025
2593,0.035,-0.010
2594,0.020,0.005
2595,-0.005,0.015
2596,-0.025,0.025
2597,-0.035,0.025
2598,-0.045,0.025
2599,-0.055,0.025
2600,-0.065,0.025
2601,-0.065,0.030
2602,-0.065,0.035
2603,-0.070,0.030
2604,-0.075,0.025
2605,-0.080,0.020
2606,-0.085,0.015
2607,-0.080,0.020
2608,-0.075,0.025
2609,-0.070,0.025
2610,-0.065,0.025
2611,-0.065,0.020
2612,-0.070,0.015
2613,-0.080,0.015
2614,-0.075,0.015
2615,-0.060,0.010
2616,-0.055,0.005
2617,-0.055,0.010
2618,-0.055,0.015
2619,-0.055,0.015
2620,-0.055,0.015
2621,-0.060,0.010
2622,-0.065,0.005
2623,-0.060,0.005
2624,-0.055,0.005
2625,-0.055,0.005
2626,-0.055,0.010
2627,-0.055,0.015
2628,-0.060,0.010
2629,-0.065,0.005
2630,-0.070,0.005
2631,-0.075,0.005
2632,-0.075,0.010
2633,-0.075,0.015
2634,-0.085,0.010
2635,-0.095,0.005
2636,-0.095,0.000
2637,-0.095,-0.005
2638,-0.100,-0.005
2639,-0.105,-0.005
2640,-0.100,-0.005
2641,-0.095,-0.005
2642,-0.105,-0.005
2643,-0.115,-0.005
2644,-0.120,-0.010
2645,-0.125,-0.015
2646,-0.125,-0.015
2647,-0.110,-0.005
2648,-0.080,0.015
2649,-0.060,0.035
2650,-0.050,0.065
2651,-0.045,0.085
2652,-0.040,0.105
2653,-0.015,0.115
2654,0.020,0.120
2655,0.060,0.125
2656,0.095,0.125
2657,0.075,0.090
2658,0.025,0.040
2659,-0.015,-0.010
2660,-0.055,-0.055
2661,-0.075,-0.065
2662,-0.090,-0.060
2663,-0.095,-0.050
2664,-0.100,-0.040
2665,-0.120,-0.035
2666,-0.140,-0.035
2667,-0.170,-0.050
2668,-0.195,-0.065
2669,-0.200,-0.075
2670,-0.205,-0.085
2671,-0.195,-0.080
2672,-0.185,-0.075
2673,-0.185,-0.080
2674,-0.185,-0.085
2675,-0.180,-0.085
2676,-0.175,-0.085
2677,-0.165,-0.075
2678,-0.155,-0.065
2679,-0.165,-0.055
2680,-0.230,-0.040
2681,-0.420,-0.015
2682,-0.560,0.030
2683,-0.610,0.105
2684,-0.465,0.190
2685,-0.015,0.290
2686,0.670,0.355
2687,1.630,0.385
2688,2.360,0.285
2689,2.850,0.045
2690,2.995,-0.240
2691,2.850,-0.560
2692,2.235,-0.720
2693,1.310,-0.765
2694,0.655,-0.680
2695,0.155,-0.510
2696,-0.100,-0.355
2697,-0.235,-0.205
2698,-0.285,-0.110
2699,-0.300,-0.035
2700,-0.305,-0.015
2701,-0.305,-0.020
2702,-0.305,-0.025
2703,-0.310,-0.025
2704,-0.315,-0.030
2705,-0.310,-0.040
2706,-0.305,-0.045
2707,-0.310,-0.045
2708,-0.315,-0.045
2709,-0.305,-0.035
2710,-0.305,-0.035
2711,-0.305,-0.035
2712,-0.300,-0.035
2713,-0.295,-0.035
2714,-0.295,-0.040
2715,-0.295,-0.045
2716,-0.290,-0.040
2717,-0.285,-0.035
2718,-0.290,-0.030
2719,-0.295,-0.025
2720,-0.285,-0.030
2721,-0.275,-0.035
2722,-0.275,-0.040
2723,-0.275,-0.045
2724,-0.275,-0.045
2725,-0.275,-0.045
2726,-0.270,-0.045
2727,-0.265,-0.045
2728,-0.265,-0.050
2729,-0.265,-0.055
2730,-0.260,-0.060
2731,-0.255,-0.065
2732,-0.255,-0.065
2733,-0.250,-0.070
2734,-0.240,-0.080
2735,-0.235,-0.090
2736,-0.230,-0.100
2737,-0.220,-0.105
2738,-0.210,-0.110
2739,-0.195,-0.115
2740,-0.180,-0.115
2741,-0.165,-0.115
2742,-0.150,-0.115
2743,-0.135,-0.120
2744,-0.120,-0.130
2745,-0.100,-0.140
2746,-0.080,-0.150
2747,-0.060,-0.155
2748,-0.040,-0.150
2749,-0.025,-0.140
2750,-0.035,-0.145
2751,0.005,-0.125
2752,0.015,-0.125
2753,0.030,-0.120
2754,0.045,-0.115
2755,0.060,-0.105
2756,0.075,-0.095
2757,0.075,-0.080
2758,0.075,-0.065
2759,0.065,-0.055
2760,0.055,-0.045
2761,0.040,-0.030
2762,0.020,-0.015
2763,0.000,-0.005
2764,-0.015,0.010
2765,-0.025,0.025
2766,-0.040,0.035
2767,-0.060,0.035
2768,-0.075,0.035
2769,-0.085,0.030
2770,-0.095,0.025
2771,-0.100,0.030
2772,-0.105,0.035
2773,-0.105,0.030
2774,-0.105,0.025
2775,-0.105,0.025
2776,-0.105,0.020
2777,-0.100,0.010
2778,-0.095,0.010
2779,-0.090,0.020
2780,-0.085,0.025
2781,-0.080,0.025
2782,-0.075,0.025
2783,-0.075,0.020
2784,-0.075,0.015
2785,-0.070,0.010
2786,-0.065,0.005
2787,-0.070,0.005
2788,-0.075,0.010
2789,-0.075,0.020
2790,-0.075,0.025
2791,-0.075,0.020
2792,-0.080,0.010
2793,-0.085,0.005
2794,-0.080,0.005
2795,-0.075,0.005
2796,-0.070,0.005
2797,-0.065,0.005
2798,-0.075,0.010
2799,-0.085,0.015
2800,-0.095,0.010
2801,-0.105,0.005
2802,-0.110,0.005
2803,-0.115,0.005
2804,-0.110,0.010
2805,-0.105,0.015
2806,-0.110,0.010
2807,-0.115,0.005
2808,-0.120,0.000
2809,-0.125,-0.005
2810,-0.125,-0.005
2811,-0.125,-0.005
2812,-0.120,-0.005
2813,-0.120,-0.005
2814,-0.130,-0.005
2815,-0.140,-0.005
2816,-0.150,-0.010
2817,-0.155,-0.015
2818,-0.150,-0.010
2819,-0.145,-0.005
2820,-0.145,0.000
2821,-0.135,0.005
2822,-0.120,0.010
2823,-0.100,0.015
2824,-0.080,0.020
2825,-0.070,0.050
2826,-0.060,0.085
2827,-0.035,0.110
2828,-0.010,0.130
2829,0.025,0.135
2830,0.060,0.140
2831,0.065,0.110
2832,0.065,0.070
2833,0.015,0.030
2834,-0.045,-0.015
2835,-0.060,-0.040
2836,-0.075,-0.065
2837,-0.090,-0.055
2838,-0.105,-0.045
2839,-0.120,-0.040
2840,-0.135,-0.035
2841,-0.160,-0.045
2842,-0.185,-0.055
2843,-0.190,-0.060
2844,-0.195,-0.065
2845,-0.195,-0.070
2846,-0.195,-0.075
2847,-0.195,-0.075
2848,-0.195,-0.075
2849,-0.190,-0.075
2850,-0.180,-0.075
2851,-0.165,-0.065
2852,-0.150,-0.055
2853,-0.130,-0.055
2854,-0.160,-0.055
2855,-0.265,-0.040
2856,-0.400,-0.015
2857,-0.570,0.025
2858,-0.575,0.110
2859,-0.455,0.220
2860,0.075,0.305
2861,0.840,0.380
2862,1.615,0.385
2863,2.395,0.355
2864,2.835,0.130
2865,3.140,-0.170
2866,2.685,-0.425
2867,1.990,-0.660
2868,1.215,-0.690
2869,0.420,-0.670
2870,0.100,-0.510
2871,-0.140,-0.325
2872,-0.215,-0.200
2873,-0.270,-0.085
2874,-0.280,-0.040
2875,-0.275,-0.075
2876,-0.295,-0.015
2877,-0.295,-0.035
2878,-0.305,-0.040
2879,-0.315,-0.045
2880,-0.310,-0.045
2881,-0.305,-0.045
2882,-0.315,-0.040
2883,-0.325,-0.035
2884,-0.320,-0.040
2885,-0.315,-0.045
2886,-0.320,-0.045
2887,-0.325,-0.045
2888,-0.320,-0.045
2889,-0.315,-0.045
2890,-0.310,-0.040
2891,-0.305,-0.035
2892,-0.305,-0.035
2893,-0.305,-0.035
2894,-0.305,-0.040
2895,-0.305,-0.045
2896,-0.305,-0.045
2897,-0.305,-0.045
2898,-0.300,-0.040
2899,-0.295,-0.040
2900,-0.295,-0.050
2901,-0.295,-0.055
2902,-0.290,-0.060
2903,-0.285,-0.065
2904,-0.280,-0.065
2905,-0.275,-0.065
2906,-0.270,-0.065
2907,-0.265,-0.070
2908,-0.260,-0.080
2909,-0.255,-0.090
2910,-0.250,-0.100
2911,-0.240,-0.105
2912,-0.230,-0.110
2913,-0.215,-0.115
2914,-0.200,-0.115
2915,-0.190,-0.115
2916,-0.180,-0.120
2917,-0.155,-0.135
2918,-0.135,-0.145
2919,-0.120,-0.145
2920,-0.105,-0.145
2921,-0.090,-0.145
2922,-0.075,-0.145
2923,-0.060,-0.145
2924,-0.045,-0.145
2925,-0.030,-0.145
2926,-0.015,-0.145
2927,0.000,-0.145
2928,0.015,-0.145
2929,0.030,-0.130
2930,0.045,-0.115
2931,0.055,-0.105
2932,0.065,-0.095
2933,0.070,-0.085
2934,0.075,-0.070
2935,0.065,-0.055
2936,0.050,-0.040
2937,0.035,-0.020
2938,0.015,-0.005
2939,-0.005,0.000
2940,-0.025,0.005
2941,-0.045,0.005
2942,-0.055,0.005
2943,-0.060,0.010
2944,-0.070,0.015
2945,-0.080,0.020
2946,-0.085,0.025
2947,-0.090,0.020
2948,-0.095,0.010
2949,-0.100,0.000
2950,-0.105,-0.005
2951,-0.100,0.000
2952,-0.095,0.005
2953,-0.090,0.010
2954,-0.085,0.015
2955,-0.085,0.010
2956,-0.080,0.005
2957,-0.070,0.000
2958,-0.065,-0.005
2959,-0.065,-0.005
2960,-0.060,-0.005
2961,-0.055,-0.005
2962,-0.060,0.000
2963,-0.065,0.005
2964,-0.060,-0.005
2965,-0.055,-0.015
2966,-0.060,-0.010
2967,-0.065,-0.005
2968,-0.060,0.000
2969,-0.055,0.005
2970,-0.060,-0.005
2971,-0.065,-0.015
2972,-0.070,-0.015
2973,-0.075,-0.015
2974,-0.085,-0.015
2975,-0.095,-0.015
2976,-0.095,-0.010
2977,-0.095,-0.005
2978,-0.100,-0.010
2979,-0.105,-0.015
2980,-0.105,-0.020
2981,-0.110,-0.025
2982,-0.120,-0.025
2983,-0.125,-0.025
2984,-0.120,-0.020
2985,-0.115,-0.015
2986,-0.120,-0.020
2987,-0.130,-0.030
2988,-0.140,-0.040
2989,-0.145,-0.045
2990,-0.140,-0.040
2991,-0.135,-0.035
2992,-0.140,-0.035
2993,-0.145,-0.035
2994,-0.150,-0.035
2995,-0.155,-0.035
2996,-0.155,-0.035
2997,-0.155,-0.035
2998,-0.150,-0.040
2999,-0.145,-0.040
3000,-0.145,-0.045
3001,-0.130,-0.015
3002,-0.125,-0.005
3003,-0.105,0.000
3004,-0.085,0.005
3005,-0.070,0.035
3006,-0.055,0.065
3007,-0.020,0.075
3008,0.010,0.085
3009,0.050,0.080
3010,0.080,0.070
3011,0.045,0.040
3012,0.005,0.005
3013,-0.035,-0.040
3014,-0.065,-0.075
3015,-0.075,-0.070
3016,-0.085,-0.065
3017,-0.095,-0.065
3018,-0.115,-0.065
3019,-0.140,-0.065
3020,-0.155,-0.065
3021,-0.170,-0.080
3022,-0.175,-0.085
3023,-0.180,-0.085
3024,-0.185,-0.085
3025,-0.185,-0.090
3026,-0.185,-0.095
3027,-0.180,-0.095
3028,-0.175,-0.090
3029,-0.175,-0.080
3030,-0.165,-0.075
3031,-0.145,-0.070
3032,-0.125,-0.065
3033,-0.110,-0.065
3034,-0.200,-0.060
3035,-0.325,-0.050
3036,-0.465,-0.005
3037,-0.605,0.045
3038,-0.485,0.150
3039,-0.325,0.255
3040,0.400,0.355
3041,1.160,0.450
3042,1.915,0.440
3043,2.655,0.420
3044,2.980,0.130
3045,3.245,-0.155
3046,2.710,-0.445
3047,2.120,-0.705
3048,1.170,-0.725
3049,0.335,-0.720
3050,0.045,-0.555
3051,-0.195,-0.395
3052,-0.245,-0.260
3053,-0.285,-0.140
3054,-0.290,-0.075
3055,-0.295,-0.025
3056,-0.295,-0.035
3057,-0.295,-0.045
3058,-0.300,-0.055
3059,-0.305,-0.065
3060,-0.300,-0.065
3061,-0.295,-0.065
3062,-0.300,-0.065
3063,-0.305,-0.065
3064,-0.305,-0.065
3065,-0.305,-0.065
3066,-0.305,-0.065
3067,-0.305,-0.065
3068,-0.300,-0.065
3069,-0.295,-0.065
3070,-0.295,-0.060
3071,-0.295,-0.055
3072,-0.290,-0.060
3073,-0.285,-0.065
3074,-0.290,-0.070
3075,-0.290,-0.075
3076,-0.280,-0.070
3077,-0.275,-0.065
3078,-0.275,-0.070
3079,-0.275,-0.075
3080,-0.275,-0.070
3081,-0.275,-0.075
3082,-0.280,-0.090
3083,-0.280,-0.095
3084,-0.265,-0.095
3085,-0.255,-0.095
3086,-0.245,-0.095
3087,-0.245,-0.105
3088,-0.245,-0.115
3089,-0.245,-0.115
3090,-0.245,-0.115
3091,-0.235,-0.120
3092,-0.225,-0.125
3093,-0.210,-0.130
3094,-0.195,-0.135
3095,-0.185,-0.150
3096,-0.175,-0.165
3097,-0.165,-0.170
3098,-0.150,-0.175
3099,-0.135,-0.175
3100,-0.115,-0.175
3101,-0.090,-0.175
3102,-0.075,-0.175
3103,-0.065,-0.175
3104,-0.050,-0.175
3105,-0.035,-0.175
3106,-0.015,-0.175
3107,0.005,-0.170
3108,0.020,-0.160
3109,0.035,-0.150
3110,0.045,-0.145
3111,0.050,-0.140
3112,0.055,-0.125
3113,0.055,-0.110
3114,0.055,-0.095
3115,0.055,-0.080
3116,0.055,-0.060
3117,0.050,-0.030
3118,0.035,-0.025
3119,0.020,-0.020
3120,-0.005,-0.005
3121,-0.030,0.010
3122,-0.040,0.015
3123,-0.050,0.015
3124,-0.060,0.015
3125,-0.055,0.015
3126,-0.080,0.025
3127,-0.085,0.025
3128,-0.090,0.025
3129,-0.095,0.025
3130,-0.090,0.015
3131,-0.085,0.005
3132,-0.085,0.005
3133,-0.085,0.005
3134,-0.075,0.005
3135,-0.065,0.005
3136,-0.065,0.005
3137,-0.065,0.005
3138,-0.060,0.005
3139,-0.055,0.005
3140,-0.060,0.005
3141,-0.065,0.005
3142,-0.060,0.005
3143,-0.055,0.005
3144,-0.055,0.000
3145,-0.055,-0.005
3146,-0.055,0.000
3147,-0.055,0.005
3148,-0.055,0.005
3149,-0.055,0.000
3150,-0.060,-0.010
3151,-0.065,-0.015
3152,-0.070,-0.015
3153,-0.075,-0.015
3154,-0.075,-0.015
3155,-0.075,-0.015
3156,-0.080,-0.010
3157,-0.085,-0.005
3158,-0.090,-0.005
3159,-0.095,-0.010
3160,-0.100,-0.020
3161,-0.105,-0.025
3162,-0.110,-0.020
3163,-0.115,-0.015
3164,-0.120,-0.015
3165,-0.125,-0.015
3166,-0.125,-0.015
3167,-0.130,-0.020
3168,-0.135,-0.025
3169,-0.145,-0.020
3170,-0.155,-0.015
3171,-0.155,-0.015
3172,-0.155,-0.015
3173,-0.150,-0.015
3174,-0.145,-0.015
3175,-0.125,-0.010
3176,-0.105,0.000
3177,-0.090,0.025
3178,-0.075,0.050
3179,-0.070,0.075
3180,-0.055,0.095
3181,-0.020,0.095
3182,0.015,0.095
3183,0.045,0.090
3184,0.050,0.065
3185,0.005,0.015
3186,-0.035,-0.025
3187,-0.060,-0.055
3188,-0.080,-0.075
3189,-0.095,-0.070
3190,-0.110,-0.065
3191,-0.120,-0.060
3192,-0.135,-0.055
3193,-0.155,-0.055
3194,-0.175,-0.060
3195,-0.195,-0.070
3196,-0.205,-0.080
3197,-0.210,-0.090
3198,-0.215,-0.095
3199,-0.210,-0.095
3200,-0.200,-0.095
3201,-0.190,-0.090
3202,-0.185,-0.085
3203,-0.180,-0.080
3204,-0.170,-0.075
3205,-0.160,-0.075
3206,-0.150,-0.075
3207,-0.140,-0.075
3208,-0.285,-0.050
3209,-0.445,-0.015
3210,-0.580,0.045
3211,-0.695,0.110
3212,-0.505,0.230
3213,-0.245,0.335
3214,0.575,0.365
3215,1.385,0.380
3216,2.120,0.285
3217,2.760,0.140
3218,3.055,-0.185
3219,3.150,-0.490
3220,2.630,-0.720
3221,2.010,-0.875
3222,1.130,-0.830
3223,0.445,-0.725
3224,0.115,-0.520
3225,-0.120,-0.345
3226,-0.210,-0.220
3227,-0.270,-0.120
3228,-0.290,-0.050
3229,-0.305,-0.015
3230,-0.320,-0.020
3231,-0.325,-0.030
3232,-0.325,-0.040
3233,-0.325,-0.045
3234,-0.325,-0.045
3235,-0.325,-0.045
3236,-0.325,-0.050
3237,-0.325,-0.055
3238,-0.330,-0.055
3239,-0.335,-0.055
3240,-0.340,-0.050
3241,-0.345,-0.045
3242,-0.345,-0.045
3243,-0.345,-0.045
3244,-0.340,-0.040
3245,-0.335,-0.035
3246,-0.335,-0.040
3247,-0.335,-0.045
3248,-0.330,-0.050
3249,-0.325,-0.055
3250,-0.325,-0.055
3251,-0.320,-0.045
3252,-0.325,-0.045
3253,-0.320,-0.045
3254,-0.315,-0.045
3255,-0.310,-0.055
3256,-0.305,-0.065
3257,-0.300,-0.065
3258,-0.295,-0.065
3259,-0.290,-0.065
3260,-0.285,-0.065
3261,-0.280,-0.075
3262,-0.275,-0.085
3263,-0.275,-0.095
3264,-0.270,-0.105
3265,-0.255,-0.105
3266,-0.245,-0.105
3267,-0.240,-0.110
3268,-0.235,-0.115
3269,-0.225,-0.125
3270,-0.210,-0.135
3271,-0.195,-0.140
3272,-0.175,-0.145
3273,-0.150,-0.145
3274,-0.130,-0.145
3275,-0.120,-0.150
3276,-0.105,-0.155
3277,-0.085,-0.160
3278,-0.065,-0.165
3279,-0.050,-0.165
3280,-0.035,-0.160
3281,-0.015,-0.150
3282,0.000,-0.145
3283,0.010,-0.140
3284,0.020,-0.135
3285,0.030,-0.130
3286,0.035,-0.115
3287,0.040,-0.100
3288,0.045,-0.085
3289,0.040,-0.070
3290,0.020,-0.060
3291,0.000,-0.050
3292,-0.030,-0.030
3293,-0.055,-0.015
3294,-0.070,-0.005
3295,-0.085,0.005
3296,-0.100,0.015
3297,-0.115,0.025
3298,-0.130,0.015
3299,-0.145,0.005
3300,-0.155,0.005
3301,-0.165,0.005
3302,-0.170,0.000
3303,-0.175,-0.005
3304,-0.170,0.000
3305,-0.165,0.005
3306,-0.145,0.000
3307,-0.135,-0.005
3308,-0.140,-0.010
3309,-0.145,-0.015
3310,-0.135,-0.015
3311,-0.125,-0.015
3312,-0.120,-0.010
3313,-0.115,-0.005
3314,-0.115,-0.010
3315,-0.115,-0.015
3316,-0.115,-0.020
3317,-0.110,-0.025
3318,-0.100,-0.020
3319,-0.095,-0.015
3320,-0.100,-0.010
3321,-0.105,-0.005
3322,-0.105,-0.010
3323,-0.105,-0.015
3324,-0.110,-0.020
3325,-0.115,-0.025
3326,-0.110,-0.020
3327,-0.105,-0.015
3328,-0.110,-0.015
3329,-0.115,-0.015
3330,-0.115,-0.015
3331,-0.115,-0.015
3332,-0.120,-0.020
3333,-0.125,-0.025
3334,-0.135,-0.025
3335,-0.140,-0.025
3336,-0.145,-0.025
3337,-0.150,-0.030
3338,-0.155,-0.035
3339,-0.160,-0.035
3340,-0.165,-0.035
3341,-0.170,-0.030
3342,-0.175,-0.025
3343,-0.175,-0.030
3344,-0.175,-0.035
3345,-0.175,-0.040
3346,-0.175,-0.045
3347,-0.175,-0.045
3348,-0.175,-0.045
3349,-0.180,-0.045
3350,-0.185,-0.045
3351,-0.180,-0.040
3352,-0.175,-0.035
3353,-0.180,-0.040
3354,-0.185,-0.045
3355,-0.180,-0.045
3356,-0.160,-0.040
3357,-0.130,-0.025
3358,-0.110,0.000
3359,-0.095,0.030
3360,-0.085,0.050
3361,-0.080,0.065
3362,-0.045,0.075
3363,0.010,0.075
3364,0.020,0.065
3365,0.010,0.040
3366,-0.030,0.005
3367,-0.075,-0.035
3368,-0.095,-0.065
3369,-0.110,-0.100
3370,-0.115,-0.090
3371,-0.120,-0.070
3372,-0.130,-0.065
3373,-0.140,-0.070
3374,-0.155,-0.075
3375,-0.145,-0.075
3376,-0.200,-0.080
3377,-0.225,-0.095
3378,-0.230,-0.100
3379,-0.235,-0.105
3380,-0.230,-0.105
3381,-0.225,-0.105
3382,-0.210,-0.095
3383,-0.195,-0.085
3384,-0.195,-0.090
3385,-0.195,-0.095
3386,-0.185,-0.095
3387,-0.175,-0.095
3388,-0.175,-0.085
3389,-0.230,-0.065
3390,-0.405,-0.025
3391,-0.545,0.025
3392,-0.630,0.085
3393,-0.560,0.165
3394,-0.250,0.270
3395,0.340,0.330
3396,1.260,0.355
3397,2.020,0.275
3398,2.635,0.095
3399,2.965,-0.175
3400,3.080,-0.510
3401,2.605,-0.700
3402,1.750,-0.800
3403,1.010,-0.755
3404,0.330,-0.635
3405,-0.005,-0.470
3406,-0.195,-0.285
3407,-0.275,-0.160
3408,-0.315,-0.060
3409,-0.325,-0.035
3410,-0.330,-0.035
3411,-0.335,-0.040
3412,-0.330,-0.050
3413,-0.325,-0.055
3414,-0.330,-0.050
3415,-0.335,-0.045
3416,-0.335,-0.050
3417,-0.335,-0.055
3418,-0.335,-0.055
3419,-0.335,-0.055
3420,-0.335,-0.055
3421,-0.330,-0.045
3422,-0.325,-0.035
3423,-0.330,-0.045
3424,-0.335,-0.055
3425,-0.340,-0.055
3426,-0.345,-0.055
3427,-0.345,-0.055
3428,-0.345,-0.055
3429,-0.335,-0.050
3430,-0.325,-0.045
3431,-0.325,-0.055
3432,-0.325,-0.065
3433,-0.325,-0.065
3434,-0.325,-0.065
3435,-0.315,-0.070
3436,-0.305,-0.075
3437,-0.310,-0.070
3438,-0.315,-0.070
3439,-0.310,-0.080
3440,-0.305,-0.085
3441,-0.305,-0.090
3442,-0.300,-0.095
3443,-0.290,-0.095
3444,-0.280,-0.095
3445,-0.270,-0.095
3446,-0.255,-0.100
3447,-0.235,-0.110
3448,-0.225,-0.120
3449,-0.220,-0.130
3450,-0.200,-0.135
3451,-0.180,-0.140
3452,-0.160,-0.145
3453,-0.140,-0.145
3454,-0.130,-0.145
3455,-0.120,-0.150
3456,-0.105,-0.155
3457,-0.090,-0.160
3458,-0.070,-0.165
3459,-0.045,-0.165
3460,-0.020,-0.155
3461,0.005,-0.145
3462,0.015,-0.145
3463,0.025,-0.145
3464,0.040,-0.140
3465,0.055,-0.135
3466,0.060,-0.120
3467,0.065,-0.105
3468,0.065,-0.090
3469,0.060,-0.075
3470,0.040,-0.060
3471,0.025,-0.045
3472,0.010,-0.045
3473,-0.010,-0.040
3474,-0.035,-0.025
3475,-0.060,-0.015
3476,-0.075,-0.005
3477,-0.090,0.005
3478,-0.110,0.000
3479,-0.125,-0.005
3480,-0.130,-0.010
3481,-0.135,-0.015
3482,-0.140,-0.010
3483,-0.145,-0.005
3484,-0.150,-0.005
3485,-0.155,-0.010
3486,-0.155,-0.020
3487,-0.155,-0.025
3488,-0.150,-0.025
3489,-0.145,-0.025
3490,-0.140,-0.020
3491,-0.130,-0.015
3492,-0.120,-0.015
3493,-0.115,-0.015
3494,-0.110,-0.020
3495,-0.105,-0.025
3496,-0.110,-0.025
3497,-0.115,-0.025
3498,-0.110,-0.025
3499,-0.105,-0.025
3500,-0.105,-0.025
3501,-0.105,-0.025
3502,-0.105,-0.025
3503,-0.110,-0.025
3504,-0.115,-0.025
3505,-0.110,-0.030
3506,-0.105,-0.035
3507,-0.110,-0.030
3508,-0.115,-0.025
3509,-0.120,-0.025
3510,-0.125,-0.025
3511,-0.135,-0.025
3512,-0.145,-0.025
3513,-0.145,-0.030
3514,-0.145,-0.035
3515,-0.150,-0.030
3516,-0.155,-0.025
3517,-0.160,-0.035
3518,-0.165,-0.045
3519,-0.165,-0.050
3520,-0.165,-0.055
3521,-0.165,-0.040
3522,-0.165,-0.035
3523,-0.170,-0.035
3524,-0.175,-0.035
3525,-0.175,-0.040
3526,-0.175,-0.050
3527,-0.180,-0.060
3528,-0.185,-0.065
3529,-0.180,-0.060
3530,-0.175,-0.050
3531,-0.175,-0.040
3532,-0.175,-0.040
3533,-0.175,-0.050
3534,-0.170,-0.045
3535,-0.160,-0.030
3536,-0.145,-0.015
3537,-0.130,0.000
3538,-0.115,0.020
3539,-0.100,0.040
3540,-0.075,0.050
3541,-0.050,0.060
3542,-0.005,0.065
3543,0.035,0.065
3544,0.015,0.040
3545,-0.005,0.015
3546,-0.060,-0.030
3547,-0.105,-0.075
3548,-0.115,-0.090
3549,-0.125,-0.105
3550,-0.145,-0.095
3551,-0.165,-0.085
3552,-0.175,-0.080
3553,-0.185,-0.075
3554,-0.200,-0.080
3555,-0.215,-0.085
3556,-0.225,-0.090
3557,-0.235,-0.095
3558,-0.230,-0.100
3559,-0.225,-0.105
3560,-0.215,-0.105
3561,-0.205,-0.105
3562,-0.195,-0.100
3563,-0.185,-0.095
3564,-0.180,-0.090
3565,-0.170,-0.085
3566,-0.155,-0.085
3567,-0.220,-0.075
3568,-0.355,-0.055
3569,-0.490,-0.015
3570,-0.620,0.035
3571,-0.510,0.125
3572,-0.280,0.235
3573,0.435,0.330
3574,1.320,0.420
3575,2.025,0.395
3576,2.680,0.330
3577,2.955,0.040
3578,3.150,-0.290
3579,2.480,-0.525
3580,1.680,-0.745
3581,0.915,-0.745
3582,0.150,-0.720
3583,-0.060,-0.535
3584,-0.255,-0.345
3585,-0.280,-0.225
3586,-0.305,-0.105
3587,-0.300,-0.065
3588,-0.295,-0.025
3589,-0.300,-0.050
3590,-0.305,-0.075
3591,-0.310,-0.080
3592,-0.315,-0.085
3593,-0.325,-0.085
3594,-0.335,-0.085
3595,-0.330,-0.080
3596,-0.325,-0.075
3597,-0.325,-0.080
3598,-0.325,-0.085
3599,-0.335,-0.080
3600,-0.340,-0.075
3601,-0.325,-0.070
3602,-0.315,-0.065
3603,-0.310,-0.070
3604,-0.305,-0.075
3605,-0.310,-0.080
3606,-0.315,-0.085
3607,-0.320,-0.080
3608,-0.325,-0.075
3609,-0.320,-0.070
3610,-0.315,-0.070
3611,-0.315,-0.080
3612,-0.315,-0.085
3613,-0.310,-0.085
3614,-0.305,-0.085
3615,-0.300,-0.090
3616,-0.290,-0.095
3617,-0.280,-0.090
3618,-0.275,-0.095
3619,-0.270,-0.110
3620,-0.265,-0.115
3621,-0.260,-0.115
3622,-0.250,-0.120
3623,-0.240,-0.130
3624,-0.230,-0.135
3625,-0.235,-0.135
3626,-0.205,-0.150
3627,-0.195,-0.165
3628,-0.190,-0.170
3629,-0.185,-0.175
3630,-0.165,-0.180
3631,-0.145,-0.185
3632,-0.125,-0.180
3633,-0.105,-0.175
3634,-0.090,-0.180
3635,-0.075,-0.185
3636,-0.070,-0.195
3637,-0.060,-0.205
3638,-0.030,-0.190
3639,0.005,-0.175
3640,0.035,-0.170
3641,0.060,-0.165
3642,0.090,-0.160
3643,0.105,-0.155
3644,0.110,-0.150
3645,0.115,-0.140
3646,0.110,-0.115
3647,0.100,-0.100
3648,0.085,-0.085
3649,0.075,-0.070
3650,0.070,-0.055
3651,0.050,-0.040
3652,0.025,-0.030
3653,0.000,-0.020
3654,-0.025,-0.010
3655,-0.035,-0.005
3656,-0.040,0.000
3657,-0.055,0.005
3658,-0.070,0.005
3659,-0.075,0.005
3660,-0.075,0.000
3661,-0.075,-0.005
3662,-0.075,-0.005
3663,-0.070,0.000
3664,-0.060,0.010
3665,-0.060,0.010
3666,-0.070,0.000
3667,-0.070,-0.010
3668,-0.065,-0.015
3669,-0.065,-0.010
3670,-0.065,-0.005
3671,-0.055,0.000
3672,-0.045,0.005
3673,-0.045,0.000
3674,-0.045,-0.005
3675,-0.045,-0.015
3676,-0.045,-0.025
3677,-0.045,-0.015
3678,-0.045,-0.005
3679,-0.045,-0.005
3680,-0.045,-0.005
3681,-0.045,-0.010
3682,-0.045,-0.015
3683,-0.040,-0.015
3684,-0.035,-0.015
3685,-0.045,-0.015
3686,-0.055,-0.015
3687,-0.055,-0.010
3688,-0.060,-0.005
3689,-0.070,-0.010
3690,-0.075,-0.015
3691,-0.075,-0.020
3692,-0.075,-0.025
3693,-0.080,-0.020
3694,-0.090,-0.015
3695,-0.100,-0.015
3696,-0.105,-0.015
3697,-0.100,-0.020
3698,-0.095,-0.025
3699,-0.100,-0.025
3700,-0.105,-0.025
3701,-0.110,-0.025
3702,-0.115,-0.025
3703,-0.120,-0.020
3704,-0.125,-0.015
3705,-0.125,-0.020
3706,-0.125,-0.025
3707,-0.120,-0.020
3708,-0.095,-0.010
3709,-0.065,0.005
3710,-0.055,0.030
3711,-0.045,0.055
3712,-0.025,0.065
3713,-0.005,0.075
3714,0.040,0.075
3715,0.075,0.075
3716,0.065,0.050
3717,0.050,0.020
3718,0.010,-0.020
3719,-0.025,-0.055
3720,-0.040,-0.070
3721,-0.055,-0.085
3722,-0.065,-0.080
3723,-0.085,-0.075
3724,-0.115,-0.065
3725,-0.140,-0.060
3726,-0.160,-0.075
3727,-0.180,-0.090
3728,-0.195,-0.110
3729,-0.205,-0.125
3730,-0.200,-0.130
3731,-0.190,-0.135
3732,-0.180,-0.130
3733,-0.170,-0.125
3734,-0.160,-0.120
3735,-0.150,-0.115
3736,-0.135,-0.115
3737,-0.115,-0.115
3738,-0.100,-0.110
3739,-0.125,-0.105
3740,-0.170,-0.100
3741,-0.330,-0.060
3742,-0.515,-0.015
3743,-0.560,0.060
3744,-0.570,0.140
3745,-0.145,0.255
3746,0.355,0.370
3747,1.255,0.425
3748,2.200,0.470
3749,2.655,0.255
3750,2.245,0.475
3751,3.000,-0.330
3752,2.860,-0.665
3753,1.835,-0.765
3754,0.860,-0.845
3755,0.355,-0.710
3756,-0.095,-0.575
3757,-0.190,-0.410
3758,-0.265,-0.255
3759,-0.270,-0.145
3760,-0.275,-0.055
3761,-0.285,-0.050
3762,-0.295,-0.045
3763,-0.295,-0.055
3764,-0.295,-0.065
3765,-0.295,-0.060
3766,-0.295,-0.055
3767,-0.295,-0.060
3768,-0.295,-0.065
3769,-0.295,-0.070
3770,-0.295,-0.075
3771,-0.300,-0.060
3772,-0.305,-0.055
3773,-0.300,-0.055
3774,-0.295,-0.055
3775,-0.300,-0.055
3776,-0.305,-0.055
3777,-0.300,-0.060
3778,-0.295,-0.065
3779,-0.295,-0.065
3780,-0.295,-0.065
3781,-0.290,-0.060
3782,-0.285,-0.055
3783,-0.285,-0.060
3784,-0.285,-0.065
3785,-0.285,-0.070
3786,-0.285,-0.075
3787,-0.290,-0.075
3788,-0.290,-0.075
3789,-0.280,-0.075
3790,-0.275,-0.080
3791,-0.275,-0.090
3792,-0.265,-0.100
3793,-0.255,-0.105
3794,-0.250,-0.110
3795,-0.245,-0.115
3796,-0.235,-0.120
3797,-0.225,-0.125
3798,-0.215,-0.135
3799,-0.205,-0.145
3800,-0.200,-0.155
3801,-0.195,-0.165
3802,-0.180,-0.170
3803,-0.160,-0.175
3804,-0.140,-0.170
3805,-0.125,-0.165
3806,-0.105,-0.175
3807,-0.095,-0.185
3808,-0.090,-0.190
3809,-0.080,-0.195
3810,-0.060,-0.190
3811,-0.040,-0.185
3812,-0.020,-0.175
3813,0.000,-0.165
3814,0.015,-0.170
3815,0.030,-0.170
3816,0.040,-0.160
3817,0.050,-0.150
3818,0.060,-0.135
3819,0.060,-0.115
3820,0.050,-0.095
3821,0.045,-0.075
3822,0.040,-0.060
3823,0.020,-0.055
3824,-0.005,-0.050
3825,-0.025,-0.035
3826,-0.040,-0.020
3827,-0.055,-0.010
3828,-0.070,0.000
3829,-0.085,0.005
3830,-0.100,0.010
3831,-0.115,0.015
3832,-0.130,0.010
3833,-0.135,0.005
3834,-0.135,0.005
3835,-0.130,0.010
3836,-0.125,0.015
3837,-0.135,0.005
3838,-0.145,-0.005
3839,-0.135,-0.005
3840,-0.125,-0.005
3841,-0.120,0.000
3842,-0.115,0.005
3843,-0.105,0.010
3844,-0.095,0.015
3845,-0.105,0.010
3846,-0.115,0.005
3847,-0.110,-0.005
3848,-0.105,-0.015
3849,-0.105,-0.010
3850,-0.105,-0.005
3851,-0.095,0.000
3852,-0.085,0.005
3853,-0.090,0.000
3854,-0.095,-0.005
3855,-0.095,-0.010
3856,-0.095,-0.015
3857,-0.095,-0.015
3858,-0.095,-0.015
3859,-0.095,-0.010
3860,-0.095,-0.005
3861,-0.100,-0.010
3862,-0.110,-0.015
3863,-0.120,-0.015
3864,-0.125,-0.015
3865,-0.120,-0.015
3866,-0.115,-0.015
3867,-0.120,-0.015
3868,-0.125,-0.015
3869,-0.130,-0.015
3870,-0.135,-0.015
3871,-0.135,-0.020
3872,-0.140,-0.025
3873,-0.150,-0.025
3874,-0.155,-0.025
3875,-0.155,-0.025
3876,-0.160,-0.015
3877,-0.165,-0.015
3878,-0.165,-0.020
3879,-0.165,-0.025
3880,-0.165,-0.020
3881,-0.165,-0.015
3882,-0.155,-0.015
3883,-0.145,-0.015
3884,-0.130,0.000
3885,-0.115,0.015
3886,-0.105,0.030
3887,-0.095,0.050
3888,-0.085,0.075
3889,-0.065,0.095
3890,-0.025,0.100
3891,0.010,0.100
3892,0.040,0.085
3893,0.035,0.055
3894,-0.015,0.005
3895,-0.060,-0.035
3896,-0.095,-0.070
3897,-0.115,-0.080
3898,-0.110,-0.065
3899,-0.115,-0.050
3900,-0.135,-0.040
3901,-0.150,-0.040
3902,-0.160,-0.050
3903,-0.185,-0.060
3904,-0.220,-0.070
3905,-0.235,-0.075
3906,-0.235,-0.075
3907,-0.235,-0.075
3908,-0.235,-0.075
3909,-0.225,-0.075
3910,-0.210,-0.080
3911,-0.200,-0.080
3912,-0.190,-0.070
3913,-0.175,-0.060
3914,-0.160,-0.050
3915,-0.160,-0.045
3916,-0.170,-0.050
3917,-0.350,-0.015
3918,-0.525,0.025
3919,-0.610,0.105
3920,-0.670,0.190
3921,-0.350,0.310
3922,0.055,0.415
3923,1.025,0.395
3924,1.940,0.330
3925,2.555,0.055
3926,3.025,-0.240
3927,2.980,-0.585
3928,2.680,-0.845
3929,1.685,-0.840
3930,0.830,-0.770
3931,0.290,-0.560
3932,-0.100,-0.375
3933,-0.225,-0.235
3934,-0.305,-0.115
3935,-0.315,-0.040
3936,-0.325,0.005
3937,-0.325,0.005
3938,-0.325,0.000
3939,-0.330,-0.015
3940,-0.335,-0.025
3941,-0.335,-0.025
3942,-0.335,-0.025
3943,-0.335,-0.025
3944,-0.335,-0.025
3945,-0.335,-0.020
3946,-0.335,-0.015
3947,-0.335,-0.020
3948,-0.335,-0.025
3949,-0.340,-0.030
3950,-0.345,-0.035
3951,-0.340,-0.030
3952,-0.335,-0.025
3953,-0.335,-0.020
3954,-0.335,-0.015
3955,-0.335,-0.020
3956,-0.335,-0.025
3957,-0.330,-0.025
3958,-0.325,-0.025
3959,-0.325,-0.025
3960,-0.315,-0.030
3961,-0.305,-0.035
3962,-0.305,-0.035
3963,-0.305,-0.035
3964,-0.315,-0.045
3965,-0.325,-0.055
3966,-0.320,-0.050
3967,-0.315,-0.045
3968,-0.300,-0.050
3969,-0.285,-0.055
3970,-0.275,-0.060
3971,-0.265,-0.065
3972,-0.255,-0.080
3973,-0.245,-0.095
3974,-0.235,-0.090
3975,-0.220,-0.085
3976,-0.205,-0.090
3977,-0.195,-0.095
3978,-0.185,-0.105
3979,-0.170,-0.115
3980,-0.145,-0.120
3981,-0.130,-0.125
3982,-0.115,-0.125
3983,-0.095,-0.125
3984,-0.065,-0.120
3985,-0.050,-0.115
3986,-0.035,-0.120
3987,-0.015,-0.125
3988,0.005,-0.125
3989,0.020,-0.120
3990,0.030,-0.110
3991,0.045,-0.095
3992,0.060,-0.080
3993,0.065,-0.070
3994,0.070,-0.060
3995,0.070,-0.055
3996,0.060,-0.050
3997,0.040,-0.035
3998,0.020,-0.020
3999,-0.005,-0.005
4000,0.015,-0.015
4001,-0.060,0.020
4002,-0.085,0.025
4003,-0.100,0.020
4004,-0.115,0.015
4005,-0.125,0.020
4006,-0.135,0.025
4007,-0.140,0.035
4008,-0.145,0.045
4009,-0.145,0.035
4010,-0.145,0.025
4011,-0.150,0.020
4012,-0.155,0.015
4013,-0.150,0.010
4014,-0.145,0.005
4015,-0.145,0.015
4016,-0.145,0.025
4017,-0.140,0.020
4018,-0.135,0.015
4019,-0.135,0.005
4020,-0.135,-0.005
4021,-0.130,-0.005
4022,-0.125,-0.005
4023,-0.120,0.000
4024,-0.115,0.005
4025,-0.115,0.005
4026,-0.120,0.005
4027,-0.130,0.000
4028,-0.135,-0.005
4029,-0.135,0.000
4030,-0.135,0.005
4031,-0.130,0.010
4032,-0.125,0.015
4033,-0.130,0.010
4034,-0.135,0.005
4035,-0.130,0.005
4036,-0.125,0.005
4037,-0.125,0.005
4038,-0.125,0.005
4039,-0.125,0.010
4040,-0.130,0.010
4041,-0.140,0.000
4042,-0.150,-0.010
4043,-0.155,-0.015
4044,-0.160,-0.015
4045,-0.165,-0.015
4046,-0.165,-0.005
4047,-0.165,0.005
4048,-0.170,-0.005
4049,-0.175,-0.015
4050,-0.180,-0.015
4051,-0.185,-0.015
4052,-0.185,-0.015
4053,-0.185,-0.015
4054,-0.185,-0.010
4055,-0.185,-0.005
4056,-0.180,-0.015
4057,-0.175,-0.025
4058,-0.185,-0.025
4059,-0.190,-0.025
4060,-0.175,-0.020
4061,-0.160,-0.010
4062,-0.140,0.010
4063,-0.120,0.030
4064,-0.105,0.045
4065,-0.095,0.065
4066,-0.090,0.085
4067,-0.055,0.095
4068,-0.005,0.095
4069,0.025,0.090
4070,0.045,0.070
4071,0.005,0.030
4072,-0.070,-0.030
4073,-0.110,-0.065
4074,-0.130,-0.095
4075,-0.135,-0.085
4076,-0.135,-0.060
4077,-0.140,-0.055
4078,-0.150,-0.050
4079,-0.170,-0.045
4080,-0.190,-0.050
4081,-0.215,-0.065
4082,-0.240,-0.080
4083,-0.245,-0.085
4084,-0.245,-0.085
4085,-0.230,-0.085
4086,-0.215,-0.085
4087,-0.215,-0.085
4088,-0.215,-0.085
4089,-0.205,-0.090
4090,-0.195,-0.095
4091,-0.185,-0.085
4092,-0.175,-0.075
4093,-0.185,-0.065
4094,-0.240,-0.050
4095,-0.425,-0.015
4096,-0.570,0.040
4097,-0.625,0.130
4098,-0.540,0.220
4099,-0.165,0.310
4100,0.425,0.365
4101,1.345,0.370
4102,2.105,0.270
4103,2.665,0.025
4104,2.965,-0.265
4105,2.990,-0.595
4106,2.550,-0.775
4107,1.685,-0.815
4108,0.955,-0.750
4109,0.330,-0.595
4110,-0.010,-0.440
4111,-0.175,-0.280
4112,-0.260,-0.160
4113,-0.300,-0.065
4114,-0.315,-0.030
4115,-0.320,-0.020
4116,-0.325,-0.020
4117,-0.330,-0.030
4118,-0.335,-0.035
4119,-0.335,-0.040
4120,-0.340,-0.045
4121,-0.350,-0.050
4122,-0.350,-0.055
4123,-0.340,-0.050
4124,-0.335,-0.045
4125,-0.335,-0.045
4126,-0.335,-0.045
4127,-0.335,-0.055
4128,-0.340,-0.050
4129,-0.345,-0.045
4130,-0.340,-0.045
4131,-0.335,-0.045
4132,-0.330,-0.045
4133,-0.325,-0.045
4134,-0.325,-0.050
4135,-0.325,-0.055
4136,-0.330,-0.060
4137,-0.335,-0.065
4138,-0.325,-0.060
4139,-0.315,-0.055
4140,-0.310,-0.055
4141,-0.305,-0.055
4142,-0.310,-0.060
4143,-0.315,-0.070
4144,-0.310,-0.085
4145,-0.305,-0.095
4146,-0.300,-0.095
4147,-0.290,-0.095
4148,-0.280,-0.095
4149,-0.270,-0.100
4150,-0.255,-0.110
4151,-0.240,-0.120
4152,-0.230,-0.130
4153,-0.215,-0.135
4154,-0.200,-0.130
4155,-0.185,-0.125
4156,-0.165,-0.130
4157,-0.150,-0.135
4158,-0.140,-0.140
4159,-0.125,-0.150
4160,-0.110,-0.160
4161,-0.090,-0.165
4162,-0.070,-0.165
4163,-0.045,-0.165
4164,-0.020,-0.160
4165,-0.010,-0.155
4166,0.000,-0.155
4167,0.025,-0.145
4168,0.045,-0.135
4169,0.055,-0.125
4170,0.065,-0.115
4171,0.070,-0.100
4172,0.075,-0.085
4173,0.065,-0.080
4174,0.055,-0.075
4175,0.035,-0.060
4176,0.015,-0.045
4177,0.000,-0.035
4178,-0.020,-0.025
4179,-0.040,-0.015
4180,-0.060,-0.005
4181,-0.085,-0.005
4182,-0.110,-0.005
4183,-0.125,-0.005
4184,-0.135,-0.005
4185,-0.135,-0.005
4186,-0.135,-0.005
4187,-0.135,0.000
4188,-0.135,0.000
4189,-0.135,-0.015
4190,-0.135,-0.025
4191,-0.135,-0.025
4192,-0.135,-0.025
4193,-0.130,-0.025
4194,-0.125,-0.025
4195,-0.120,-0.020
4196,-0.115,-0.015
4197,-0.115,-0.020
4198,-0.115,-0.025
4199,-0.110,-0.030
4200,-0.105,-0.035
4201,-0.105,-0.030
4202,-0.105,-0.025
4203,-0.110,-0.025
4204,-0.115,-0.025
4205,-0.110,-0.025
4206,-0.105,-0.025
4207,-0.105,-0.030
4208,-0.105,-0.035
4209,-0.115,-0.025
4210,-0.105,-0.030
4211,-0.095,-0.035
4212,-0.105,-0.035
4213,-0.115,-0.035
4214,-0.120,-0.040
4215,-0.125,-0.045
4216,-0.130,-0.040
4217,-0.135,-0.035
4218,-0.140,-0.035
4219,-0.145,-0.035
4220,-0.150,-0.045
4221,-0.155,-0.055
4222,-0.160,-0.055
4223,-0.165,-0.055
4224,-0.165,-0.050
4225,-0.165,-0.045
4226,-0.160,-0.040
4227,-0.155,-0.035
4228,-0.160,-0.045
4229,-0.165,-0.055
4230,-0.165,-0.060
4231,-0.165,-0.065
4232,-0.165,-0.065
4233,-0.165,-0.065
4234,-0.165,-0.060
4235,-0.165,-0.060
4236,-0.170,-0.070
4237,-0.175,-0.075
4238,-0.175,-0.075
4239,-0.175,-0.075
4240,-0.175,-0.070
4241,-0.175,-0.065
4242,-0.175,-0.065
4243,-0.175,-0.065
4244,-0.175,-0.070
4245,-0.175,-0.075
4246,-0.175,-0.080
4247,-0.165,-0.075
4248,-0.150,-0.060
4249,-0.130,-0.035
4250,-0.145,-0.055
4251,-0.100,0.010
4252,-0.095,0.025
4253,-0.070,0.030
4254,-0.040,0.035
4255,0.015,0.035
4256,0.060,0.035
4257,0.015,0.010
4258,-0.035,-0.025
4259,-0.090,-0.085
4260,-0.135,-0.135
4261,-0.135,-0.135
4262,-0.140,-0.135
4263,-0.160,-0.125
4264,-0.175,-0.115
4265,-0.175,-0.110
4266,-0.180,-0.105
4267,-0.200,-0.115
4268,-0.220,-0.125
4269,-0.240,-0.135
4270,-0.255,-0.145
4271,-0.250,-0.140
4272,-0.240,-0.135
4273,-0.225,-0.130
4274,-0.215,-0.125
4275,-0.210,-0.125
4276,-0.205,-0.125
4277,-0.205,-0.125
4278,-0.190,-0.125
4279,-0.165,-0.120
4280,-0.245,-0.095
4281,-0.380,-0.065
4282,-0.520,-0.015
4283,-0.665,0.040
4284,-0.550,0.140
4285,-0.365,0.245
4286,0.370,0.295
4287,1.210,0.340
4288,1.965,0.260
4289,2.705,0.165
4290,2.995,-0.185
4291,3.250,-0.545
4292,2.455,-0.715
4293,1.645,-0.875
4294,0.870,-0.770
4295,0.140,-0.665
4296,-0.070,-0.475
4297,-0.260,-0.295
4298,-0.300,-0.190
4299,-0.335,-0.105
4300,-0.345,-0.100
4301,-0.355,-0.095
4302,-0.345,-0.100
4303,-0.335,-0.105
4304,-0.340,-0.100
4305,-0.345,-0.095
4306,-0.345,-0.100
4307,-0.345,-0.105
4308,-0.350,-0.110
4309,-0.355,-0.115
4310,-0.355,-0.110
4311,-0.355,-0.105
4312,-0.345,-0.100
4313,-0.335,-0.095
4314,-0.340,-0.100
4315,-0.345,-0.105
4316,-0.350,-0.110
4317,-0.355,-0.115
4318,-0.355,-0.115
4319,-0.355,-0.115
4320,-0.360,-0.110
4321,-0.360,-0.105
4322,-0.350,-0.110
4323,-0.345,-0.120
4324,-0.345,-0.130
4325,-0.340,-0.135
4326,-0.330,-0.130
4327,-0.325,-0.125
4328,-0.325,-0.125
4329,-0.325,-0.125
4330,-0.320,-0.130
4331,-0.315,-0.135
4332,-0.315,-0.140
4333,-0.315,-0.145
4334,-0.305,-0.155
4335,-0.290,-0.160
4336,-0.275,-0.165
4337,-0.270,-0.170
4338,-0.265,-0.175
4339,-0.250,-0.190
4340,-0.235,-0.205
4341,-0.220,-0.200
4342,-0.200,-0.195
4343,-0.170,-0.200
4344,-0.145,-0.205
4345,-0.130,-0.215
4346,-0.115,-0.225
4347,-0.105,-0.225
4348,-0.090,-0.225
4349,-0.075,-0.220
4350,-0.055,-0.210
4351,-0.025,-0.195
4352,0.000,-0.185
4353,0.015,-0.190
4354,0.030,-0.195
4355,0.045,-0.195
4356,0.055,-0.190
4357,0.055,-0.175
4358,0.060,-0.160
4359,0.070,-0.145
4360,0.070,-0.130
4361,0.055,-0.120
4362,0.035,-0.115
4363,0.020,-0.110
4364,0.005,-0.095
4365,-0.020,-0.070
4366,-0.040,-0.055
4367,-0.070,-0.040
4368,-0.080,-0.035
4369,-0.090,-0.040
4370,-0.105,-0.045
4371,-0.120,-0.045
4372,-0.125,-0.045
4373,-0.130,-0.045
4374,-0.135,-0.045
4375,-0.135,-0.045
4376,-0.140,-0.050
4377,-0.145,-0.055
4378,-0.150,-0.060
4379,-0.155,-0.065
4380,-0.150,-0.065
4381,-0.145,-0.065
4382,-0.130,-0.065
4383,-0.115,-0.065
4384,-0.105,-0.060
4385,-0.095,-0.055
4386,-0.100,-0.060
4387,-0.105,-0.065
4388,-0.105,-0.065
4389,-0.105,-0.065
4390,-0.095,-0.060
4391,-0.085,-0.055
4392,-0.090,-0.060
4393,-0.095,-0.065
4394,-0.105,-0.070
4395,-0.115,-0.075
4396,-0.120,-0.070
4397,-0.125,-0.065
4398,-0.125,-0.060
4399,-0.125,-0.055
4400,-0.125,-0.060
4401,-0.125,-0.065
4402,-0.125,-0.070
4403,-0.125,-0.075
4404,-0.120,-0.070
4405,-0.115,-0.065
4406,-0.115,-0.065
4407,-0.120,-0.065
4408,-0.130,-0.065
4409,-0.135,-0.065
4410,-0.140,-0.070
4411,-0.145,-0.075
4412,-0.145,-0.075
4413,-0.145,-0.075
4414,-0.145,-0.070
4415,-0.150,-0.065
4416,-0.160,-0.070
4417,-0.165,-0.085
4418,-0.165,-0.095
4419,-0.165,-0.085
4420,-0.165,-0.075
4421,-0.155,-0.075
4422,-0.145,-0.075
4423,-0.160,-0.080
4424,-0.175,-0.085
4425,-0.170,-0.085
4426,-0.165,-0.085
4427,-0.160,-0.080
4428,-0.155,-0.070
4429,-0.145,-0.045
4430,-0.135,-0.025
4431,-0.130,-0.015
4432,-0.120,0.000
4433,-0.100,0.015
4434,-0.070,0.025
4435,-0.030,0.030
4436,0.010,0.035
4437,0.050,0.025
4438,0.055,0.005
4439,0.015,-0.020
4440,-0.025,-0.060
4441,-0.065,-0.110
4442,-0.085,-0.130
4443,-0.090,-0.120
4444,-0.100,-0.110
4445,-0.110,-0.100
4446,-0.130,-0.095
4447,-0.155,-0.095
4448,-0.180,-0.105
4449,-0.200,-0.120
4450,-0.205,-0.125
4451,-0.205,-0.125
4452,-0.205,-0.125
4453,-0.205,-0.125
4454,-0.200,-0.125
4455,-0.190,-0.130
4456,-0.180,-0.135
4457,-0.170,-0.135
4458,-0.165,-0.130
4459,-0.165,-0.115
4460,-0.135,-0.105
4461,-0.110,-0.095
4462,-0.250,-0.080
4463,-0.390,-0.060
4464,-0.535,-0.010
4465,-0.640,0.050
4466,-0.465,0.175
4467,-0.145,0.295
4468,0.765,0.410
4469,1.620,0.475
4470,2.340,0.375
4471,2.905,0.190
4472,3.110,-0.195
4473,2.930,-0.525
4474,2.015,-0.735
4475,1.180,-0.835
4476,0.475,-0.745
4477,0.005,-0.620
4478,-0.160,-0.445
4479,-0.250,-0.300
4480,-0.275,-0.175
4481,-0.290,-0.105
4482,-0.300,-0.080
4483,-0.305,-0.070
4484,-0.305,-0.080
4485,-0.305,-0.090
4486,-0.305,-0.100
4487,-0.305,-0.105
4488,-0.305,-0.105
4489,-0.305,-0.105
4490,-0.305,-0.105
4491,-0.305,-0.100
4492,-0.305,-0.090
4493,-0.305,-0.085
4494,-0.300,-0.090
4495,-0.300,-0.095
4496,-0.310,-0.100
4497,-0.315,-0.105
4498,-0.315,-0.105
4499,-0.315,-0.105
4500,-0.315,-0.105
4501,-0.300,-0.100
4502,-0.285,-0.105
4503,-0.285,-0.110
4504,-0.285,-0.115
4505,-0.280,-0.110
4506,-0.275,-0.105
4507,-0.275,-0.105
4508,-0.275,-0.105
4509,-0.275,-0.115
4510,-0.275,-0.125
4511,-0.270,-0.130
4512,-0.265,-0.135
4513,-0.260,-0.140
4514,-0.255,-0.145
4515,-0.250,-0.145
4516,-0.245,-0.145
4517,-0.235,-0.150
4518,-0.225,-0.160
4519,-0.220,-0.175
4520,-0.210,-0.185
4521,-0.185,-0.190
4522,-0.170,-0.195
4523,-0.155,-0.195
4524,-0.140,-0.200
4525,-0.130,-0.210
4526,-0.120,-0.215
4527,-0.105,-0.220
4528,-0.090,-0.225
4529,-0.080,-0.225
4530,-0.065,-0.225
4531,-0.045,-0.220
4532,-0.030,-0.215
4533,-0.020,-0.215
4534,0.000,-0.215
4535,0.020,-0.215
4536,0.035,-0.210
4537,0.050,-0.200
4538,0.070,-0.180
4539,0.090,-0.160
4540,0.090,-0.150
4541,0.080,-0.140
4542,0.065,-0.125
4543,0.055,-0.115
4544,0.030,-0.095
4545,0.005,-0.075
4546,-0.010,-0.060
4547,-0.025,-0.045
4548,-0.045,-0.035
4549,-0.065,-0.025
4550,-0.075,-0.025
4551,-0.085,-0.025
4552,-0.095,-0.025
4553,-0.105,-0.025
4554,-0.110,-0.015
4555,-0.115,-0.005
4556,-0.115,-0.010
4557,-0.115,-0.015
4558,-0.115,-0.025
4559,-0.115,-0.035
4560,-0.105,-0.035
4561,-0.095,-0.035
4562,-0.090,-0.030
4563,-0.085,-0.030
4564,-0.080,-0.040
4565,-0.075,-0.045
4566,-0.075,-0.045
4567,-0.075,-0.045
4568,-0.075,-0.040
4569,-0.075,-0.035
4570,-0.075,-0.030
4571,-0.075,-0.025
4572,-0.075,-0.030
4573,-0.080,-0.035
4574,-0.090,-0.040
4575,-0.095,-0.045
4576,-0.090,-0.040
4577,-0.085,-0.035
4578,-0.080,-0.040
4579,-0.075,-0.045
4580,-0.080,-0.040
4581,-0.090,-0.040
4582,-0.100,-0.050
4583,-0.105,-0.055
4584,-0.115,-0.045
4585,-0.115,-0.045
4586,-0.115,-0.045
4587,-0.130,-0.040
4588,-0.145,-0.035
4589,-0.145,-0.045
4590,-0.145,-0.055
4591,-0.145,-0.055
4592,-0.145,-0.055
4593,-0.145,-0.050
4594,-0.145,-0.045
4595,-0.150,-0.050
4596,-0.155,-0.055
4597,-0.160,-0.065
4598,-0.165,-0.075
4599,-0.165,-0.070
4600,-0.165,-0.065
4601,-0.165,-0.060
4602,-0.165,-0.055
4603,-0.170,-0.060
4604,-0.175,-0.065
4605,-0.170,-0.065
4606,-0.160,-0.065
4607,-0.145,-0.060
4608,-0.125,-0.045
4609,-0.105,-0.015
4610,-0.095,0.000
4611,-0.100,0.015
4612,-0.095,0.025
4613,-0.075,0.030
4614,-0.035,0.035
4615,0.010,0.035
4616,0.015,0.025
4617,0.000,0.010
4618,-0.050,-0.040
4619,-0.105,-0.095
4620,-0.120,-0.105
4621,-0.130,-0.110
4622,-0.135,-0.110
4623,-0.135,-0.100
4624,-0.140,-0.095
4625,-0.135,-0.095
4626,-0.170,-0.090
4627,-0.185,-0.095
4628,-0.205,-0.110
4629,-0.225,-0.125
4630,-0.220,-0.125
4631,-0.215,-0.125
4632,-0.210,-0.115
4633,-0.205,-0.105
4634,-0.200,-0.105
4635,-0.195,-0.105
4636,-0.195,-0.105
4637,-0.190,-0.105
4638,-0.160,-0.100
4639,-0.160,-0.090
4640,-0.240,-0.075
4641,-0.360,-0.045
4642,-0.540,0.010
4643,-0.630,0.090
4644,-0.590,0.195
4645,-0.320,0.290
4646,0.215,0.375
4647,0.965,0.395
4648,1.925,0.355
4649,2.580,0.145
4650,3.000,-0.190
4651,3.035,-0.520
4652,2.820,-0.840
4653,2.110,-0.935
4654,1.135,-0.905
4655,0.525,-0.750
4656,0.065,-0.540
4657,-0.140,-0.380
4658,-0.260,-0.235
4659,-0.290,-0.140
4660,-0.300,-0.060
4661,-0.310,-0.045
4662,-0.320,-0.045
4663,-0.320,-0.045
4664,-0.310,-0.050
4665,-0.310,-0.055
4666,-0.320,-0.060
4667,-0.325,-0.065
4668,-0.325,-0.065
4669,-0.325,-0.065
4670,-0.325,-0.065
4671,-0.325,-0.060
4672,-0.325,-0.055
4673,-0.330,-0.060
4674,-0.335,-0.065
4675,-0.335,-0.065
4676,-0.335,-0.065
4677,-0.325,-0.065
4678,-0.315,-0.065
4679,-0.310,-0.055
4680,-0.305,-0.045
4681,-0.305,-0.055
4682,-0.305,-0.065
4683,-0.310,-0.065
4684,-0.315,-0.065
4685,-0.310,-0.070
4686,-0.305,-0.075
4687,-0.295,-0.070
4688,-0.280,-0.065
4689,-0.270,-0.070
4690,-0.265,-0.080
4691,-0.270,-0.090
4692,-0.270,-0.095
4693,-0.260,-0.095
4694,-0.250,-0.095
4695,-0.240,-0.100
4696,-0.230,-0.110
4697,-0.220,-0.120
4698,-0.210,-0.125
4699,-0.200,-0.130
4700,-0.180,-0.135
4701,-0.160,-0.140
4702,-0.145,-0.145
4703,-0.130,-0.145
4704,-0.115,-0.145
4705,-0.100,-0.150
4706,-0.080,-0.155
4707,-0.060,-0.155
4708,-0.035,-0.155
4709,-0.005,-0.155
4710,0.020,-0.150
4711,0.045,-0.145
4712,0.060,-0.145
4713,0.075,-0.145
4714,0.085,-0.140
4715,0.095,-0.135
4716,0.100,-0.120
4717,0.105,-0.105
4718,0.095,-0.090
4719,0.085,-0.075
4720,0.070,-0.060
4721,0.055,-0.045
4722,0.040,-0.040
4723,0.020,-0.030
4724,-0.005,-0.015
4725,-0.030,-0.005
4726,-0.050,0.005
4727,-0.070,0.015
4728,-0.090,0.015
4729,-0.110,0.015
4730,-0.125,0.000
4731,-0.140,0.000
4732,-0.150,0.010
4733,-0.155,0.015
4734,-0.150,0.020
4735,-0.145,0.025
4736,-0.145,0.020
4737,-0.140,0.015
4738,-0.130,0.010
4739,-0.125,0.005
4740,-0.125,0.005
4741,-0.125,0.005
4742,-0.125,0.005
4743,-0.125,0.005
4744,-0.130,0.005
4745,-0.125,0.005
4746,-0.110,0.000
4747,-0.095,-0.005
4748,-0.080,-0.005
4749,-0.075,-0.005
4750,-0.075,-0.005
4751,-0.090,0.005
4752,-0.095,0.005
4753,-0.095,0.000
4754,-0.095,-0.005
4755,-0.090,-0.005
4756,-0.085,-0.005
4757,-0.090,0.005
4758,-0.095,0.015
4759,-0.100,0.005
4760,-0.105,-0.005
4761,-0.110,-0.005
4762,-0.115,-0.005
4763,-0.115,0.000
4764,-0.115,0.005
4765,-0.125,0.005
4766,-0.135,0.005
4767,-0.135,0.000
4768,-0.135,-0.005
4769,-0.145,-0.010
4770,-0.155,-0.015
4771,-0.160,-0.015
4772,-0.165,-0.015
4773,-0.160,-0.015
4774,-0.155,-0.015
4775,-0.160,-0.015
4776,-0.165,-0.015
4777,-0.170,-0.020
4778,-0.175,-0.025
4779,-0.170,-0.020
4780,-0.165,-0.015
4781,-0.160,-0.015
4782,-0.160,-0.015
4783,-0.170,-0.015
4784,-0.175,-0.025
4785,-0.170,-0.040
4786,-0.160,-0.030
4787,-0.150,-0.010
4788,-0.145,0.010
4789,-0.140,0.030
4790,-0.140,0.035
4791,-0.150,0.040
4792,-0.135,0.045
4793,-0.115,0.045
4794,-0.065,0.055
4795,-0.015,0.065
4796,-0.025,0.050
4797,-0.035,0.030
4798,-0.075,-0.020
4799,-0.105,-0.065
4800,-0.125,-0.075
4801,-0.145,-0.085
4802,-0.150,-0.075
4803,-0.155,-0.065
4804,-0.155,-0.055
4805,-0.160,-0.045
4806,-0.180,-0.055
4807,-0.200,-0.065
4808,-0.220,-0.070
4809,-0.230,-0.075
4810,-0.215,-0.075
4811,-0.205,-0.075
4812,-0.200,-0.070
4813,-0.195,-0.065
4814,-0.190,-0.070
4815,-0.185,-0.075
4816,-0.185,-0.070
4817,-0.165,-0.065
4818,-0.130,-0.060
4819,-0.180,-0.040
4820,-0.290,-0.015
4821,-0.440,0.035
4822,-0.610,0.095
4823,-0.590,0.205
4824,-0.500,0.335
4825,0.110,0.385
4826,0.865,0.410
4827,1.710,0.315
4828,2.575,0.195
4829,2.985,-0.165
4830,3.325,-0.550
4831,2.765,-0.745
4832,2.125,-0.915
4833,1.270,-0.825
4834,0.415,-0.715
4835,0.120,-0.500
4836,-0.155,-0.290
4837,-0.230,-0.165
4838,-0.295,-0.055
4839,-0.300,-0.025
4840,-0.305,0.005
4841,-0.305,-0.005
4842,-0.305,-0.015
4843,-0.305,-0.015
4844,-0.305,-0.015
4845,-0.310,-0.020
4846,-0.315,-0.025
4847,-0.315,-0.025
4848,-0.315,-0.025
4849,-0.320,-0.020
4850,-0.325,-0.015
4851,-0.325,-0.010
4852,-0.325,-0.005
4853,-0.330,-0.015
4854,-0.335,-0.025
4855,-0.330,-0.020
4856,-0.325,-0.015
4857,-0.320,-0.015
4858,-0.315,-0.015
4859,-0.310,-0.010
4860,-0.305,-0.005
4861,-0.305,-0.010
4862,-0.305,-0.020
4863,-0.310,-0.030
4864,-0.310,-0.035
4865,-0.300,-0.030
4866,-0.295,-0.025
4867,-0.290,-0.025
4868,-0.285,-0.025
4869,-0.285,-0.030
4870,-0.285,-0.040
4871,-0.285,-0.050
4872,-0.275,-0.055
4873,-0.260,-0.055
4874,-0.255,-0.055
4875,-0.255,-0.055
4876,-0.230,-0.070
4877,-0.215,-0.075
4878,-0.205,-0.090
4879,-0.195,-0.105
4880,-0.175,-0.110
4881,-0.155,-0.115
4882,-0.140,-0.110
4883,-0.125,-0.105
4884,-0.110,-0.115
4885,-0.095,-0.125
4886,-0.080,-0.130
4887,-0.060,-0.135
4888,-0.030,-0.130
4889,0.000,-0.125
4890,0.025,-0.115
4891,0.050,-0.105
4892,0.065,-0.105
4893,0.075,-0.105
4894,0.085,-0.100
4895,0.095,-0.090
4896,0.110,-0.075
4897,0.110,-0.060
4898,0.100,-0.045
4899,0.085,-0.030
4900,0.055,-0.015
4901,0.040,-0.005
4902,0.025,0.000
4903,0.000,0.010
4904,-0.025,0.020
4905,-0.045,0.030
4906,-0.065,0.040
4907,-0.090,0.045
4908,-0.110,0.045
4909,-0.115,0.040
4910,-0.120,0.030
4911,-0.125,0.025
4912,-0.130,0.030
4913,-0.135,0.035
4914,-0.130,0.035
4915,-0.125,0.035
4916,-0.130,0.030
4917,-0.130,0.020
4918,-0.125,0.015
4919,-0.125,0.020
4920,-0.125,0.025
4921,-0.115,0.030
4922,-0.105,0.035
4923,-0.105,0.030
4924,-0.105,0.025
4925,-0.100,0.020
4926,-0.095,0.015
4927,-0.095,0.020
4928,-0.095,0.025
4929,-0.095,0.025
4930,-0.095,0.025
4931,-0.095,0.020
4932,-0.095,0.015
4933,-0.095,0.015
4934,-0.095,0.015
4935,-0.095,0.010
4936,-0.095,0.005
4937,-0.095,0.010
4938,-0.095,0.015
4939,-0.100,0.015
4940,-0.105,0.015
4941,-0.110,0.010
4942,-0.115,0.005
4943,-0.120,0.005
4944,-0.125,0.005
4945,-0.120,0.010
4946,-0.115,0.015
4947,-0.120,0.010
4948,-0.135,0.005
4949,-0.150,0.000
4950,-0.155,-0.005
4951,-0.150,-0.005
4952,-0.145,-0.005
4953,-0.150,0.000
4954,-0.155,0.005
4955,-0.160,0.005
4956,-0.165,0.000
4957,-0.170,-0.010
4958,-0.175,-0.015
4959,-0.175,-0.005
4960,-0.170,0.000
4961,-0.165,0.005
4962,-0.175,0.000
4963,-0.185,-0.005
4964,-0.185,-0.015
4965,-0.185,-0.025
4966,-0.185,-0.010
4967,-0.185,0.005
4968,-0.180,0.010
4969,-0.175,0.015
4970,-0.180,0.030
4971,-0.185,0.045
4972,-0.175,0.045
4973,-0.150,0.045
4974,-0.105,0.045
4975,-0.075,0.045
4976,-0.065,0.035
4977,-0.075,0.005
4978,-0.125,-0.040
4979,-0.160,-0.065
4980,-0.175,-0.080
4981,-0.185,-0.080
4982,-0.180,-0.065
4983,-0.175,-0.050
4984,-0.180,-0.035
4985,-0.195,-0.030
4986,-0.215,-0.040
4987,-0.225,-0.045
4988,-0.230,-0.045
4989,-0.230,-0.045
4990,-0.220,-0.050
4991,-0.210,-0.055
4992,-0.200,-0.055
4993,-0.195,-0.055
4994,-0.190,-0.055
4995,-0.175,-0.055
4996,-0.160,-0.050
4997,-0.195,-0.045
4998,-0.240,-0.040
4999,-0.415,0.020
5000,-0.245,-0.035
5001,-0.580,0.195
5002,-0.540,0.305
5003,0.015,0.355
5004,0.610,0.405
5005,1.525,0.370
5006,2.375,0.295
5007,2.830,-0.025
5008,3.145,-0.335
5009,2.805,-0.605
5010,2.320,-0.810
5011,1.355,-0.775
5012,0.550,-0.690
5013,0.170,-0.480
5014,-0.115,-0.290
5015,-0.210,-0.145
5016,-0.275,-0.040
5017,-0.285,0.000
5018,-0.295,0.020
5019,-0.305,0.000
5020,-0.315,-0.015
5021,-0.315,-0.010
5022,-0.315,-0.005
5023,-0.315,-0.010
5024,-0.315,-0.015
5025,-0.315,-0.015
5026,-0.315,-0.020
5027,-0.320,-0.030
5028,-0.325,-0.025
5029,-0.325,-0.010
5030,-0.325,-0.005
5031,-0.320,-0.005
5032,-0.315,-0.005
5033,-0.320,-0.010
5034,-0.330,-0.015
5035,-0.340,-0.020
5036,-0.345,-0.025
5037,-0.345,-0.025
5038,-0.345,-0.025
5039,-0.340,-0.020
5040,-0.335,-0.015
5041,-0.335,-0.020
5042,-0.325,-0.035
5043,-0.315,-0.045
5044,-0.315,-0.045
5045,-0.315,-0.045
5046,-0.305,-0.050
5047,-0.295,-0.055
5048,-0.295,-0.065
5049,-0.295,-0.075
5050,-0.290,-0.075
5051,-0.285,-0.075
5052,-0.280,-0.085
5053,-0.275,-0.095
5054,-0.260,-0.095
5055,-0.245,-0.095
5056,-0.240,-0.105
5057,-0.235,-0.115
5058,-0.225,-0.120
5059,-0.205,-0.125
5060,-0.180,-0.135
5061,-0.160,-0.145
5062,-0.140,-0.140
5063,-0.120,-0.135
5064,-0.105,-0.140
5065,-0.085,-0.145
5066,-0.060,-0.145
5067,-0.040,-0.145
5068,-0.025,-0.145
5069,-0.010,-0.140
5070,0.000,-0.130
5071,0.015,-0.125
5072,0.035,-0.125
5073,0.045,-0.120
5074,0.045,-0.110
5075,0.045,-0.095
5076,0.050,-0.080
5077,0.045,-0.065
5078,0.030,-0.050
5079,0.010,-0.040
5080,-0.010,-0.030
5081,-0.035,-0.020
5082,-0.060,-0.010
5083,-0.080,-0.005
5084,-0.105,0.005
5085,-0.125,0.010
5086,-0.145,0.015
5087,-0.155,0.015
5088,-0.165,0.015
5089,-0.165,0.015
5090,-0.165,0.015
5091,-0.165,0.010
5092,-0.165,0.005
5093,-0.170,0.005
5094,-0.175,0.005
5095,-0.180,0.000
5096,-0.185,-0.005
5097,-0.180,-0.010
5098,-0.175,-0.015
5099,-0.170,-0.010
5100,-0.160,-0.005
5101,-0.145,-0.005
5102,-0.135,-0.005
5103,-0.140,-0.010
5104,-0.145,-0.015
5105,-0.140,-0.015
5106,-0.135,-0.015
5107,-0.140,-0.015
5108,-0.140,-0.015
5109,-0.130,-0.015
5110,-0.125,-0.015
5111,-0.130,-0.020
5112,-0.135,-0.025
5113,-0.140,-0.020
5114,-0.145,-0.015
5115,-0.150,-0.020
5116,-0.155,-0.020
5117,-0.155,-0.010
5118,-0.155,-0.005
5119,-0.155,-0.010
5120,-0.155,-0.015
5121,-0.155,-0.020
5122,-0.165,-0.025
5123,-0.180,-0.030
5124,-0.185,-0.030
5125,-0.185,-0.035
5126,-0.180,-0.025
5127,-0.185,-0.035
5128,-0.190,-0.035
5129,-0.195,-0.035
5130,-0.195,-0.035
5131,-0.195,-0.035
5132,-0.200,-0.030
5133,-0.205,-0.025
5134,-0.200,-0.035
5135,-0.195,-0.045
5136,-0.200,-0.045
5137,-0.205,-0.045
5138,-0.205,-0.045
5139,-0.205,-0.045
5140,-0.200,-0.050
5141,-0.195,-0.055
5142,-0.195,-0.050
5143,-0.195,-0.045
5144,-0.205,-0.055
5145,-0.215,-0.065
5146,-0.210,-0.060
5147,-0.205,-0.050
5148,-0.205,-0.040
5149,-0.205,-0.035
5150,-0.210,-0.040
5151,-0.215,-0.040
5152,-0.215,-0.030
5153,-0.205,-0.020
5154,-0.185,-0.010
5155,-0.140,0.005
5156,-0.090,0.025
5157,-0.070,0.015
5158,-0.060,-0.015
5159,-0.095,-0.060
5160,-0.155,-0.105
5161,-0.175,-0.115
5162,-0.190,-0.120
5163,-0.195,-0.115
5164,-0.195,-0.100
5165,-0.195,-0.095
5166,-0.200,-0.090
5167,-0.225,-0.090
5168,-0.245,-0.095
5169,-0.250,-0.100
5170,-0.255,-0.105
5171,-0.245,-0.095
5172,-0.235,-0.085
5173,-0.230,-0.095
5174,-0.225,-0.105
5175,-0.220,-0.100
5176,-0.215,-0.095
5177,-0.195,-0.090
5178,-0.180,-0.085
5179,-0.205,-0.075
5180,-0.280,-0.060
5181,-0.460,-0.025
5182,-0.580,0.025
5183,-0.600,0.125
5184,-0.410,0.220
5185,0.105,0.320
5186,0.815,0.385
5187,1.765,0.415
5188,2.475,0.300
5189,2.935,0.030
5190,3.000,-0.275
5191,2.735,-0.615
5192,2.055,-0.765
5193,1.095,-0.785
5194,0.460,-0.690
5195,0.010,-0.520
5196,-0.190,-0.370
5197,-0.280,-0.235
5198,-0.315,-0.145
5199,-0.330,-0.075
5200,-0.335,-0.055
5201,-0.335,-0.060
5202,-0.335,-0.065
5203,-0.340,-0.065
5204,-0.345,-0.065
5205,-0.340,-0.070
5206,-0.340,-0.075
5207,-0.350,-0.080
5208,-0.355,-0.085
5209,-0.365,-0.075
5210,-0.360,-0.080
5211,-0.355,-0.085
5212,-0.355,-0.085
5213,-0.355,-0.085
5214,-0.360,-0.085
5215,-0.365,-0.085
5216,-0.355,-0.085
5217,-0.345,-0.085
5218,-0.340,-0.085
5219,-0.335,-0.085
5220,-0.340,-0.090
5221,-0.345,-0.095
5222,-0.345,-0.100
5223,-0.345,-0.105
5224,-0.340,-0.105
5225,-0.335,-0.105
5226,-0.325,-0.110
5227,-0.315,-0.115
5228,-0.315,-0.120
5229,-0.315,-0.125
5230,-0.315,-0.140
5231,-0.315,-0.145
5232,-0.310,-0.140
5233,-0.300,-0.135
5234,-0.285,-0.140
5235,-0.275,-0.150
5236,-0.270,-0.165
5237,-0.255,-0.175
5238,-0.240,-0.180
5239,-0.225,-0.185
5240,-0.210,-0.190
5241,-0.190,-0.195
5242,-0.170,-0.200
5243,-0.160,-0.210
5244,-0.150,-0.220
5245,-0.130,-0.225
5246,-0.110,-0.225
5247,-0.085,-0.225
5248,-0.060,-0.220
5249,-0.040,-0.215
5250,-0.055,-0.215
5251,0.000,-0.210
5252,0.015,-0.215
5253,0.030,-0.210
5254,0.045,-0.205
5255,0.055,-0.190
5256,0.065,-0.175
5257,0.065,-0.155
5258,0.065,-0.135
5259,0.050,-0.125
5260,0.030,-0.115
5261,0.005,-0.100
5262,-0.020,-0.085
5263,-0.040,-0.075
5264,-0.060,-0.060
5265,-0.075,-0.045
5266,-0.090,-0.035
5267,-0.105,-0.040
5268,-0.120,-0.045
5269,-0.135,-0.040
5270,-0.145,-0.035
5271,-0.150,-0.035
5272,-0.155,-0.035
5273,-0.155,-0.040
5274,-0.155,-0.045
5275,-0.155,-0.045
5276,-0.155,-0.045
5277,-0.155,-0.050
5278,-0.155,-0.055
5279,-0.150,-0.050
5280,-0.145,-0.045
5281,-0.140,-0.045
5282,-0.135,-0.045
5283,-0.135,-0.045
5284,-0.135,-0.045
5285,-0.130,-0.050
5286,-0.125,-0.055
5287,-0.120,-0.050
5288,-0.115,-0.045
5289,-0.110,-0.045
5290,-0.105,-0.045
5291,-0.110,-0.050
5292,-0.115,-0.060
5293,-0.115,-0.065
5294,-0.115,-0.060
5295,-0.115,-0.055
5296,-0.115,-0.050
5297,-0.115,-0.045
5298,-0.120,-0.055
5299,-0.125,-0.065
5300,-0.125,-0.065
5301,-0.125,-0.065
5302,-0.125,-0.065
5303,-0.125,-0.065
5304,-0.125,-0.065
5305,-0.125,-0.065
5306,-0.130,-0.070
5307,-0.135,-0.075
5308,-0.145,-0.080
5309,-0.155,-0.085
5310,-0.155,-0.080
5311,-0.155,-0.075
5312,-0.155,-0.075
5313,-0.155,-0.075
5314,-0.155,-0.080
5315,-0.155,-0.085
5316,-0.155,-0.085
5317,-0.155,-0.085
5318,-0.160,-0.085
5319,-0.165,-0.080
5320,-0.165,-0.070
5321,-0.165,-0.065
5322,-0.160,-0.070
5323,-0.155,-0.080
5324,-0.160,-0.090
5325,-0.165,-0.095
5326,-0.160,-0.100
5327,-0.155,-0.090
5328,-0.155,-0.070
5329,-0.155,-0.065
5330,-0.155,-0.070
5331,-0.155,-0.075
5332,-0.160,-0.070
5333,-0.165,-0.060
5334,-0.165,-0.045
5335,-0.130,-0.030
5336,-0.095,-0.015
5337,-0.050,-0.025
5338,-0.005,-0.035
5339,-0.035,-0.070
5340,-0.070,-0.105
5341,-0.110,-0.130
5342,-0.145,-0.155
5343,-0.150,-0.150
5344,-0.155,-0.145
5345,-0.155,-0.135
5346,-0.160,-0.125
5347,-0.180,-0.130
5348,-0.195,-0.135
5349,-0.195,-0.130
5350,-0.190,-0.125
5351,-0.175,-0.130
5352,-0.165,-0.135
5353,-0.170,-0.140
5354,-0.175,-0.145
5355,-0.170,-0.145
5356,-0.160,-0.140
5357,-0.150,-0.130
5358,-0.135,-0.125
5359,-0.115,-0.120
5360,-0.190,-0.105
5361,-0.335,-0.085
5362,-0.485,-0.035
5363,-0.640,0.025
5364,-0.535,0.140
5365,-0.320,0.280
5366,0.465,0.360
5367,1.425,0.420
5368,2.155,0.315
5369,2.835,0.160
5370,3.100,-0.190
5371,3.295,-0.565
5372,2.535,-0.770
5373,1.670,-0.955
5374,0.920,-0.865
5375,1.625,-0.965
5376,-0.010,-0.570
5377,-0.195,-0.380
5378,-0.235,-0.255
5379,-0.275,-0.135
5380,-0.275,-0.095
5381,-0.275,-0.055
5382,-0.280,-0.065
5383,-0.285,-0.075
5384,-0.290,-0.085
5385,-0.295,-0.095
5386,-0.300,-0.100
5387,-0.305,-0.105
5388,-0.300,-0.100
5389,-0.295,-0.095
5390,-0.295,-0.095
5391,-0.295,-0.095
5392,-0.295,-0.095
5393,-0.295,-0.095
5394,-0.305,-0.100
5395,-0.315,-0.105
5396,-0.310,-0.100
5397,-0.305,-0.095
5398,-0.300,-0.095
5399,-0.295,-0.095
5400,-0.300,-0.100
5401,-0.305,-0.105
5402,-0.300,-0.110
5403,-0.295,-0.115
5404,-0.295,-0.110
5405,-0.295,-0.105
5406,-0.290,-0.105
5407,-0.285,-0.105
5408,-0.290,-0.110
5409,-0.290,-0.125
5410,-0.280,-0.140
5411,-0.275,-0.145
5412,-0.275,-0.140
5413,-0.265,-0.135
5414,-0.250,-0.140
5415,-0.245,-0.150
5416,-0.240,-0.160
5417,-0.230,-0.175
5418,-0.225,-0.185
5419,-0.215,-0.190
5420,-0.205,-0.195
5421,-0.180,-0.195
5422,-0.155,-0.195
5423,-0.150,-0.205
5424,-0.145,-0.215
5425,-0.125,-0.220
5426,-0.105,-0.225
5427,-0.090,-0.230
5428,-0.070,-0.235
5429,-0.045,-0.225
5430,-0.025,-0.215
5431,-0.005,-0.220
5432,0.010,-0.225
5433,0.025,-0.220
5434,0.040,-0.215
5435,0.055,-0.210
5436,0.065,-0.200
5437,0.070,-0.180
5438,0.075,-0.160
5439,0.080,-0.145
5440,0.075,-0.130
5441,0.055,-0.115
5442,0.040,-0.100
5443,0.025,-0.090
5444,0.000,-0.075
5445,-0.025,-0.055
5446,-0.045,-0.045
5447,-0.065,-0.045
5448,-0.085,-0.045
5449,-0.100,-0.050
5450,-0.110,-0.050
5451,-0.120,-0.040
5452,-0.125,-0.035
5453,-0.130,-0.035
5454,-0.135,-0.035
5455,-0.135,-0.035
5456,-0.135,-0.035
5457,-0.135,-0.040
5458,-0.135,-0.045
5459,-0.125,-0.045
5460,-0.120,-0.040
5461,-0.115,-0.035
5462,-0.115,-0.040
5463,-0.115,-0.045
5464,-0.110,-0.045
5465,-0.105,-0.045
5466,-0.105,-0.050
5467,-0.105,-0.055
5468,-0.100,-0.055
5469,-0.095,-0.055
5470,-0.095,-0.055
5471,-0.095,-0.055
5472,-0.095,-0.060
5473,-0.095,-0.065
5474,-0.095,-0.060
5475,-0.095,-0.055
5476,-0.090,-0.055
5477,-0.085,-0.055
5478,-0.095,-0.055
5479,-0.105,-0.055
5480,-0.110,-0.060
5481,-0.115,-0.065
5482,-0.115,-0.065
5483,-0.115,-0.065
5484,-0.115,-0.060
5485,-0.120,-0.055
5486,-0.130,-0.055
5487,-0.135,-0.055
5488,-0.140,-0.060
5489,-0.145,-0.065
5490,-0.150,-0.065
5491,-0.155,-0.065
5492,-0.150,-0.065
5493,-0.145,-0.065
5494,-0.150,-0.065
5495,-0.160,-0.065
5496,-0.170,-0.070
5497,-0.175,-0.075
5498,-0.170,-0.075
5499,-0.165,-0.075
5500,-0.165,-0.075
5501,-0.160,-0.070
5502,-0.165,-0.075
5503,-0.165,-0.080
5504,-0.165,-0.085
5505,-0.165,-0.080
5506,-0.165,-0.075
5507,-0.165,-0.075
5508,-0.165,-0.075
5509,-0.165,-0.080
5510,-0.165,-0.085
5511,-0.175,-0.095
5512,-0.185,-0.105
5513,-0.180,-0.100
5514,-0.175,-0.095
5515,-0.175,-0.085
5516,-0.175,-0.075
5517,-0.175,-0.080
5518,-0.175,-0.085
5519,-0.175,-0.095
5520,-0.175,-0.105
5521,-0.170,-0.090
5522,-0.165,-0.080
5523,-0.160,-0.070
5524,-0.155,-0.065
5525,-0.150,-0.065
5526,-0.145,-0.060
5527,-0.150,-0.050
5528,-0.145,-0.045
5529,-0.125,-0.040
5530,-0.090,-0.035
5531,-0.055,-0.030
5532,-0.060,-0.050
5533,-0.080,-0.085
5534,-0.105,-0.115
5535,-0.140,-0.140
5536,-0.150,-0.145
5537,-0.160,-0.140
5538,-0.165,-0.130
5539,-0.160,-0.120
5540,-0.165,-0.115
5541,-0.180,-0.110
5542,-0.200,-0.115
5543,-0.215,-0.125
5544,-0.210,-0.120
5545,-0.205,-0.115
5546,-0.195,-0.110
5547,-0.185,-0.105
5548,-0.180,-0.110
5549,-0.175,-0.115
5550,-0.165,-0.115
5551,-0.150,-0.115
5552,-0.125,-0.110
5553,-0.140,-0.100
5554,-0.275,-0.070
5555,-0.420,-0.030
5556,-0.580,0.035
5557,-0.610,0.120
5558,-0.390,0.245
5559,0.115,0.325
5560,1.030,0.335
5561,1.850,0.275
5562,2.545,0.110
5563,3.005,-0.150
5564,3.225,-0.510
5565,2.900,-0.740
5566,2.115,-0.865
5567,1.350,-0.850
5568,0.600,-0.740
5569,0.175,-0.570
5570,-0.065,-0.370
5571,-0.190,-0.225
5572,-0.255,-0.110
5573,-0.285,-0.065
5574,-0.300,-0.050
5575,-0.305,-0.050
5576,-0.305,-0.060
5577,-0.305,-0.065
5578,-0.310,-0.065
5579,-0.315,-0.065
5580,-0.315,-0.070
5581,-0.315,-0.075
5582,-0.320,-0.075
5583,-0.325,-0.075
5584,-0.315,-0.065
5585,-0.310,-0.065
5586,-0.305,-0.065
5587,-0.310,-0.065
5588,-0.315,-0.065
5589,-0.320,-0.070
5590,-0.325,-0.075
5591,-0.320,-0.070
5592,-0.315,-0.065
5593,-0.315,-0.065
5594,-0.315,-0.065
5595,-0.315,-0.065
5596,-0.315,-0.065
5597,-0.315,-0.070
5598,-0.315,-0.075
5599,-0.310,-0.075
5600,-0.305,-0.075
5601,-0.295,-0.075
5602,-0.285,-0.075
5603,-0.285,-0.085
5604,-0.285,-0.095
5605,-0.280,-0.110
5606,-0.275,-0.115
5607,-0.270,-0.115
5608,-0.260,-0.115
5609,-0.245,-0.115
5610,-0.235,-0.115
5611,-0.230,-0.120
5612,-0.215,-0.130
5613,-0.200,-0.140
5614,-0.185,-0.145
5615,-0.160,-0.150
5616,-0.140,-0.155
5617,-0.110,-0.155
5618,-0.105,-0.155
5619,-0.100,-0.160
5620,-0.075,-0.165
5621,-0.050,-0.170
5622,-0.030,-0.175
5623,-0.010,-0.175
5624,0.010,-0.165
5625,-0.005,-0.175
5626,0.050,-0.145
5627,0.065,-0.145
5628,0.080,-0.140
5629,0.095,-0.135
5630,0.105,-0.130
5631,0.115,-0.125
5632,0.110,-0.105
5633,0.100,-0.085
5634,0.070,-0.075
5635,0.045,-0.065
5636,0.020,-0.055
5637,0.005,-0.045
5638,-0.010,-0.035
5639,-0.030,-0.025
5640,-0.050,-0.020
5641,-0.070,-0.015
5642,-0.090,-0.015
5643,-0.105,-0.015
5644,-0.115,-0.015
5645,-0.125,-0.015
5646,-0.130,-0.015
5647,-0.135,-0.015
5648,-0.135,-0.015
5649,-0.135,-0.015
5650,-0.130,-0.020
5651,-0.125,-0.025
5652,-0.130,-0.025
5653,-0.135,-0.025
5654,-0.130,-0.025
5655,-0.125,-0.025
5656,-0.125,-0.020
5657,-0.125,-0.015
5658,-0.125,-0.020
5659,-0.125,-0.025
5660,-0.125,-0.030
5661,-0.125,-0.035
5662,-0.125,-0.030
5663,-0.125,-0.025
5664,-0.125,-0.025
5665,-0.125,-0.025
5666,-0.130,-0.030
5667,-0.130,-0.040
5668,-0.125,-0.045
5669,-0.125,-0.040
5670,-0.125,-0.035
5671,-0.120,-0.030
5672,-0.115,-0.025
5673,-0.120,-0.030
5674,-0.125,-0.035
5675,-0.125,-0.040
5676,-0.125,-0.045
5677,-0.130,-0.040
5678,-0.135,-0.035
5679,-0.130,-0.030
5680,-0.125,-0.025
5681,-0.145,-0.035
5682,-0.155,-0.045
5683,-0.160,-0.050
5684,-0.165,-0.055
5685,-0.170,-0.050
5686,-0.175,-0.045
5687,-0.175,-0.040
5688,-0.175,-0.035
5689,-0.180,-0.040
5690,-0.185,-0.045
5691,-0.190,-0.050
5692,-0.195,-0.055
5693,-0.195,-0.060
5694,-0.195,-0.065
5695,-0.195,-0.060
5696,-0.195,-0.055
5697,-0.195,-0.060
5698,-0.195,-0.065
5699,-0.200,-0.070
5700,-0.205,-0.075
5701,-0.205,-0.075
5702,-0.205,-0.070
5703,-0.200,-0.060
5704,-0.195,-0.060
5705,-0.195,-0.070
5706,-0.195,-0.075
5707,-0.190,-0.075
5708,-0.185,-0.075
5709,-0.185,-0.075
5710,-0.185,-0.070
5711,-0.185,-0.065
5712,-0.190,-0.070
5713,-0.195,-0.075
5714,-0.195,-0.075
5715,-0.195,-0.075
5716,-0.195,-0.075
5717,-0.195,-0.075
5718,-0.185,-0.070
5719,-0.175,-0.065
5720,-0.180,-0.070
5721,-0.185,-0.075
5722,-0.180,-0.075
5723,-0.175,-0.075
5724,-0.175,-0.065
5725,-0.175,-0.050
5726,-0.170,-0.035
5727,-0.165,-0.025
5728,-0.160,-0.020
5729,-0.145,-0.015
5730,-0.120,-0.015
5731,-0.095,-0.020
5732,-0.070,-0.035
5733,-0.070,-0.060
5734,-0.100,-0.090
5735,-0.130,-0.110
5736,-0.155,-0.120
5737,-0.165,-0.125
5738,-0.160,-0.120
5739,-0.160,-0.110
5740,-0.170,-0.100
5741,-0.180,-0.090
5742,-0.190,-0.080
5743,-0.205,-0.080
5744,-0.220,-0.090
5745,-0.220,-0.095
5746,-0.210,-0.095
5747,-0.205,-0.095
5748,-0.200,-0.095
5749,-0.190,-0.095
5750,-0.195,-0.095
5751,-0.165,-0.085
5752,-0.155,-0.085
5753,-0.135,-0.085
5754,-0.125,-0.085
5755,-0.285,-0.055
5756,-0.440,-0.020
5757,-0.565,0.050
5758,-0.620,0.125
5759,-0.380,0.230
5760,0.005,0.320
5761,0.870,0.350
5762,1.685,0.345
5763,2.365,0.240
5764,2.900,0.055
5765,3.140,-0.290
5766,3.025,-0.560
5767,2.290,-0.715
5768,1.535,-0.780
5769,0.755,-0.715
5770,0.225,-0.585
5771,-0.015,-0.390
5772,-0.165,-0.235
5773,-0.225,-0.110
5774,-0.260,-0.045
5775,-0.275,-0.025
5776,-0.290,-0.025
5777,-0.300,-0.045
5778,-0.305,-0.055
5779,-0.305,-0.055
5780,-0.305,-0.055
5781,-0.305,-0.055
5782,-0.305,-0.055
5783,-0.305,-0.060
5784,-0.305,-0.065
5785,-0.310,-0.065
5786,-0.315,-0.065
5787,-0.315,-0.060
5788,-0.315,-0.055
5789,-0.310,-0.055
5790,-0.305,-0.055
5791,-0.310,-0.060
5792,-0.320,-0.070
5793,-0.325,-0.075
5794,-0.325,-0.075
5795,-0.325,-0.075
5796,-0.315,-0.070
5797,-0.305,-0.065
5798,-0.310,-0.070
5799,-0.315,-0.075
5800,-0.310,-0.080
5801,-0.305,-0.085
5802,-0.300,-0.085
5803,-0.295,-0.085
5804,-0.285,-0.085
5805,-0.275,-0.085
5806,-0.280,-0.095
5807,-0.285,-0.105
5808,-0.280,-0.110
5809,-0.275,-0.115
5810,-0.265,-0.115
5811,-0.255,-0.115
5812,-0.245,-0.115
5813,-0.230,-0.120
5814,-0.220,-0.135
5815,-0.210,-0.150
5816,-0.195,-0.160
5817,-0.180,-0.165
5818,-0.165,-0.165
5819,-0.150,-0.165
5820,-0.130,-0.165
5821,-0.110,-0.165
5822,-0.085,-0.170
5823,-0.065,-0.175
5824,-0.050,-0.180
5825,-0.025,-0.185
5826,0.000,-0.180
5827,0.015,-0.170
5828,0.030,-0.160
5829,0.040,-0.155
5830,0.050,-0.155
5831,0.055,-0.150
5832,0.060,-0.140
5833,0.065,-0.125
5834,0.055,-0.105
5835,0.045,-0.090
5836,0.035,-0.075
5837,0.010,-0.065
5838,-0.015,-0.055
5839,-0.040,-0.050
5840,-0.065,-0.045
5841,-0.085,-0.035
5842,-0.105,-0.025
5843,-0.125,-0.020
5844,-0.145,-0.015
5845,-0.155,-0.015
5846,-0.165,-0.015
5847,-0.165,-0.025
5848,-0.165,-0.035
5849,-0.170,-0.030
5850,-0.175,-0.025
5851,-0.175,-0.025
5852,-0.175,-0.025
5853,-0.170,-0.025
5854,-0.165,-0.025
5855,-0.170,-0.040
5856,-0.175,-0.045
5857,-0.175,-0.045
5858,-0.170,-0.045
5859,-0.155,-0.040
5860,-0.150,-0.035
5861,-0.165,-0.040
5862,-0.175,-0.045
5863,-0.170,-0.045
5864,-0.165,-0.045
5865,-0.170,-0.050
5866,-0.170,-0.045
5867,-0.160,-0.030
5868,-0.155,-0.030
5869,-0.155,-0.040
5870,-0.155,-0.045
5871,-0.155,-0.045
5872,-0.155,-0.045
5873,-0.160,-0.045
5874,-0.165,-0.045
5875,-0.165,-0.045
5876,-0.165,-0.045
5877,-0.175,-0.055
5878,-0.170,-0.050
5879,-0.165,-0.045
5880,-0.175,-0.050
5881,-0.185,-0.055
5882,-0.185,-0.050
5883,-0.185,-0.045
5884,-0.185,-0.045
5885,-0.185,-0.045
5886,-0.190,-0.055
5887,-0.195,-0.065
5888,-0.190,-0.065
5889,-0.185,-0.065
5890,-0.195,-0.060
5891,-0.205,-0.055
5892,-0.205,-0.060
5893,-0.205,-0.065
5894,-0.205,-0.070
5895,-0.205,-0.075
5896,-0.200,-0.075
5897,-0.195,-0.075
5898,-0.200,-0.070
5899,-0.205,-0.065
5900,-0.205,-0.070
5901,-0.205,-0.075
5902,-0.205,-0.080
5903,-0.205,-0.085
5904,-0.205,-0.080
5905,-0.205,-0.075
5906,-0.200,-0.075
5907,-0.195,-0.075
5908,-0.190,-0.080
5909,-0.185,-0.085
5910,-0.190,-0.085
5911,-0.195,-0.085
5912,-0.200,-0.085
5913,-0.205,-0.085
5914,-0.200,-0.080
5915,-0.195,-0.075
5916,-0.190,-0.080
5917,-0.185,-0.090
5918,-0.185,-0.095
5919,-0.190,-0.085
5920,-0.195,-0.075
5921,-0.195,-0.075
5922,-0.195,-0.075
5923,-0.190,-0.080
5924,-0.185,-0.085
5925,-0.190,-0.080
5926,-0.195,-0.075
5927,-0.200,-0.070
5928,-0.205,-0.065
5929,-0.195,-0.055
5930,-0.185,-0.045
5931,-0.180,-0.040
5932,-0.165,-0.035
5933,-0.130,-0.030
5934,-0.100,-0.025
5935,-0.080,-0.035
5936,-0.075,-0.050
5937,-0.105,-0.065
5938,-0.135,-0.090
5939,-0.155,-0.120
5940,-0.170,-0.135
5941,-0.180,-0.135
5942,-0.185,-0.125
5943,-0.190,-0.105
5944,-0.200,-0.095
5945,-0.210,-0.095
5946,-0.210,-0.095
5947,-0.200,-0.100
5948,-0.195,-0.105
5949,-0.200,-0.105
5950,-0.200,-0.105
5951,-0.190,-0.110
5952,-0.180,-0.110
5953,-0.170,-0.100
5954,-0.160,-0.095
5955,-0.150,-0.095
5956,-0.145,-0.095
5957,-0.145,-0.095
5958,-0.300,-0.070
5959,-0.465,-0.035
5960,-0.555,0.040
5961,-0.625,0.120
5962,-0.265,0.240
5963,0.155,0.350
5964,1.105,0.430
5965,1.990,0.475
5966,2.540,0.320
5967,3.000,0.130
5968,3.080,-0.215
5969,2.930,-0.515
5970,2.070,-0.690
5971,1.270,-0.795
5972,0.605,-0.725
5973,0.100,-0.615
5974,-0.085,-0.430
5975,-0.215,-0.270
5976,-0.245,-0.155
5977,-0.265,-0.075
5978,-0.270,-0.045
5979,-0.275,-0.030
5980,-0.275,-0.055
5981,-0.280,-0.065
5982,-0.290,-0.070
5983,-0.290,-0.075
5984,-0.280,-0.070
5985,-0.275,-0.065
5986,-0.280,-0.070
5987,-0.285,-0.075
5988,-0.290,-0.075
5989,-0.295,-0.075
5990,-0.290,-0.080
5991,-0.285,-0.080
5992,-0.285,-0.070
5993,-0.290,-0.065
5994,-0.300,-0.065
5995,-0.305,-0.065
5996,-0.300,-0.070
5997,-0.295,-0.075
5998,-0.295,-0.080
5999,-0.290,-0.080
6000,-0.295,-0.085
6001,-0.285,-0.080
6002,-0.295,-0.095
6003,-0.295,-0.095
6004,-0.295,-0.095
6005,-0.290,-0.100
6006,-0.285,-0.105
6007,-0.270,-0.105
6008,-0.255,-0.105
6009,-0.255,-0.110
6010,-0.255,-0.115
6011,-0.265,-0.125
6012,-0.270,-0.135
6013,-0.250,-0.140
6014,-0.230,-0.145
6015,-0.215,-0.140
6016,-0.205,-0.140
6017,-0.195,-0.155
6018,-0.185,-0.165
6019,-0.180,-0.175
6020,-0.170,-0.185
6021,-0.155,-0.185
6022,-0.135,-0.185
6023,-0.115,-0.185
6024,-0.095,-0.185
6025,-0.075,-0.185
6026,-0.060,-0.190
6027,-0.045,-0.200
6028,-0.025,-0.205
6029,-0.005,-0.200
6030,0.020,-0.190
6031,0.045,-0.180
6032,0.060,-0.170
6033,0.070,-0.160
6034,0.080,-0.155
6035,0.090,-0.155
6036,0.095,-0.140
6037,0.095,-0.120
6038,0.095,-0.105
6039,0.095,-0.090
6040,0.070,-0.080
6041,0.040,-0.070
6042,0.010,-0.055
6043,-0.015,-0.045
6044,-0.035,-0.035
6045,-0.055,-0.025
6046,-0.070,-0.015
6047,-0.085,-0.005
6048,-0.100,-0.005
6049,-0.115,-0.005
6050,-0.120,-0.005
6051,-0.125,-0.005
6052,-0.130,-0.005
6053,-0.135,-0.005
6054,-0.130,0.000
6055,-0.125,0.005
6056,-0.125,-0.005
6057,-0.125,-0.015
6058,-0.125,-0.015
6059,-0.125,-0.015
6060,-0.120,-0.015
6061,-0.115,-0.015
6062,-0.110,-0.010
6063,-0.105,-0.005
6064,-0.110,-0.005
6065,-0.115,-0.005
6066,-0.115,-0.010
6067,-0.115,-0.015
6068,-0.110,-0.015
6069,-0.105,-0.015
6070,-0.100,-0.010
6071,-0.095,-0.005
6072,-0.095,-0.010
6073,-0.095,-0.015
6074,-0.100,-0.020
6075,-0.100,-0.025
6076,-0.090,-0.020
6077,-0.085,-0.015
6078,-0.090,-0.010
6079,-0.095,-0.005
6080,-0.095,-0.010
6081,-0.105,-0.015
6082,-0.120,-0.020
6083,-0.125,-0.025
6084,-0.125,-0.025
6085,-0.120,-0.020
6086,-0.115,-0.015
6087,-0.115,-0.015
6088,-0.115,-0.015
6089,-0.125,-0.025
6090,-0.135,-0.035
6091,-0.135,-0.030
6092,-0.135,-0.025
6093,-0.130,-0.025
6094,-0.125,-0.025
6095,-0.130,-0.030
6096,-0.135,-0.035
6097,-0.140,-0.040
6098,-0.145,-0.045
6099,-0.140,-0.040
6100,-0.135,-0.035
6101,-0.135,-0.035
6102,-0.135,-0.035
6103,-0.135,-0.040
6104,-0.135,-0.045
6105,-0.135,-0.060
6106,-0.135,-0.060
6107,-0.140,-0.050
6108,-0.140,-0.045
6109,-0.130,-0.040
6110,-0.125,-0.040
6111,-0.130,-0.050
6112,-0.135,-0.055
6113,-0.135,-0.055
6114,-0.135,-0.050
6115,-0.135,-0.040
6116,-0.135,-0.035
6117,-0.130,-0.035
6118,-0.125,-0.035
6119,-0.125,-0.040
6120,-0.125,-0.050
6121,-0.125,-0.060
6122,-0.125,-0.055
6123,-0.130,-0.040
6124,-0.130,-0.035
6125,-0.135,-0.035
6126,-0.125,-0.015
6127,-0.135,-0.005
6128,-0.110,-0.010
6129,-0.085,-0.015
6130,-0.045,-0.005
6131,-0.005,0.005
6132,-0.015,-0.015
6133,-0.030,-0.040
6134,-0.060,-0.070
6135,-0.085,-0.095
6136,-0.100,-0.095
6137,-0.115,-0.095
6138,-0.105,-0.095
6139,-0.100,-0.090
6140,-0.115,-0.075
6141,-0.130,-0.065
6142,-0.145,-0.070
6143,-0.155,-0.075
6144,-0.155,-0.080
6145,-0.155,-0.085
6146,-0.150,-0.085
6147,-0.140,-0.085
6148,-0.125,-0.080
6149,-0.115,-0.075
6150,-0.110,-0.075
6151,-0.100,-0.075
6152,-0.085,-0.075
6153,-0.110,-0.065
6154,-0.165,-0.050
6155,-0.320,-0.010
6156,-0.515,0.040
6157,-0.555,0.140
6158,-0.540,0.260
6159,-0.065,0.350
6160,0.530,0.430
6161,1.410,0.430
6162,2.340,0.410
6163,2.800,0.130
6164,3.200,-0.185
6165,3.080,-0.510
6166,2.920,-0.835
6167,2.010,-0.845
6168,1.100,-0.840
6169,0.595,-0.670
6170,0.115,-0.495
6171,-0.035,-0.330
6172,-0.165,-0.175
6173,-0.205,-0.090
6174,-0.235,-0.015
6175,-0.240,-0.010
6176,-0.245,-0.005
6177,-0.250,-0.015
6178,-0.255,-0.025
6179,-0.250,-0.025
6180,-0.245,-0.025
6181,-0.250,-0.035
6182,-0.255,-0.045
6183,-0.260,-0.040
6184,-0.265,-0.035
6185,-0.260,-0.030
6186,-0.255,-0.025
6187,-0.255,-0.025
6188,-0.255,-0.025
6189,-0.255,-0.025
6190,-0.255,-0.025
6191,-0.260,-0.025
6192,-0.265,-0.025
6193,-0.265,-0.025
6194,-0.265,-0.025
6195,-0.260,-0.025
6196,-0.255,-0.025
6197,-0.255,-0.030
6198,-0.255,-0.035
6199,-0.260,-0.035
6200,-0.265,-0.035
6201,-0.260,-0.035
6202,-0.255,-0.035
6203,-0.250,-0.040
6204,-0.245,-0.045
6205,-0.240,-0.045
6206,-0.235,-0.050
6207,-0.235,-0.060
6208,-0.230,-0.065
6209,-0.215,-0.075
6210,-0.205,-0.075
6211,-0.195,-0.075
6212,-0.190,-0.085
6213,-0.185,-0.095
6214,-0.170,-0.105
6215,-0.155,-0.115
6216,-0.145,-0.120
6217,-0.130,-0.125
6218,-0.105,-0.130
6219,-0.085,-0.135
6220,-0.075,-0.140
6221,-0.060,-0.145
6222,-0.040,-0.145
6223,-0.020,-0.145
6224,-0.005,-0.145
6225,0.015,-0.145
6226,0.040,-0.135
6227,0.055,-0.125
6228,0.065,-0.120
6229,0.075,-0.115
6230,0.090,-0.115
6231,0.095,-0.110
6232,0.100,-0.100
6233,0.105,-0.085
6234,0.105,-0.065
6235,0.095,-0.050
6236,0.075,-0.040
6237,0.055,-0.030
6238,0.035,-0.020
6239,0.010,-0.010
6240,-0.015,0.000
6241,-0.040,0.015
6242,-0.070,0.030
6243,-0.090,0.035
6244,-0.110,0.030
6245,-0.125,0.025
6246,-0.140,0.020
6247,-0.145,0.015
6248,-0.140,0.020
6249,-0.135,0.025
6250,-0.135,0.025
6251,-0.140,0.025
6252,-0.135,0.025
6253,-0.140,0.020
6254,-0.145,0.015
6255,-0.145,0.010
6256,-0.145,0.005
6257,-0.145,0.010
6258,-0.145,0.015
6259,-0.140,0.015
6260,-0.135,0.015
6261,-0.145,0.010
6262,-0.155,0.005
6263,-0.145,0.005
6264,-0.135,0.005
6265,-0.135,0.005
6266,-0.135,0.005
6267,-0.135,0.005
6268,-0.135,0.005
6269,-0.135,0.000
6270,-0.135,-0.005
6271,-0.130,-0.005
6272,-0.125,-0.005
6273,-0.125,-0.005
6274,-0.125,-0.005
6275,-0.125,-0.005
6276,-0.125,-0.005
6277,-0.130,-0.010
6278,-0.135,-0.015
6279,-0.130,-0.010
6280,-0.125,-0.005
6281,-0.125,-0.005
6282,-0.130,-0.005
6283,-0.140,-0.005
6284,-0.145,-0.010
6285,-0.145,-0.020
6286,-0.145,-0.025
6287,-0.150,-0.020
6288,-0.155,-0.015
6289,-0.155,-0.010
6290,-0.155,-0.005
6291,-0.160,-0.010
6292,-0.165,-0.020
6293,-0.165,-0.025
6294,-0.170,-0.025
6295,-0.175,-0.025
6296,-0.170,-0.025
6297,-0.165,-0.025
6298,-0.175,-0.030
6299,-0.185,-0.035
6300,-0.185,-0.035
6301,-0.185,-0.035
6302,-0.195,-0.030
6303,-0.205,-0.025
6304,-0.195,-0.030
6305,-0.185,-0.035
6306,-0.190,-0.040
6307,-0.195,-0.045
6308,-0.190,-0.050
6309,-0.185,-0.055
6310,-0.185,-0.050
6311,-0.185,-0.045
6312,-0.180,-0.045
6313,-0.175,-0.045
6314,-0.175,-0.050
6315,-0.175,-0.055
6316,-0.175,-0.055
6317,-0.175,-0.055
6318,-0.175,-0.055
6319,-0.175,-0.055
6320,-0.175,-0.050
6321,-0.175,-0.045
6322,-0.175,-0.050
6323,-0.175,-0.055
6324,-0.175,-0.055
6325,-0.175,-0.055
6326,-0.170,-0.055
6327,-0.165,-0.055
6328,-0.170,-0.055
6329,-0.175,-0.055
6330,-0.175,-0.050
6331,-0.175,-0.045
6332,-0.170,-0.040
6333,-0.165,-0.025
6334,-0.165,-0.005
6335,-0.155,0.000
6336,-0.145,0.005
6337,-0.110,0.005
6338,-0.075,0.005
6339,-0.070,-0.020
6340,-0.065,-0.050
6341,-0.100,-0.085
6342,-0.125,-0.115
6343,-0.140,-0.115
6344,-0.155,-0.115
6345,-0.155,-0.110
6346,-0.155,-0.105
6347,-0.160,-0.095
6348,-0.165,-0.085
6349,-0.175,-0.085
6350,-0.185,-0.085
6351,-0.195,-0.085
6352,-0.205,-0.085
6353,-0.195,-0.090
6354,-0.185,-0.095
6355,-0.180,-0.100
6356,-0.175,-0.100
6357,-0.170,-0.090
6358,-0.155,-0.080
6359,-0.135,-0.070
6360,-0.135,-0.065
6361,-0.155,-0.070
6362,-0.285,-0.055
6363,-0.470,-0.020
6364,-0.575,0.060
6365,-0.645,0.160
6366,-0.340,0.255
6367,0.085,0.345
6368,0.955,0.370
6369,1.935,0.380
6370,2.510,0.165
6371,3.015,-0.090
6372,3.075,-0.405
6373,3.090,-0.725
6374,2.235,-0.770
6375,3.095,-0.745
6376,0.725,-0.655
6377,0.140,-0.500
6378,-0.045,-0.350
6379,-0.215,-0.210
6380,-0.250,-0.120
6381,-0.285,-0.045
6382,-0.295,-0.040
6383,-0.305,-0.035
6384,-0.305,-0.045
6385,-0.305,-0.055
6386,-0.315,-0.060
6387,-0.325,-0.065
6388,-0.325,-0.065
6389,-0.325,-0.065
6390,-0.320,-0.060
6391,-0.315,-0.055
6392,-0.315,-0.065
6393,-0.315,-0.075
6394,-0.315,-0.075
6395,-0.315,-0.075
6396,-0.315,-0.070
6397,-0.315,-0.065
6398,-0.310,-0.060
6399,-0.305,-0.055
6400,-0.310,-0.055
6401,-0.315,-0.060
6402,-0.315,-0.070
6403,-0.315,-0.075
6404,-0.320,-0.075
6405,-0.325,-0.075
6406,-0.320,-0.075
6407,-0.315,-0.075
6408,-0.315,-0.080
6409,-0.315,-0.090
6410,-0.310,-0.100
6411,-0.305,-0.105
6412,-0.305,-0.100
6413,-0.295,-0.095
6414,-0.280,-0.095
6415,-0.275,-0.105
6416,-0.275,-0.120
6417,-0.270,-0.130
6418,-0.265,-0.135
6419,-0.255,-0.135
6420,-0.245,-0.135
6421,-0.220,-0.140
6422,-0.195,-0.145
6423,-0.185,-0.150
6424,-0.175,-0.155
6425,-0.155,-0.165
6426,-0.135,-0.175
6427,-0.115,-0.175
6428,-0.090,-0.175
6429,-0.070,-0.170
6430,-0.050,-0.165
6431,-0.030,-0.170
6432,-0.015,-0.175
6433,-0.005,-0.175
6434,0.015,-0.175
6435,0.040,-0.175
6436,0.060,-0.170
6437,0.080,-0.150
6438,0.095,-0.135
6439,0.095,-0.130
6440,0.090,-0.120
6441,0.080,-0.110
6442,0.070,-0.100
6443,0.060,-0.090
6444,0.040,-0.080
6445,0.015,-0.060
6446,-0.010,-0.055
6447,-0.035,-0.055
6448,-0.065,-0.055
6449,-0.095,-0.055
6450,-0.110,-0.050
6451,-0.120,-0.040
6452,-0.145,-0.035
6453,-0.170,-0.030
6454,-0.175,-0.025
6455,-0.180,-0.030
6456,-0.190,-0.035
6457,-0.200,-0.035
6458,-0.205,-0.035
6459,-0.205,-0.045
6460,-0.200,-0.040
6461,-0.195,-0.035
6462,-0.195,-0.040
6463,-0.195,-0.045
6464,-0.195,-0.050
6465,-0.195,-0.055
6466,-0.195,-0.060
6467,-0.195,-0.065
6468,-0.185,-0.055
6469,-0.175,-0.045
6470,-0.180,-0.045
6471,-0.185,-0.045
6472,-0.180,-0.055
6473,-0.175,-0.065
6474,-0.175,-0.065
6475,-0.170,-0.065
6476,-0.155,-0.060
6477,-0.150,-0.055
6478,-0.165,-0.055
6479,-0.175,-0.055
6480,-0.180,-0.060
6481,-0.185,-0.065
6482,-0.180,-0.065
6483,-0.170,-0.065
6484,-0.160,-0.060
