'sample interval','ECG1','ECG2'
'0.004 sec','mV','mV'
0,0.720,0.360
1,1.030,0.005
2,0.700,-0.325
3,0.375,-0.650
4,0.045,-0.980
5,-0.280,-1.305
6,-0.610,-1.600
7,-0.935,-1.700
8,-1.265,-1.750
9,-1.590,-1.565
10,-1.790,-1.370
11,-1.535,-1.145
12,-1.260,-0.900
13,-0.935,-0.595
14,-0.665,-0.350
15,-0.495,-0.230
16,-0.370,-0.130
17,-0.310,-0.070
18,-0.270,-0.030
19,-0.260,-0.025
20,-0.240,-0.015
21,-0.205,0.000
22,-0.180,0.020
23,-0.160,0.045
24,-0.140,0.060
25,-0.120,0.065
26,-0.110,0.070
27,-0.115,0.075
28,-0.100,0.080
29,-0.065,0.085
30,-0.060,0.090
31,-0.080,0.090
32,-0.065,0.100
33,-0.030,0.115
34,-0.025,0.120
35,-0.035,0.120
36,-0.025,0.120
37,-0.005,0.125
38,0.000,0.130
39,-0.005,0.135
40,0.015,0.160
41,0.045,0.185
42,0.040,0.185
43,0.030,0.180
44,0.065,0.190
45,0.100,0.200
46,0.120,0.220
47,0.140,0.240
48,0.145,0.270
49,0.150,0.300
50,0.170,0.295
51,0.195,0.295
52,0.230,0.325
53,0.260,0.350
54,0.270,0.345
55,0.290,0.345
56,0.325,0.370
57,0.360,0.395
58,0.390,0.410
59,0.415,0.420
60,0.430,0.415
61,0.460,0.435
62,0.505,0.495
63,0.550,0.530
64,0.590,0.525
65,0.630,0.520
66,0.670,0.520
67,0.695,0.520
68,0.710,0.525
69,0.735,0.525
70,0.760,0.515
71,0.780,0.510
72,0.800,0.505
73,0.825,0.510
74,0.845,0.525
75,0.830,0.510
76,0.805,0.485
77,0.800,0.475
78,0.800,0.465
79,0.755,0.430
80,0.695,0.395
81,0.650,0.375
82,0.605,0.355
83,0.555,0.330
84,0.500,0.300
85,0.435,0.265
86,0.370,0.230
87,0.325,0.215
88,0.280,0.200
89,0.245,0.185
90,0.205,0.170
91,0.170,0.150
92,0.135,0.130
93,0.100,0.115
94,0.070,0.100
95,0.060,0.085
96,0.050,0.070
97,0.035,0.065
98,0.020,0.060
99,0.015,0.055
100,0.010,0.045
101,0.000,0.030
102,-0.015,0.020
103,-0.035,0.020
104,-0.050,0.020
105,-0.045,0.015
106,-0.035,0.010
107,-0.025,0.015
108,-0.030,0.020
109,-0.060,0.020
110,-0.075,0.020
111,-0.090,0.015
112,-0.085,0.005
113,-0.060,-0.005
114,-0.065,-0.005
115,-0.090,0.005
116,-0.085,0.010
117,-0.055,0.015
118,-0.050,0.020
119,-0.055,0.025
120,-0.060,0.030
121,-0.060,0.035
122,-0.060,0.035
123,-0.055,0.025
124,-0.060,0.020
125,-0.050,0.020
126,-0.070,0.030
127,-0.060,0.030
128,-0.060,0.030
129,-0.060,0.030
130,-0.070,0.025
131,-0.080,0.020
132,-0.075,0.010
133,-0.070,0.000
134,-0.055,0.020
135,-0.040,0.040
136,-0.035,0.025
137,-0.035,0.010
138,-0.055,0.010
139,-0.065,0.010
140,-0.050,0.010
141,-0.040,0.010
142,-0.050,0.005
143,-0.060,0.000
144,-0.055,-0.005
145,-0.050,-0.010
146,-0.045,-0.005
147,-0.045,-0.005
148,-0.055,-0.015
149,-0.055,-0.015
150,-0.045,-0.005
151,-0.040,-0.005
152,-0.040,-0.015
153,-0.040,-0.020
154,-0.035,-0.020
155,-0.040,-0.025
156,-0.055,-0.035
157,-0.060,-0.040
158,-0.055,-0.035
159,-0.050,-0.030
160,-0.045,-0.030
161,-0.040,-0.030
162,-0.035,-0.025
163,-0.035,-0.020
164,-0.045,-0.025
165,-0.050,-0.025
166,-0.045,-0.015
167,-0.045,-0.010
168,-0.050,-0.010
169,-0.040,-0.005
170,-0.030,0.000
171,-0.040,0.005
172,-0.050,0.010
173,-0.055,0.015
174,-0.060,0.020
175,-0.030,0.020
176,-0.010,0.020
177,0.010,0.030
178,0.035,0.045
179,0.060,0.075
180,0.075,0.100
181,0.050,0.095
182,0.040,0.095
183,0.075,0.120
184,0.100,0.140
185,0.090,0.145
186,0.095,0.150
187,0.135,0.160
188,0.180,0.170
189,0.220,0.165
190,0.250,0.150
191,0.270,0.125
192,0.265,0.105
193,0.235,0.095
194,0.200,0.075
195,0.165,0.050
196,0.130,0.030
197,0.090,0.015
198,0.065,0.000
199,0.040,-0.015
200,0.035,-0.010
201,0.045,0.005
202,0.025,0.005
203,-0.015,-0.005
204,-0.070,-0.010
205,-0.135,-0.015
206,-0.125,-0.030
207,-0.105,-0.045
208,-0.100,-0.050
209,-0.110,-0.060
210,-0.110,-0.060
211,-0.110,-0.060
212,-0.095,-0.045
213,-0.080,-0.030
214,-0.090,-0.030
215,-0.100,-0.030
216,-0.090,-0.035
217,-0.075,-0.035
218,-0.025,0.000
219,0.025,0.065
220,0.085,0.225
221,0.040,0.300
222,-0.265,0.165
223,-0.360,0.065
224,-0.035,0.040
225,0.290,0.065
226,0.615,0.180
227,0.940,0.275
228,1.265,0.335
229,1.280,0.215
230,0.950,-0.115
231,0.625,-0.440
232,0.295,-0.770
233,-0.030,-1.095
234,-0.360,-1.425
235,-0.685,-1.650
236,-1.015,-1.815
237,-1.345,-1.750
238,-1.670,-1.575
239,-1.650,-1.390
240,-1.480,-1.205
241,-1.195,-0.915
242,-0.870,-0.590
243,-0.600,-0.375
244,-0.350,-0.190
245,-0.240,-0.090
246,-0.150,-0.010
247,-0.125,0.000
248,-0.105,0.005
249,-0.085,0.025
250,-0.100,0.010
251,-0.045,0.050
252,-0.030,0.050
253,-0.015,0.060
254,0.000,0.070
255,0.010,0.060
256,0.020,0.050
257,0.020,0.070
258,0.020,0.090
259,0.015,0.095
260,0.010,0.100
261,0.025,0.100
262,0.040,0.100
263,0.045,0.115
264,0.060,0.130
265,0.090,0.135
266,0.110,0.140
267,0.115,0.150
268,0.120,0.160
269,0.125,0.165
270,0.130,0.170
271,0.130,0.175
272,0.140,0.185
273,0.160,0.200
274,0.180,0.210
275,0.210,0.210
276,0.220,0.215
277,0.225,0.225
278,0.250,0.240
279,0.280,0.255
280,0.300,0.280
281,0.320,0.310
282,0.360,0.325
283,0.410,0.335
284,0.430,0.355
285,0.445,0.375
286,0.475,0.395
287,0.505,0.415
288,0.535,0.420
289,0.565,0.425
290,0.600,0.445
291,0.635,0.465
292,0.670,0.480
293,0.700,0.490
294,0.735,0.495
295,0.770,0.500
296,0.790,0.490
297,0.810,0.480
298,0.840,0.505
299,0.870,0.530
300,0.885,0.520
301,0.900,0.510
302,0.900,0.490
303,0.900,0.465
304,0.895,0.440
305,0.880,0.420
306,0.840,0.430
307,0.810,0.435
308,0.815,0.415
309,0.795,0.390
310,0.730,0.360
311,0.665,0.330
312,0.610,0.300
313,0.550,0.265
314,0.485,0.230
315,0.445,0.220
316,0.430,0.240
317,0.380,0.225
318,0.310,0.180
319,0.250,0.155
320,0.200,0.145
321,0.160,0.130
322,0.130,0.110
323,0.115,0.090
324,0.105,0.075
325,0.100,0.070
326,0.095,0.065
327,0.070,0.060
328,0.045,0.055
329,0.040,0.050
330,0.035,0.045
331,0.030,0.040
332,0.035,0.045
333,0.030,0.050
334,0.010,0.050
335,0.005,0.050
336,0.000,0.050
337,-0.015,0.045
338,-0.030,0.040
339,-0.020,0.045
340,-0.010,0.050
341,-0.005,0.050
342,0.000,0.050
343,-0.010,0.050
344,-0.020,0.050
345,-0.025,0.060
346,-0.030,0.070
347,-0.025,0.060
348,-0.020,0.050
349,-0.015,0.045
350,-0.005,0.045
351,0.015,0.060
352,0.030,0.070
353,0.025,0.060
354,0.020,0.055
355,0.015,0.080
356,0.010,0.085
357,0.005,0.070
358,0.015,0.065
359,0.045,0.075
360,0.045,0.070
361,0.020,0.050
362,0.020,0.060
363,0.040,0.090
364,0.050,0.090
365,0.055,0.065
366,0.050,0.060
367,0.035,0.055
368,0.040,0.050
369,0.055,0.055
370,0.065,0.055
371,0.075,0.045
372,0.080,0.050
373,0.075,0.065
374,0.055,0.055
375,0.070,0.070
376,0.030,0.025
377,0.030,0.020
378,0.040,0.020
379,0.050,0.020
380,0.035,0.020
381,0.020,0.020
382,0.025,0.010
383,0.030,0.000
384,0.010,0.000
385,-0.010,0.000
386,0.005,0.000
387,0.020,0.000
388,0.020,0.015
389,0.015,0.025
390,0.000,0.010
391,-0.010,0.000
392,-0.020,0.005
393,-0.030,0.010
394,-0.020,0.020
395,-0.010,0.030
396,-0.005,0.015
397,-0.015,0.010
398,-0.045,0.015
399,-0.055,0.015
400,-0.045,0.005
401,-0.045,0.000
402,-0.055,0.005
403,-0.060,0.005
404,-0.055,-0.005
405,-0.045,-0.010
406,-0.035,-0.010
407,-0.045,-0.010
408,-0.065,-0.005
409,-0.055,0.000
410,-0.035,-0.005
411,-0.030,-0.010
412,-0.035,-0.015
413,-0.025,-0.015
414,-0.005,-0.005
415,0.015,0.010
416,0.035,0.025
417,0.035,0.040
418,0.030,0.050
419,0.050,0.060
420,0.070,0.070
421,0.065,0.070
422,0.060,0.070
423,0.090,0.065
424,0.130,0.060
425,0.190,0.075
426,0.240,0.085
427,0.245,0.055
428,0.250,0.025
429,0.255,0.000
430,0.235,-0.025
431,0.155,-0.050
432,0.095,-0.075
433,0.075,-0.095
434,0.050,-0.110
435,0.020,-0.120
436,0.000,-0.130
437,-0.010,-0.130
438,-0.035,-0.130
439,-0.070,-0.130
440,-0.110,-0.130
441,-0.150,-0.125
442,-0.170,-0.120
443,-0.165,-0.115
444,-0.160,-0.115
445,-0.155,-0.125
446,-0.150,-0.125
447,-0.150,-0.115
448,-0.150,-0.110
449,-0.150,-0.110
450,-0.150,-0.105
451,-0.150,-0.095
452,-0.150,-0.080
453,-0.155,-0.065
454,-0.130,-0.060
455,-0.095,-0.055
456,0.030,0.100
457,0.165,0.260
458,-0.105,0.215
459,-0.390,0.150
460,-0.260,0.040
461,-0.120,-0.065
462,0.205,0.015
463,0.530,0.095
464,0.855,0.180
465,1.125,0.200
466,1.075,-0.125
467,0.965,-0.455
468,0.640,-0.780
469,0.310,-1.110
470,-0.015,-1.435
471,-0.345,-1.710
472,-0.670,-1.845
473,-1.000,-1.900
474,-1.330,-1.785
475,-1.550,-1.635
476,-1.605,-1.435
477,-1.500,-1.180
478,-1.175,-0.860
479,-0.860,-0.585
480,-0.555,-0.365
481,-0.365,-0.205
482,-0.270,-0.100
483,-0.210,-0.040
484,-0.175,-0.010
485,-0.145,0.010
486,-0.120,0.030
487,-0.105,0.045
488,-0.095,0.055
489,-0.085,0.070
490,-0.075,0.085
491,-0.065,0.090
492,-0.055,0.095
493,-0.040,0.100
494,-0.025,0.105
495,-0.020,0.115
496,-0.025,0.125
497,-0.005,0.130
498,0.025,0.125
499,0.030,0.130
500,0.030,0.120
501,0.035,0.140
502,0.050,0.130
503,0.065,0.135
504,0.080,0.140
505,0.085,0.155
506,0.090,0.170
507,0.100,0.170
508,0.110,0.170
509,0.120,0.175
510,0.135,0.180
511,0.180,0.190
512,0.210,0.200
513,0.210,0.205
514,0.215,0.210
515,0.235,0.220
516,0.255,0.230
517,0.270,0.235
518,0.290,0.245
519,0.315,0.260
520,0.340,0.270
521,0.375,0.285
522,0.400,0.300
523,0.425,0.320
524,0.450,0.330
525,0.480,0.335
526,0.505,0.345
527,0.535,0.360
528,0.570,0.370
529,0.600,0.375
530,0.625,0.390
531,0.650,0.410
532,0.675,0.420
533,0.695,0.420
534,0.715,0.420
535,0.735,0.420
536,0.770,0.420
537,0.805,0.420
538,0.815,0.420
539,0.825,0.425
540,0.830,0.425
541,0.830,0.415
542,0.815,0.400
543,0.800,0.390
544,0.760,0.370
545,0.720,0.350
546,0.665,0.330
547,0.615,0.310
548,0.565,0.300
549,0.515,0.290
550,0.475,0.270
551,0.430,0.245
552,0.375,0.215
553,0.320,0.190
554,0.275,0.185
555,0.225,0.175
556,0.175,0.140
557,0.130,0.115
558,0.095,0.095
559,0.055,0.080
560,0.010,0.070
561,-0.020,0.055
562,-0.020,0.035
563,-0.030,0.020
564,-0.050,0.020
565,-0.055,0.020
566,-0.045,0.020
567,-0.045,0.015
568,-0.060,0.000
569,-0.085,-0.020
570,-0.120,-0.040
571,-0.120,-0.035
572,-0.100,-0.010
573,-0.095,-0.005
574,-0.105,-0.015
575,-0.110,-0.025
576,-0.115,-0.035
577,-0.120,-0.030
578,-0.120,-0.015
579,-0.110,-0.010
580,-0.095,-0.010
581,-0.090,-0.015
582,-0.085,-0.025
583,-0.085,-0.030
584,-0.100,-0.020
585,-0.090,-0.025
586,-0.080,-0.030
587,-0.090,-0.035
588,-0.100,-0.040
589,-0.095,-0.040
590,-0.090,-0.040
591,-0.085,-0.035
592,-0.080,-0.030
593,-0.080,-0.030
594,-0.080,-0.030
595,-0.085,-0.030
596,-0.090,-0.030
597,-0.080,-0.030
598,-0.070,-0.030
599,-0.080,-0.035
600,-0.090,-0.040
601,-0.095,-0.035
602,-0.100,-0.030
603,-0.095,-0.030
604,-0.090,-0.030
605,-0.085,-0.035
606,-0.085,-0.040
607,-0.095,-0.040
608,-0.100,-0.040
609,-0.095,-0.035
610,-0.085,-0.035
611,-0.075,-0.045
612,-0.070,-0.050
613,-0.075,-0.055
614,-0.090,-0.055
615,-0.105,-0.045
616,-0.105,-0.055
617,-0.095,-0.075
618,-0.090,-0.075
619,-0.085,-0.065
620,-0.095,-0.060
621,-0.115,-0.065
622,-0.105,-0.070
623,-0.085,-0.065
624,-0.080,-0.055
625,-0.080,-0.060
626,-0.100,-0.035
627,-0.120,-0.030
628,-0.110,-0.025
629,-0.100,-0.020
630,-0.100,-0.015
631,-0.100,-0.010
632,-0.135,0.000
633,-0.160,0.010
634,-0.145,0.025
635,-0.130,0.040
636,-0.140,0.035
637,-0.150,0.035
638,-0.160,0.055
639,-0.165,0.070
640,-0.145,0.070
641,-0.130,0.075
642,-0.140,0.090
643,-0.150,0.100
644,-0.155,0.095
645,-0.155,0.090
646,-0.140,0.095
647,-0.130,0.100
648,-0.135,0.100
649,-0.140,0.100
650,-0.145,0.105
651,-0.130,0.115
652,-0.095,0.125
653,-0.060,0.140
654,-0.030,0.160
655,-0.025,0.170
656,-0.035,0.170
657,-0.035,0.175
658,-0.025,0.185
659,0.000,0.190
660,0.035,0.195
661,0.060,0.200
662,0.085,0.200
663,0.150,0.205
664,0.225,0.215
665,0.225,0.180
666,0.215,0.135
667,0.185,0.110
668,0.160,0.090
669,0.090,0.070
670,0.020,0.050
671,-0.010,0.020
672,-0.040,-0.010
673,-0.060,-0.010
674,-0.080,-0.010
675,-0.095,-0.005
676,-0.115,0.000
677,-0.155,-0.020
678,-0.195,-0.040
679,-0.235,-0.050
680,-0.260,-0.060
681,-0.250,-0.070
682,-0.240,-0.080
683,-0.235,-0.085
684,-0.235,-0.090
685,-0.250,-0.090
686,-0.255,-0.090
687,-0.240,-0.085
688,-0.230,-0.080
689,-0.225,-0.085
690,-0.225,-0.090
691,-0.235,-0.095
692,-0.195,-0.065
693,-0.110,0.005
694,-0.085,0.095
695,-0.095,0.205
696,-0.270,0.135
697,-0.520,-0.025
698,-0.355,-0.055
699,-0.030,-0.035
700,0.295,0.020
701,0.620,0.085
702,0.945,0.155
703,1.270,0.220
704,1.030,-0.055
705,0.705,-0.380
706,0.375,-0.710
707,0.050,-1.035
708,-0.280,-1.365
709,-0.610,-1.690
710,-0.935,-1.750
711,-1.265,-1.805
712,-1.590,-1.665
713,-1.880,-1.525
714,-1.800,-1.385
715,-1.680,-1.215
716,-1.355,-0.920
717,-1.040,-0.650
718,-0.760,-0.480
719,-0.520,-0.325
720,-0.400,-0.210
721,-0.305,-0.125
722,-0.285,-0.095
723,-0.260,-0.065
724,-0.230,-0.050
725,-0.205,-0.035
726,-0.190,-0.015
727,-0.180,0.000
728,-0.170,-0.005
729,-0.160,-0.010
730,-0.145,0.005
731,-0.140,0.015
732,-0.145,0.030
733,-0.145,0.040
734,-0.130,0.040
735,-0.120,0.045
736,-0.125,0.060
737,-0.120,0.080
738,-0.100,0.095
739,-0.085,0.100
740,-0.075,0.100
741,-0.070,0.110
742,-0.070,0.125
743,-0.060,0.135
744,-0.045,0.145
745,-0.035,0.150
746,-0.025,0.145
747,0.000,0.155
748,0.025,0.175
749,0.030,0.180
750,0.030,0.180
751,0.060,0.190
752,0.090,0.200
753,0.100,0.210
754,0.110,0.220
755,0.140,0.230
756,0.170,0.240
757,0.190,0.250
758,0.210,0.260
759,0.240,0.265
760,0.265,0.275
761,0.290,0.300
762,0.315,0.320
763,0.345,0.325
764,0.380,0.335
765,0.410,0.355
766,0.435,0.370
767,0.465,0.375
768,0.495,0.380
769,0.535,0.375
770,0.565,0.370
771,0.580,0.385
772,0.600,0.390
773,0.625,0.385
774,0.645,0.380
775,0.660,0.385
776,0.675,0.385
777,0.685,0.370
778,0.685,0.360
779,0.675,0.360
780,0.670,0.355
781,0.670,0.345
782,0.640,0.325
783,0.600,0.300
784,0.550,0.275
785,0.500,0.255
786,0.460,0.240
787,0.415,0.225
788,0.370,0.195
789,0.325,0.165
790,0.265,0.150
791,0.205,0.135
792,0.165,0.125
793,0.130,0.120
794,0.090,0.115
795,0.050,0.110
796,0.025,0.095
797,0.000,0.080
798,-0.030,0.085
799,-0.060,0.090
800,-0.065,0.085
801,-0.075,0.080
802,-0.100,0.070
803,-0.120,0.060
804,-0.125,0.075
805,-0.130,0.090
806,-0.125,0.080
807,-0.125,0.070
808,-0.145,0.070
809,-0.160,0.070
810,-0.150,0.075
811,-0.140,0.080
812,-0.145,0.075
813,-0.155,0.070
814,-0.165,0.075
815,-0.170,0.080
816,-0.165,0.080
817,-0.160,0.080
818,-0.165,0.080
819,-0.170,0.075
820,-0.165,0.055
821,-0.160,0.050
822,-0.155,0.055
823,-0.135,0.060
824,-0.115,0.055
825,-0.125,0.050
826,-0.145,0.045
827,-0.140,0.040
828,-0.125,0.045
829,-0.120,0.050
830,-0.115,0.045
831,-0.110,0.040
832,-0.110,0.040
833,-0.110,0.040
834,-0.100,0.040
835,-0.090,0.040
836,-0.080,0.040
837,-0.100,0.020
838,-0.120,0.000
839,-0.110,0.015
840,-0.100,0.030
841,-0.095,0.020
842,-0.090,0.010
843,-0.110,0.010
844,-0.125,0.010
845,-0.100,0.005
846,-0.085,0.000
847,-0.110,-0.010
848,-0.130,-0.020
849,-0.125,-0.025
850,-0.120,-0.035
851,-0.130,-0.050
852,-0.140,-0.060
853,-0.140,-0.050
854,-0.145,-0.040
855,-0.170,-0.040
856,-0.175,-0.040
857,-0.160,-0.045
858,-0.155,-0.050
859,-0.165,-0.050
860,-0.170,-0.050
861,-0.165,-0.050
862,-0.165,-0.055
863,-0.175,-0.065
864,-0.180,-0.070
865,-0.180,-0.070
866,-0.180,-0.070
867,-0.185,-0.075
868,-0.190,-0.080
869,-0.195,-0.080
870,-0.200,-0.080
871,-0.195,-0.085
872,-0.175,-0.085
873,-0.155,-0.075
874,-0.160,-0.070
875,-0.150,-0.070
876,-0.180,-0.085
877,-0.180,-0.090
878,-0.180,-0.075
879,-0.180,-0.060
880,-0.180,-0.080
881,-0.180,-0.100
882,-0.170,-0.100
883,-0.160,-0.100
884,-0.155,-0.085
885,-0.145,-0.070
886,-0.120,-0.060
887,-0.100,-0.050
888,-0.105,-0.035
889,-0.100,-0.015
890,-0.060,0.010
891,-0.035,0.030
892,-0.050,0.020
893,-0.050,0.015
894,-0.025,0.035
895,0.005,0.050
896,0.040,0.045
897,0.080,0.045
898,0.125,0.055
899,0.145,0.040
900,0.135,0.005
901,0.110,-0.015
902,0.065,-0.025
903,0.030,-0.035
904,-0.005,-0.045
905,-0.035,-0.065
906,-0.060,-0.090
907,-0.085,-0.100
908,-0.110,-0.095
909,-0.135,-0.090
910,-0.155,-0.090
911,-0.210,-0.090
912,-0.270,-0.095
913,-0.260,-0.100
914,-0.235,-0.105
915,-0.245,-0.110
916,-0.265,-0.110
917,-0.265,-0.100
918,-0.260,-0.090
919,-0.230,-0.095
920,-0.200,-0.100
921,-0.220,-0.095
922,-0.240,-0.090
923,-0.230,-0.085
924,-0.220,-0.080
925,-0.225,-0.075
926,-0.210,-0.045
927,-0.100,0.085
928,-0.060,0.180
929,-0.225,0.190
930,-0.350,0.165
931,-0.385,0.040
932,-0.295,-0.015
933,0.030,0.055
934,0.355,0.135
935,0.680,0.235
936,1.005,0.250
937,1.330,0.160
938,1.335,-0.050
939,1.005,-0.380
940,0.680,-0.705
941,0.350,-1.035
942,0.025,-1.350
943,-0.305,-1.655
944,-0.630,-1.745
945,-0.960,-1.705
946,-1.290,-1.575
947,-1.615,-1.400
948,-1.595,-1.195
949,-1.445,-0.980
950,-1.160,-0.710
951,-0.835,-0.420
952,-0.630,-0.260
953,-0.455,-0.130
954,-0.370,-0.065
955,-0.300,-0.005
956,-0.280,0.010
957,-0.265,0.025
958,-0.230,0.045
959,-0.190,0.070
960,-0.185,0.075
961,-0.180,0.080
962,-0.170,0.095
963,-0.160,0.110
964,-0.150,0.115
965,-0.140,0.120
966,-0.135,0.120
967,-0.130,0.120
968,-0.120,0.125
969,-0.110,0.135
970,-0.095,0.155
971,-0.080,0.170
972,-0.070,0.170
973,-0.060,0.170
974,-0.060,0.170
975,-0.060,0.170
976,-0.065,0.170
977,-0.060,0.175
978,-0.030,0.190
979,-0.010,0.200
980,-0.010,0.195
981,0.005,0.195
982,0.035,0.210
983,0.060,0.220
984,0.080,0.225
985,0.100,0.235
986,0.120,0.245
987,0.145,0.260
988,0.170,0.275
989,0.190,0.280
990,0.205,0.275
991,0.225,0.285
992,0.245,0.315
993,0.285,0.320
994,0.330,0.325
995,0.350,0.340
996,0.365,0.355
997,0.395,0.370
998,0.425,0.385
999,0.465,0.395
1000,0.430,0.390
1001,0.540,0.405
1002,0.570,0.400
1003,0.595,0.415
1004,0.620,0.430
1005,0.660,0.425
1006,0.700,0.420
1007,0.720,0.410
1008,0.740,0.400
1009,0.755,0.405
1010,0.770,0.410
1011,0.775,0.405
1012,0.780,0.395
1013,0.775,0.375
1014,0.760,0.355
1015,0.730,0.335
1016,0.695,0.315
1017,0.650,0.295
1018,0.600,0.270
1019,0.540,0.240
1020,0.495,0.220
1021,0.450,0.205
1022,0.400,0.190
1023,0.340,0.165
1024,0.285,0.140
1025,0.230,0.110
1026,0.185,0.100
1027,0.140,0.095
1028,0.105,0.080
1029,0.080,0.060
1030,0.040,0.045
1031,-0.005,0.035
1032,-0.040,0.020
1033,-0.070,0.005
1034,-0.080,0.000
1035,-0.085,-0.005
1036,-0.100,-0.010
1037,-0.115,-0.010
1038,-0.125,-0.010
1039,-0.135,-0.010
1040,-0.150,-0.020
1041,-0.165,-0.035
1042,-0.170,-0.035
1043,-0.170,-0.030
1044,-0.175,-0.040
1045,-0.180,-0.050
1046,-0.170,-0.040
1047,-0.160,-0.030
1048,-0.165,-0.035
1049,-0.170,-0.040
1050,-0.175,-0.040
1051,-0.180,-0.040
1052,-0.175,-0.035
1053,-0.170,-0.030
1054,-0.165,-0.035
1055,-0.160,-0.040
1056,-0.150,-0.030
1057,-0.145,-0.020
1058,-0.165,-0.020
1059,-0.175,-0.020
1060,-0.160,-0.020
1061,-0.145,-0.020
1062,-0.130,-0.015
1063,-0.115,-0.010
1064,-0.100,-0.015
1065,-0.090,-0.020
1066,-0.090,-0.025
1067,-0.090,-0.025
1068,-0.095,-0.015
1069,-0.090,-0.015
1070,-0.070,-0.025
1071,-0.065,-0.030
1072,-0.075,-0.025
1073,-0.075,-0.020
1074,-0.065,-0.015
1075,-0.060,-0.020
1076,-0.065,-0.035
1077,-0.070,-0.040
1078,-0.070,-0.035
1079,-0.070,-0.020
1080,-0.075,-0.005
1081,-0.080,-0.010
1082,-0.085,-0.025
1083,-0.090,-0.030
1084,-0.090,-0.020
1085,-0.095,-0.025
1086,-0.100,-0.030
1087,-0.100,-0.030
1088,-0.100,-0.030
1089,-0.105,-0.030
1090,-0.110,-0.030
1091,-0.100,-0.020
1092,-0.090,-0.010
1093,-0.095,-0.010
1094,-0.100,-0.010
1095,-0.100,-0.015
1096,-0.100,-0.020
1097,-0.115,-0.020
1098,-0.125,-0.020
1099,-0.110,-0.020
1100,-0.105,-0.020
1101,-0.120,-0.025
1102,-0.130,-0.030
1103,-0.140,-0.030
1104,-0.150,-0.030
1105,-0.145,-0.045
1106,-0.140,-0.045
1107,-0.140,-0.030
1108,-0.135,-0.025
1109,-0.125,-0.040
1110,-0.120,-0.045
1111,-0.120,-0.035
1112,-0.120,-0.040
1113,-0.120,-0.055
1114,-0.135,-0.065
1115,-0.160,-0.075
1116,-0.160,-0.065
1117,-0.145,-0.035
1118,-0.140,-0.045
1119,-0.140,-0.065
1120,-0.145,-0.065
1121,-0.155,-0.055
1122,-0.140,-0.050
1123,-0.115,-0.045
1124,-0.060,-0.025
1125,-0.110,-0.040
1126,-0.025,-0.010
1127,-0.050,-0.020
1128,-0.035,0.010
1129,-0.020,0.040
1130,-0.005,0.040
1131,0.010,0.040
1132,0.020,0.030
1133,0.045,0.020
1134,0.135,0.050
1135,0.210,0.065
1136,0.185,0.020
1137,0.170,-0.010
1138,0.155,-0.005
1139,0.125,-0.005
1140,0.075,-0.030
1141,0.025,-0.050
1142,-0.020,-0.060
1143,-0.050,-0.070
1144,-0.040,-0.080
1145,-0.040,-0.090
1146,-0.065,-0.085
1147,-0.095,-0.085
1148,-0.125,-0.095
1149,-0.165,-0.100
1150,-0.220,-0.105
1151,-0.245,-0.110
1152,-0.255,-0.115
1153,-0.250,-0.120
1154,-0.230,-0.120
1155,-0.220,-0.120
1156,-0.225,-0.115
1157,-0.230,-0.110
1158,-0.230,-0.115
1159,-0.230,-0.120
1160,-0.230,-0.115
1161,-0.230,-0.110
1162,-0.230,-0.115
1163,-0.195,-0.090
1164,-0.155,-0.055
1165,-0.065,0.095
1166,0.025,0.255
1167,-0.255,0.155
1168,-0.535,0.050
1169,-0.250,-0.015
1170,0.035,-0.070
1171,0.360,0.065
1172,0.685,0.200
1173,1.010,0.290
1174,1.260,0.315
1175,1.130,-0.010
1176,0.960,-0.340
1177,0.635,-0.665
1178,0.305,-0.995
1179,-0.020,-1.320
1180,-0.350,-1.620
1181,-0.680,-1.845
1182,-1.005,-1.935
1183,-1.335,-1.785
1184,-1.575,-1.620
1185,-1.695,-1.435
1186,-1.615,-1.185
1187,-1.290,-0.865
1188,-0.975,-0.605
1189,-0.665,-0.405
1190,-0.470,-0.260
1191,-0.370,-0.160
1192,-0.310,-0.105
1193,-0.275,-0.080
1194,-0.255,-0.070
1195,-0.235,-0.065
1196,-0.220,-0.055
1197,-0.200,-0.045
1198,-0.175,-0.025
1199,-0.150,-0.005
1200,-0.140,0.000
1201,-0.135,0.005
1202,-0.120,0.015
1203,-0.105,0.025
1204,-0.100,0.040
1205,-0.105,0.055
1206,-0.100,0.060
1207,-0.085,0.055
1208,-0.065,0.070
1209,-0.040,0.100
1210,-0.045,0.095
1211,-0.050,0.090
1212,-0.045,0.105
1213,-0.040,0.120
1214,-0.020,0.130
1215,0.000,0.140
1216,-0.005,0.155
1217,-0.005,0.170
1218,0.025,0.175
1219,0.050,0.180
1220,0.050,0.185
1221,0.055,0.195
1222,0.085,0.220
1223,0.110,0.240
1224,0.120,0.245
1225,0.140,0.255
1226,0.175,0.270
1227,0.205,0.290
1228,0.225,0.315
1229,0.250,0.330
1230,0.275,0.345
1231,0.300,0.360
1232,0.320,0.380
1233,0.350,0.395
1234,0.390,0.410
1235,0.425,0.420
1236,0.450,0.425
1237,0.480,0.430
1238,0.515,0.435
1239,0.545,0.440
1240,0.570,0.445
1241,0.605,0.450
1242,0.640,0.455
1243,0.670,0.460
1244,0.695,0.460
1245,0.725,0.460
1246,0.755,0.465
1247,0.765,0.460
1248,0.775,0.445
1249,0.780,0.425
1250,0.780,0.440
1251,0.780,0.390
1252,0.790,0.380
1253,0.765,0.350
1254,0.740,0.320
1255,0.690,0.305
1256,0.645,0.285
1257,0.575,0.250
1258,0.515,0.220
1259,0.480,0.205
1260,0.440,0.185
1261,0.390,0.140
1262,0.335,0.110
1263,0.275,0.095
1264,0.220,0.075
1265,0.185,0.060
1266,0.145,0.045
1267,0.105,0.030
1268,0.080,0.020
1269,0.070,0.015
1270,0.050,0.005
1271,0.015,-0.010
1272,-0.005,-0.020
1273,-0.020,-0.020
1274,-0.035,-0.020
1275,-0.045,-0.020
1276,-0.050,-0.025
1277,-0.050,-0.035
1278,-0.060,-0.035
1279,-0.080,-0.025
1280,-0.090,-0.025
1281,-0.090,-0.035
1282,-0.090,-0.040
1283,-0.085,-0.035
1284,-0.080,-0.030
1285,-0.085,-0.035
1286,-0.090,-0.040
1287,-0.095,-0.035
1288,-0.100,-0.025
1289,-0.100,-0.015
1290,-0.095,-0.010
1291,-0.085,-0.010
1292,-0.085,-0.005
1293,-0.090,0.000
1294,-0.080,0.005
1295,-0.070,0.010
1296,-0.070,0.000
1297,-0.070,-0.010
1298,-0.075,-0.015
1299,-0.080,-0.020
1300,-0.075,-0.010
1301,-0.070,0.000
1302,-0.055,0.000
1303,-0.040,0.000
1304,-0.050,-0.015
1305,-0.060,-0.030
1306,-0.060,-0.025
1307,-0.060,-0.020
1308,-0.055,-0.020
1309,-0.050,-0.025
1310,-0.040,-0.045
1311,-0.030,-0.055
1312,-0.035,-0.040
1313,-0.035,-0.035
1314,-0.025,-0.050
1315,-0.035,-0.060
1316,-0.065,-0.065
1317,-0.080,-0.070
1318,-0.075,-0.065
1319,-0.065,-0.060
1320,-0.045,-0.065
1321,-0.050,-0.070
1322,-0.070,-0.075
1323,-0.075,-0.075
1324,-0.065,-0.065
1325,-0.085,-0.060
1326,-0.120,-0.065
1327,-0.100,-0.060
1328,-0.060,-0.045
1329,-0.075,-0.045
1330,-0.105,-0.055
1331,-0.095,-0.055
1332,-0.075,-0.045
1333,-0.080,-0.040
1334,-0.100,-0.030
1335,-0.090,-0.030
1336,-0.080,-0.030
1337,-0.080,-0.025
1338,-0.080,-0.020
1339,-0.100,-0.025
1340,-0.120,-0.030
1341,-0.105,-0.020
1342,-0.095,-0.010
1343,-0.130,-0.015
1344,-0.160,-0.020
1345,-0.150,-0.010
1346,-0.135,0.000
1347,-0.115,0.005
1348,-0.100,0.005
1349,-0.110,-0.020
1350,-0.125,-0.035
1351,-0.140,-0.015
1352,-0.150,0.000
1353,-0.140,-0.005
1354,-0.130,-0.010
1355,-0.130,-0.010
1356,-0.130,-0.010
1357,-0.125,-0.005
1358,-0.125,0.000
1359,-0.135,0.000
1360,-0.140,-0.005
1361,-0.140,-0.020
1362,-0.140,-0.025
1363,-0.145,-0.015
1364,-0.150,-0.010
1365,-0.155,-0.015
1366,-0.160,-0.020
1367,-0.155,-0.025
1368,-0.150,-0.030
1369,-0.145,-0.025
1370,-0.105,-0.010
1371,-0.065,0.005
1372,-0.060,0.025
1373,-0.055,0.045
1374,-0.045,0.050
1375,-0.050,0.050
1376,-0.035,0.050
1377,-0.040,0.040
1378,0.010,0.055
1379,0.060,0.070
1380,0.085,0.060
1381,0.115,0.050
1382,0.160,0.045
1383,0.200,0.035
1384,0.190,-0.010
1385,0.170,-0.050
1386,0.115,-0.055
1387,0.065,-0.065
1388,0.035,-0.085
1389,0.005,-0.105
1390,-0.010,-0.120
1391,-0.030,-0.135
1392,-0.065,-0.150
1393,-0.090,-0.155
1394,-0.100,-0.135
1395,-0.135,-0.120
1396,-0.190,-0.120
1397,-0.220,-0.125
1398,-0.225,-0.140
1399,-0.235,-0.150
1400,-0.245,-0.145
1401,-0.245,-0.140
1402,-0.235,-0.140
1403,-0.225,-0.140
1404,-0.215,-0.145
1405,-0.220,-0.145
1406,-0.235,-0.135
1407,-0.240,-0.125
1408,-0.235,-0.115
1409,-0.210,-0.115
1410,-0.175,-0.125
1411,-0.110,-0.020
1412,-0.030,0.115
1413,-0.140,0.140
1414,-0.280,0.155
1415,-0.365,0.025
1416,-0.445,-0.125
1417,-0.130,-0.040
1418,0.195,0.050
1419,0.520,0.185
1420,0.845,0.305
1421,1.170,0.185
1422,1.415,0.040
1423,1.090,-0.285
1424,0.760,-0.615
1425,0.435,-0.940
1426,0.105,-1.270
1427,-0.220,-1.595
1428,-0.550,-1.855
1429,-0.875,-1.915
1430,-1.205,-1.890
1431,-1.535,-1.655
1432,-1.660,-1.415
1433,-1.425,-1.175
1434,-1.160,-0.905
1435,-0.860,-0.595
1436,-0.635,-0.375
1437,-0.515,-0.265
1438,-0.425,-0.185
1439,-0.375,-0.135
1440,-0.325,-0.100
1441,-0.280,-0.080
1442,-0.255,-0.070
1443,-0.240,-0.070
1444,-0.215,-0.055
1445,-0.190,-0.020
1446,-0.175,-0.015
1447,-0.165,-0.025
1448,-0.160,-0.025
1449,-0.155,-0.015
1450,-0.150,-0.010
1451,-0.145,-0.010
1452,-0.145,-0.010
1453,-0.155,-0.010
1454,-0.130,-0.010
1455,-0.095,-0.005
1456,-0.090,-0.010
1457,-0.090,-0.025
1458,-0.090,-0.010
1459,-0.100,0.020
1460,-0.075,0.030
1461,-0.050,0.040
1462,-0.030,0.035
1463,-0.010,0.030
1464,-0.010,0.045
1465,-0.010,0.060
1466,0.025,0.070
1467,0.055,0.080
1468,0.085,0.100
1469,0.110,0.120
1470,0.115,0.115
1471,0.125,0.115
1472,0.155,0.135
1473,0.180,0.155
1474,0.190,0.175
1475,0.210,0.200
1476,0.245,0.225
1477,0.280,0.240
1478,0.305,0.250
1479,0.325,0.270
1480,0.340,0.295
1481,0.360,0.320
1482,0.380,0.340
1483,0.425,0.350
1484,0.485,0.355
1485,0.515,0.365
1486,0.530,0.375
1487,0.560,0.385
1488,0.590,0.395
1489,0.620,0.400
1490,0.650,0.405
1491,0.680,0.410
1492,0.710,0.410
1493,0.720,0.410
1494,0.720,0.410
1495,0.735,0.400
1496,0.755,0.385
1497,0.760,0.370
1498,0.755,0.355
1499,0.735,0.340
1500,0.750,0.350
1501,0.660,0.295
1502,0.610,0.270
1503,0.560,0.240
1504,0.510,0.210
1505,0.480,0.205
1506,0.445,0.195
1507,0.375,0.160
1508,0.315,0.130
1509,0.280,0.120
1510,0.235,0.110
1511,0.170,0.095
1512,0.110,0.075
1513,0.075,0.050
1514,0.050,0.030
1515,0.040,0.025
1516,0.025,0.015
1517,-0.005,0.000
1518,-0.030,-0.010
1519,-0.060,-0.020
1520,-0.080,-0.030
1521,-0.080,-0.035
1522,-0.085,-0.040
1523,-0.095,-0.045
1524,-0.105,-0.050
1525,-0.120,-0.055
1526,-0.130,-0.060
1527,-0.135,-0.065
1528,-0.140,-0.070
1529,-0.140,-0.065
1530,-0.140,-0.060
1531,-0.145,-0.060
1532,-0.150,-0.065
1533,-0.150,-0.075
1534,-0.145,-0.075
1535,-0.135,-0.065
1536,-0.140,-0.065
1537,-0.155,-0.075
1538,-0.150,-0.075
1539,-0.135,-0.065
1540,-0.135,-0.060
1541,-0.145,-0.065
1542,-0.150,-0.065
1543,-0.150,-0.060
1544,-0.145,-0.065
1545,-0.140,-0.070
1546,-0.145,-0.050
1547,-0.150,-0.030
1548,-0.150,-0.040
1549,-0.150,-0.050
1550,-0.140,-0.035
1551,-0.135,-0.020
1552,-0.160,-0.030
1553,-0.175,-0.040
1554,-0.135,-0.030
1555,-0.110,-0.020
1556,-0.130,-0.020
1557,-0.140,-0.020
1558,-0.145,-0.025
1559,-0.150,-0.030
1560,-0.140,-0.030
1561,-0.130,-0.030
1562,-0.120,-0.040
1563,-0.110,-0.055
1564,-0.115,-0.070
1565,-0.125,-0.080
1566,-0.135,-0.075
1567,-0.135,-0.070
1568,-0.125,-0.075
1569,-0.120,-0.080
1570,-0.115,-0.080
1571,-0.120,-0.080
1572,-0.135,-0.085
1573,-0.130,-0.095
1574,-0.115,-0.105
1575,-0.125,-0.110
1576,-0.145,-0.110
1577,-0.150,-0.110
1578,-0.145,-0.115
1579,-0.140,-0.120
1580,-0.135,-0.115
1581,-0.130,-0.110
1582,-0.125,-0.110
1583,-0.120,-0.110
1584,-0.110,-0.110
1585,-0.120,-0.125
1586,-0.130,-0.140
1587,-0.135,-0.125
1588,-0.140,-0.110
1589,-0.145,-0.115
1590,-0.150,-0.120
1591,-0.155,-0.130
1592,-0.160,-0.140
1593,-0.170,-0.130
1594,-0.180,-0.120
1595,-0.175,-0.115
1596,-0.170,-0.110
1597,-0.165,-0.125
1598,-0.160,-0.135
1599,-0.165,-0.120
1600,-0.170,-0.110
1601,-0.165,-0.115
1602,-0.160,-0.120
1603,-0.170,-0.120
1604,-0.180,-0.120
1605,-0.180,-0.120
1606,-0.175,-0.115
1607,-0.165,-0.105
1608,-0.160,-0.100
1609,-0.165,-0.100
1610,-0.170,-0.100
1611,-0.170,-0.100
1612,-0.160,-0.085
1613,-0.145,-0.060
1614,-0.115,-0.050
1615,-0.070,-0.050
1616,-0.075,-0.050
1617,-0.095,-0.045
1618,-0.090,-0.020
1619,-0.075,0.005
1620,-0.055,0.015
1621,-0.035,0.025
1622,-0.020,0.020
1623,-0.005,0.005
1624,0.075,0.015
1625,0.000,0.000
1626,0.160,0.000
1627,0.160,-0.040
1628,0.155,-0.050
1629,0.145,-0.060
1630,0.065,-0.085
1631,-0.010,-0.110
1632,-0.030,-0.120
1633,-0.050,-0.130
1634,-0.065,-0.135
1635,-0.080,-0.140
1636,-0.105,-0.140
1637,-0.130,-0.140
1638,-0.170,-0.130
1639,-0.210,-0.130
1640,-0.240,-0.165
1641,-0.260,-0.185
1642,-0.260,-0.170
1643,-0.260,-0.160
1644,-0.255,-0.160
1645,-0.250,-0.160
1646,-0.255,-0.145
1647,-0.260,-0.140
1648,-0.260,-0.140
1649,-0.260,-0.140
1650,-0.255,-0.145
1651,-0.250,-0.150
1652,-0.250,-0.145
1653,-0.225,-0.120
1654,-0.185,-0.085
1655,-0.110,0.030
1656,-0.025,0.170
1657,-0.225,0.130
1658,-0.525,0.025
1659,-0.370,-0.020
1660,-0.095,-0.045
1661,0.220,0.010
1662,0.545,0.090
1663,0.870,0.155
1664,1.195,0.225
1665,1.015,-0.075
1666,0.795,-0.400
1667,0.470,-0.730
1668,0.140,-1.060
1669,-0.185,-1.385
1670,-0.515,-1.690
1671,-0.840,-1.735
1672,-1.170,-1.770
1673,-1.495,-1.680
1674,-1.780,-1.580
1675,-1.860,-1.460
1676,-1.850,-1.300
1677,-1.525,-1.025
1678,-1.200,-0.765
1679,-0.875,-0.550
1680,-0.605,-0.365
1681,-0.460,-0.255
1682,-0.350,-0.160
1683,-0.305,-0.105
1684,-0.275,-0.065
1685,-0.255,-0.050
1686,-0.230,-0.040
1687,-0.200,-0.035
1688,-0.170,-0.020
1689,-0.145,0.000
1690,-0.130,0.010
1691,-0.135,0.005
1692,-0.135,0.005
1693,-0.125,0.015
1694,-0.115,0.025
1695,-0.095,0.035
1696,-0.085,0.040
1697,-0.075,0.040
1698,-0.070,0.040
1699,-0.070,0.040
1700,-0.070,0.055
1701,-0.065,0.075
1702,-0.050,0.075
1703,-0.035,0.065
1704,-0.020,0.080
1705,-0.005,0.105
1706,0.000,0.100
1707,0.000,0.085
1708,0.020,0.090
1709,0.050,0.110
1710,0.060,0.115
1711,0.070,0.120
1712,0.085,0.145
1713,0.100,0.170
1714,0.125,0.180
1715,0.150,0.190
1716,0.165,0.210
1717,0.185,0.230
1718,0.215,0.240
1719,0.250,0.255
1720,0.290,0.275
1721,0.325,0.295
1722,0.345,0.315
1723,0.360,0.330
1724,0.370,0.340
1725,0.395,0.355
1726,0.440,0.370
1727,0.485,0.380
1728,0.525,0.390
1729,0.565,0.400
1730,0.600,0.405
1731,0.625,0.410
1732,0.640,0.415
1733,0.660,0.425
1734,0.680,0.435
1735,0.700,0.435
1736,0.720,0.425
1737,0.735,0.420
1738,0.745,0.415
1739,0.750,0.400
1740,0.755,0.385
1741,0.755,0.380
1742,0.745,0.380
1743,0.720,0.355
1744,0.695,0.320
1745,0.655,0.295
1746,0.615,0.275
1747,0.560,0.255
1748,0.505,0.235
1749,0.470,0.210
1750,0.500,0.230
1751,0.370,0.155
1752,0.310,0.130
1753,0.280,0.130
1754,0.250,0.130
1755,0.200,0.110
1756,0.160,0.090
1757,0.125,0.075
1758,0.095,0.060
1759,0.060,0.050
1760,0.030,0.040
1761,0.005,0.030
1762,-0.010,0.020
1763,-0.025,0.020
1764,-0.040,0.020
1765,-0.040,0.020
1766,-0.040,0.020
1767,-0.050,0.015
1768,-0.060,0.010
1769,-0.055,0.010
1770,-0.050,0.010
1771,-0.055,0.005
1772,-0.065,0.005
1773,-0.075,0.020
1774,-0.080,0.025
1775,-0.075,0.015
1776,-0.070,0.015
1777,-0.070,0.025
1778,-0.065,0.030
1779,-0.055,0.030
1780,-0.045,0.030
1781,-0.035,0.030
1782,-0.030,0.030
1783,-0.030,0.035
1784,-0.030,0.045
1785,-0.030,0.055
1786,-0.030,0.060
1787,-0.025,0.060
1788,-0.020,0.060
1789,-0.025,0.060
1790,-0.015,0.060
1791,0.005,0.065
1792,0.010,0.075
1793,0.010,0.080
1794,0.025,0.090
1795,0.040,0.100
1796,0.035,0.095
1797,0.030,0.090
1798,0.045,0.075
1799,0.060,0.060
1800,0.065,0.065
1801,0.070,0.070
1802,0.055,0.065
1803,0.040,0.060
1804,0.055,0.055
1805,0.070,0.050
1806,0.080,0.050
1807,0.085,0.050
1808,0.065,0.045
1809,0.050,0.040
1810,0.055,0.030
1811,0.060,0.020
1812,0.055,0.025
1813,0.050,0.030
1814,0.050,0.025
1815,0.050,0.020
1816,0.055,0.020
1817,0.055,0.020
1818,0.045,0.015
1819,0.030,0.010
1820,0.010,0.005
1821,0.010,0.000
1822,0.025,0.005
1823,0.030,0.010
1824,0.030,0.010
1825,0.020,0.010
1826,0.005,0.015
1827,0.000,0.020
1828,-0.005,0.015
1829,0.000,0.005
1830,0.015,-0.005
1831,-0.010,-0.005
1832,-0.045,0.005
1833,-0.045,0.015
1834,-0.030,0.030
1835,-0.020,0.025
1836,-0.010,0.020
1837,-0.035,0.020
1838,-0.060,0.020
1839,-0.050,0.020
1840,-0.040,0.020
1841,-0.030,0.000
1842,-0.020,-0.015
1843,-0.030,0.020
1844,-0.040,0.045
1845,-0.045,0.025
1846,-0.055,0.010
1847,-0.075,0.015
1848,-0.080,0.020
1849,-0.035,0.030
1850,-0.005,0.045
1851,0.015,0.060
1852,0.040,0.070
1853,0.070,0.080
1854,0.090,0.095
1855,0.075,0.110
1856,0.075,0.110
1857,0.085,0.090
1858,0.100,0.090
1859,0.120,0.120
1860,0.155,0.130
1861,0.195,0.130
1862,0.240,0.130
1863,0.295,0.135
1864,0.300,0.115
1865,0.285,0.080
1866,0.255,0.070
1867,0.220,0.075
1868,0.185,0.045
1869,0.150,0.000
1870,0.125,0.005
1871,0.105,0.025
1872,0.075,0.030
1873,0.045,0.030
1874,0.010,0.025
1875,0.040,0.030
1876,-0.050,0.010
1877,-0.070,0.010
1878,-0.090,-0.010
1879,-0.110,-0.030
1880,-0.100,-0.020
1881,-0.090,-0.010
1882,-0.095,-0.010
1883,-0.100,-0.010
1884,-0.110,-0.015
1885,-0.115,-0.020
1886,-0.090,-0.015
1887,-0.070,-0.010
1888,-0.085,-0.020
1889,-0.095,-0.030
1890,-0.080,-0.020
1891,-0.030,0.040
1892,0.075,0.180
1893,0.085,0.260
1894,-0.045,0.250
1895,-0.195,0.190
1896,-0.360,0.075
1897,-0.275,0.050
1898,0.050,0.110
1899,0.375,0.195
1900,0.700,0.300
1901,1.025,0.295
1902,1.350,0.220
1903,1.250,-0.025
1904,0.925,-0.350
1905,0.595,-0.680
1906,0.270,-1.005
1907,-0.060,-1.335
1908,-0.385,-1.660
1909,-0.715,-1.725
1910,-1.040,-1.715
1911,-1.370,-1.570
1912,-1.695,-1.400
1913,-1.550,-1.175
1914,-1.335,-0.935
1915,-1.020,-0.650
1916,-0.695,-0.355
1917,-0.500,-0.260
1918,-0.310,-0.170
1919,-0.255,-0.060
1920,-0.195,0.040
1921,-0.130,0.040
1922,-0.070,0.040
1923,-0.090,0.050
1924,-0.100,0.060
1925,-0.035,0.075
1926,0.015,0.090
1927,-0.015,0.085
1928,-0.040,0.080
1929,-0.025,0.080
1930,-0.010,0.080
1931,0.000,0.085
1932,0.010,0.095
1933,0.020,0.120
1934,0.030,0.140
1935,0.030,0.145
1936,0.030,0.150
1937,0.020,0.145
1938,0.040,0.145
1939,0.105,0.160
1940,0.125,0.185
1941,0.095,0.215
1942,0.075,0.215
1943,0.065,0.185
1944,0.095,0.195
1945,0.150,0.245
1946,0.180,0.260
1947,0.195,0.255
1948,0.185,0.275
1949,0.165,0.310
1950,0.210,0.320
1951,0.275,0.320
1952,0.310,0.330
1953,0.335,0.345
1954,0.320,0.350
1955,0.295,0.350
1956,0.320,0.390
1957,0.355,0.435
1958,0.375,0.435
1959,0.400,0.420
1960,0.420,0.435
1961,0.440,0.450
1962,0.515,0.480
1963,0.580,0.510
1964,0.615,0.505
1965,0.650,0.500
1966,0.635,0.515
1967,0.630,0.535
1968,0.685,0.565
1969,0.730,0.575
1970,0.745,0.515
1971,0.760,0.485
1972,0.775,0.545
1973,0.795,0.585
1974,0.810,0.565
1975,0.825,0.540
1976,0.845,0.510
1977,0.890,0.500
1978,0.960,0.525
1979,0.935,0.505
1980,0.795,0.420
1981,0.735,0.395
1982,0.745,0.430
1983,0.710,0.405
1984,0.640,0.325
1985,0.605,0.315
1986,0.590,0.360
1987,0.525,0.340
1988,0.445,0.280
1989,0.395,0.255
1990,0.360,0.245
1991,0.295,0.210
1992,0.215,0.170
1993,0.185,0.170
1994,0.165,0.185
1995,0.165,0.190
1996,0.175,0.195
1997,0.120,0.185
1998,0.055,0.165
1999,0.030,0.160
2000,0.050,0.160
2001,0.035,0.150
2002,0.070,0.150
2003,0.040,0.135
2004,0.010,0.120
2005,-0.010,0.140
2006,-0.030,0.160
2007,-0.025,0.150
2008,-0.020,0.140
2009,-0.035,0.140
2010,-0.045,0.140
2011,-0.015,0.135
2012,0.010,0.130
2013,0.015,0.120
2014,0.015,0.115
2015,-0.010,0.130
2016,-0.025,0.125
2017,0.005,0.085
2018,0.010,0.080
2019,-0.020,0.130
2020,-0.025,0.165
2021,0.020,0.180
2022,0.030,0.180
2023,0.010,0.155
2024,0.000,0.140
2025,0.000,0.140
2026,0.000,0.140
2027,-0.005,0.145
2028,0.010,0.145
2029,0.045,0.135
2030,0.055,0.130
2031,0.045,0.125
2032,0.040,0.135
2033,0.040,0.155
2034,0.040,0.130
2035,0.040,0.090
2036,0.045,0.095
2037,0.055,0.115
2038,0.090,0.120
2039,0.125,0.125
2040,0.110,0.130
2041,0.085,0.125
2042,0.065,0.110
2043,0.050,0.100
2044,0.055,0.090
2045,0.060,0.080
2046,0.065,0.060
2047,0.070,0.040
2048,0.055,0.050
2049,0.040,0.060
2050,0.055,0.075
2051,0.070,0.090
2052,0.090,0.075
2053,0.100,0.060
2054,0.060,0.055
2055,0.030,0.050
2056,0.040,0.045
2057,0.060,0.040
2058,0.105,0.050
2059,0.110,0.055
2060,0.055,0.040
2061,0.015,0.035
2062,-0.005,0.055
2063,-0.015,0.050
2064,0.000,0.005
2065,0.015,-0.010
2066,0.025,0.015
2067,0.025,0.030
2068,0.010,0.035
2069,0.000,0.040
2070,0.005,0.045
2071,0.015,0.050
2072,0.025,0.050
2073,0.050,0.050
2074,0.080,0.055
2075,0.095,0.060
2076,0.105,0.065
2077,0.110,0.090
2078,0.115,0.115
2079,0.110,0.115
2080,0.095,0.105
2081,0.155,0.100
2082,0.225,0.105
2083,0.255,0.115
2084,0.290,0.130
2085,0.345,0.105
2086,0.400,0.080
2087,0.370,0.055
2088,0.335,0.030
2089,0.290,0.010
2090,0.245,-0.010
2091,0.185,-0.010
2092,0.135,-0.010
2093,0.110,-0.025
2094,0.090,-0.040
2095,0.095,-0.040
2096,0.095,-0.040
2097,0.075,-0.030
2098,0.045,-0.020
2099,-0.015,-0.025
2100,-0.060,-0.030
2101,-0.095,-0.030
2102,-0.120,-0.030
2103,-0.110,-0.030
2104,-0.090,-0.030
2105,-0.065,-0.025
2106,-0.045,-0.015
2107,-0.035,-0.005
2108,-0.055,0.000
2109,-0.100,0.000
2110,-0.105,0.000
2111,-0.080,0.000
2112,-0.060,0.000
2113,-0.045,0.005
2114,0.025,0.095
2115,0.115,0.220
2116,0.070,0.265
2117,-0.030,0.285
2118,-0.175,0.190
2119,-0.335,0.060
2120,-0.085,0.090
2121,0.240,0.150
2122,0.565,0.265
2123,0.890,0.380
2124,1.215,0.300
2125,0.910,0.390
2126,1.220,-0.125
2127,0.890,-0.455
2128,0.565,-0.780
2129,0.235,-1.110
2130,-0.090,-1.435
2131,-0.420,-1.725
2132,-0.745,-1.775
2133,-1.075,-1.775
2134,-1.400,-1.525
2135,-1.585,-1.275
2136,-1.275,-1.025
2137,-0.960,-0.765
2138,-0.635,-0.490
2139,-0.380,-0.265
2140,-0.265,-0.145
2141,-0.175,-0.055
2142,-0.130,-0.015
2143,-0.100,0.010
2144,-0.095,0.015
2145,-0.075,0.025
2146,-0.030,0.050
2147,0.005,0.060
2148,0.040,0.065
2149,0.040,0.075
2150,0.005,0.090
2151,0.010,0.100
2152,0.055,0.100
2153,0.060,0.100
2154,0.045,0.100
2155,0.055,0.105
2156,0.080,0.115
2157,0.100,0.130
2158,0.115,0.145
2159,0.105,0.140
2160,0.085,0.125
2161,0.090,0.135
2162,0.105,0.155
2163,0.095,0.160
2164,0.075,0.160
2165,0.150,0.165
2166,0.235,0.175
2167,0.200,0.190
2168,0.160,0.200
2169,0.180,0.215
2170,0.200,0.230
2171,0.215,0.235
2172,0.230,0.240
2173,0.260,0.280
2174,0.295,0.310
2175,0.335,0.295
2176,0.370,0.285
2177,0.385,0.315
2178,0.400,0.340
2179,0.415,0.345
2180,0.435,0.355
2181,0.470,0.380
2182,0.510,0.405
2183,0.565,0.430
2184,0.605,0.450
2185,0.625,0.460
2186,0.650,0.470
2187,0.675,0.475
2188,0.715,0.475
2189,0.765,0.465
2190,0.800,0.470
2191,0.825,0.495
2192,0.845,0.500
2193,0.855,0.480
2194,0.875,0.475
2195,0.910,0.495
2196,0.920,0.480
2197,0.920,0.450
2198,0.925,0.440
2199,0.935,0.435
2200,0.940,0.420
2201,0.935,0.405
2202,0.915,0.380
2203,0.895,0.355
2204,0.850,0.320
2205,0.805,0.285
2206,0.710,0.275
2207,0.605,0.265
2208,0.600,0.250
2209,0.590,0.230
2210,0.500,0.205
2211,0.410,0.180
2212,0.395,0.155
2213,0.380,0.130
2214,0.355,0.135
2215,0.325,0.140
2216,0.290,0.125
2217,0.250,0.105
2218,0.190,0.080
2219,0.145,0.060
2220,0.170,0.070
2221,0.180,0.080
2222,0.140,0.065
2223,0.110,0.050
2224,0.105,0.055
2225,0.095,0.060
2226,0.080,0.055
2227,0.070,0.050
2228,0.080,0.055
2229,0.080,0.060
2230,0.055,0.055
2231,0.055,0.050
2232,0.085,0.055
2233,0.095,0.060
2234,0.080,0.055
2235,0.070,0.050
2236,0.065,0.050
2237,0.050,0.050
2238,0.035,0.050
2239,0.030,0.050
2240,0.025,0.055
2241,0.030,0.060
2242,0.045,0.065
2243,0.045,0.065
2244,0.035,0.055
2245,0.040,0.055
2246,0.055,0.065
2247,0.075,0.070
2248,0.095,0.070
2249,0.085,0.070
2250,0.100,0.070
2251,0.075,0.060
2252,0.090,0.060
2253,0.080,0.060
2254,0.070,0.060
2255,0.075,0.065
2256,0.080,0.070
2257,0.060,0.045
2258,0.040,0.020
2259,0.025,0.035
2260,0.020,0.050
2261,0.065,0.055
2262,0.100,0.060
2263,0.085,0.045
2264,0.075,0.030
2265,0.090,0.040
2266,0.095,0.045
2267,0.075,0.025
2268,0.060,0.010
2269,0.050,0.020
2270,0.040,0.030
2271,0.035,0.025
2272,0.040,0.030
2273,0.065,0.050
2274,0.045,0.045
2275,-0.020,0.015
2276,-0.025,0.005
2277,0.020,0.020
2278,0.045,0.030
2279,0.055,0.025
2280,0.050,0.020
2281,0.035,0.020
2282,0.030,0.030
2283,0.025,0.045
2284,0.025,0.040
2285,0.035,0.025
2286,0.015,0.010
2287,-0.015,-0.005
2288,-0.015,-0.010
2289,-0.005,-0.005
2290,0.005,0.000
2291,0.015,-0.005
2292,0.020,-0.010
2293,0.020,-0.010
2294,0.025,-0.020
2295,0.030,-0.030
2296,0.025,-0.015
2297,0.020,0.000
2298,0.005,-0.010
2299,-0.010,-0.020
2300,0.010,-0.020
2301,0.030,-0.020
2302,0.025,-0.015
2303,0.020,-0.010
2304,0.020,0.000
2305,0.035,0.015
2306,0.085,0.040
2307,0.115,0.065
2308,0.095,0.090
2309,0.085,0.105
2310,0.105,0.090
2311,0.120,0.085
2312,0.115,0.100
2313,0.120,0.115
2314,0.140,0.125
2315,0.205,0.140
2316,0.305,0.165
2317,0.330,0.150
2318,0.285,0.095
2319,0.275,0.075
2320,0.285,0.095
2321,0.270,0.070
2322,0.230,0.025
2323,0.165,0.010
2324,0.090,0.015
2325,0.070,0.000
2326,0.065,-0.025
2327,0.060,-0.030
2328,0.060,-0.030
2329,0.000,-0.030
2330,-0.070,-0.030
2331,-0.080,-0.040
2332,-0.075,-0.055
2333,-0.100,-0.060
2334,-0.140,-0.050
2335,-0.140,-0.055
2336,-0.140,-0.060
2337,-0.110,-0.065
2338,-0.080,-0.070
2339,-0.085,-0.065
2340,-0.090,-0.060
2341,-0.065,-0.055
2342,-0.045,-0.050
2343,-0.075,-0.050
2344,-0.095,-0.045
2345,-0.075,-0.015
2346,-0.025,0.055
2347,0.095,0.220
2348,0.075,0.300
2349,-0.245,0.200
2350,-0.360,0.125
2351,-0.150,0.085
2352,0.110,0.095
2353,0.435,0.185
2354,0.760,0.260
2355,1.085,0.325
2356,1.220,0.190
2357,1.180,-0.140
2358,0.975,-0.465
2359,0.645,-0.795
2360,0.320,-1.120
2361,-0.010,-1.450
2362,-0.340,-1.620
2363,-0.665,-1.710
2364,-0.995,-1.630
2365,-1.320,-1.480
2366,-1.545,-1.330
2367,-1.730,-1.180
2368,-1.510,-0.910
2369,-1.185,-0.615
2370,-0.860,-0.425
2371,-0.535,-0.250
2372,-0.370,-0.125
2373,-0.220,-0.010
2374,-0.200,0.030
2375,-0.210,0.000
2376,-0.130,0.085
2377,-0.080,0.100
2378,-0.050,0.110
2379,-0.020,0.120
2380,-0.050,0.125
2381,-0.080,0.130
2382,-0.045,0.120
2383,-0.020,0.110
2384,-0.030,0.130
2385,-0.035,0.150
2386,-0.010,0.165
2387,0.010,0.175
2388,0.005,0.145
2389,0.010,0.130
2390,0.040,0.165
2391,0.075,0.190
2392,0.115,0.190
2393,0.125,0.190
2394,0.085,0.200
2395,0.075,0.210
2396,0.120,0.225
2397,0.145,0.230
2398,0.160,0.230
2399,0.165,0.235
2400,0.155,0.250
2401,0.160,0.260
2402,0.180,0.255
2403,0.220,0.270
2404,0.270,0.300
2405,0.295,0.315
2406,0.305,0.325
2407,0.310,0.350
2408,0.305,0.380
2409,0.320,0.390
2410,0.345,0.395
2411,0.390,0.430
2412,0.440,0.465
2413,0.465,0.470
2414,0.485,0.475
2415,0.520,0.500
2416,0.555,0.525
2417,0.570,0.530
2418,0.580,0.530
2419,0.615,0.550
2420,0.650,0.570
2421,0.695,0.570
2422,0.740,0.570
2423,0.750,0.550
2424,0.765,0.530
2425,0.805,0.540
2426,0.840,0.550
2427,0.845,0.540
2428,0.850,0.530
2429,0.860,0.530
2430,0.860,0.525
2431,0.825,0.505
2432,0.805,0.480
2433,0.825,0.450
2434,0.825,0.430
2435,0.785,0.430
2436,0.730,0.405
2437,0.650,0.350
2438,0.600,0.320
2439,0.575,0.315
2440,0.535,0.300
2441,0.490,0.280
2442,0.435,0.255
2443,0.365,0.225
2444,0.315,0.200
2445,0.265,0.180
2446,0.225,0.170
2447,0.185,0.175
2448,0.150,0.160
2449,0.120,0.130
2450,0.095,0.120
2451,0.075,0.120
2452,0.060,0.120
2453,0.045,0.115
2454,0.040,0.110
2455,0.040,0.115
2456,0.040,0.115
2457,0.045,0.105
2458,0.020,0.100
2459,-0.020,0.090
2460,-0.020,0.095
2461,-0.020,0.100
2462,-0.035,0.090
2463,-0.050,0.080
2464,-0.060,0.085
2465,-0.070,0.090
2466,-0.035,0.090
2467,-0.015,0.090
2468,-0.040,0.090
2469,-0.050,0.095
2470,-0.010,0.115
2471,0.020,0.130
2472,0.005,0.115
2473,-0.010,0.100
2474,0.000,0.100
2475,0.010,0.100
2476,0.015,0.105
2477,0.015,0.100
2478,-0.005,0.075
2479,-0.020,0.060
2480,-0.025,0.055
2481,-0.015,0.050
2482,0.015,0.050
2483,0.025,0.050
2484,0.015,0.050
2485,0.005,0.045
2486,-0.010,0.035
2487,-0.010,0.030
2488,0.005,0.030
2489,0.005,0.020
2490,-0.005,0.005
2491,0.000,0.000
2492,0.015,0.005
2493,0.010,0.010
2494,-0.005,0.010
2495,-0.005,0.010
2496,0.005,0.005
2497,-0.005,-0.010
2498,-0.025,-0.025
2499,-0.030,-0.030
2500,-0.030,-0.030
2501,-0.010,-0.030
2502,0.000,-0.040
2503,-0.020,-0.035
2504,-0.040,-0.030
2505,-0.035,-0.035
2506,-0.030,-0.040
2507,-0.050,-0.055
2508,-0.070,-0.070
2509,-0.075,-0.060
2510,-0.080,-0.050
2511,-0.055,-0.040
2512,-0.040,-0.030
2513,-0.050,-0.035
2514,-0.065,-0.040
2515,-0.085,-0.045
2516,-0.105,-0.050
2517,-0.120,-0.040
2518,-0.130,-0.030
2519,-0.130,-0.035
2520,-0.120,-0.040
2521,-0.095,-0.025
2522,-0.090,-0.020
2523,-0.110,-0.020
2524,-0.120,-0.020
2525,-0.120,-0.015
2526,-0.130,-0.015
2527,-0.150,-0.030
2528,-0.150,-0.035
2529,-0.130,-0.025
2530,-0.130,-0.025
2531,-0.145,-0.035
2532,-0.155,-0.030
2533,-0.165,-0.015
2534,-0.165,-0.015
2535,-0.155,-0.025
2536,-0.100,0.000
2537,-0.040,0.035
2538,-0.030,0.040
2539,-0.025,0.035
2540,-0.020,0.050
2541,-0.015,0.075
2542,-0.025,0.070
2543,-0.040,0.060
2544,-0.005,0.065
2545,0.030,0.070
2546,0.085,0.065
2547,0.130,0.060
2548,0.145,0.040
2549,0.160,0.020
2550,0.160,0.005
2551,0.160,-0.010
2552,0.145,-0.020
2553,0.115,-0.035
2554,0.040,-0.060
2555,-0.010,-0.080
2556,-0.010,-0.080
2557,-0.020,-0.080
2558,-0.050,-0.080
2559,-0.075,-0.080
2560,-0.090,-0.085
2561,-0.130,-0.100
2562,-0.210,-0.125
2563,-0.240,-0.140
2564,-0.220,-0.135
2565,-0.215,-0.130
2566,-0.230,-0.135
2567,-0.245,-0.135
2568,-0.260,-0.120
2569,-0.270,-0.115
2570,-0.275,-0.125
2571,-0.260,-0.120
2572,-0.230,-0.100
2573,-0.230,-0.090
2574,-0.245,-0.085
2575,-0.230,-0.080
2576,-0.205,-0.080
2577,-0.145,0.030
2578,-0.080,0.170
2579,-0.190,0.185
2580,-0.325,0.175
2581,-0.340,0.085
2582,-0.335,-0.015
2583,-0.020,0.035
2584,0.310,0.100
2585,0.635,0.200
2586,0.960,0.295
2587,1.285,0.140
2588,1.540,-0.035
2589,1.215,-0.360
2590,0.885,-0.690
2591,0.560,-1.015
2592,0.230,-1.325
2593,-0.095,-1.550
2594,-0.425,-1.710
2595,-0.750,-1.670
2596,-1.080,-1.600
2597,-1.405,-1.465
2598,-1.585,-1.285
2599,-1.460,-1.035
2600,-1.255,-0.790
2601,-0.930,-0.550
2602,-0.675,-0.365
2603,-0.510,-0.260
2604,-0.390,-0.175
2605,-0.325,-0.110
2606,-0.280,-0.075
2607,-0.255,-0.065
2608,-0.235,-0.055
2609,-0.220,-0.040
2610,-0.205,-0.030
2611,-0.195,-0.025
2612,-0.175,-0.015
2613,-0.150,-0.005
2614,-0.130,0.005
2615,-0.105,0.015
2616,-0.100,0.020
2617,-0.095,0.025
2618,-0.085,0.040
2619,-0.075,0.055
2620,-0.080,0.060
2621,-0.095,0.055
2622,-0.085,0.055
2623,-0.065,0.065
2624,-0.065,0.070
2625,-0.060,0.070
2626,-0.070,0.085
2627,-0.060,0.090
2628,-0.030,0.090
2629,0.000,0.090
2630,-0.005,0.110
2631,-0.005,0.130
2632,0.035,0.150
2633,0.070,0.170
2634,0.090,0.185
2635,0.110,0.200
2636,0.120,0.210
2637,0.140,0.225
2638,0.175,0.245
2639,0.200,0.265
2640,0.210,0.290
2641,0.225,0.315
2642,0.245,0.335
2643,0.275,0.355
2644,0.325,0.375
2645,0.355,0.390
2646,0.370,0.405
2647,0.400,0.425
2648,0.440,0.455
2649,0.460,0.465
2650,0.460,0.455
2651,0.500,0.465
2652,0.575,0.490
2653,0.600,0.495
2654,0.600,0.485
2655,0.615,0.490
2656,0.640,0.510
2657,0.690,0.515
2658,0.745,0.505
2659,0.750,0.495
2660,0.735,0.485
2661,0.740,0.480
2662,0.755,0.475
2663,0.730,0.440
2664,0.695,0.405
2665,0.660,0.380
2666,0.625,0.355
2667,0.595,0.340
2668,0.570,0.330
2669,0.515,0.290
2670,0.455,0.250
2671,0.385,0.235
2672,0.315,0.215
2673,0.275,0.175
2674,0.230,0.140
2675,0.170,0.110
2676,0.115,0.090
2677,0.085,0.070
2678,0.050,0.045
2679,0.010,0.025
2680,-0.025,0.005
2681,-0.045,-0.020
2682,-0.065,-0.040
2683,-0.090,-0.040
2684,-0.110,-0.040
2685,-0.100,-0.045
2686,-0.100,-0.050
2687,-0.125,-0.055
2688,-0.155,-0.060
2689,-0.190,-0.060
2690,-0.200,-0.060
2691,-0.180,-0.055
2692,-0.175,-0.050
2693,-0.190,-0.055
2694,-0.200,-0.055
2695,-0.200,-0.035
2696,-0.205,-0.035
2697,-0.215,-0.045
2698,-0.220,-0.050
2699,-0.225,-0.050
2700,-0.210,-0.030
2701,-0.185,-0.005
2702,-0.180,-0.005
2703,-0.180,-0.015
2704,-0.185,-0.025
2705,-0.195,-0.035
2706,-0.200,-0.030
2707,-0.200,-0.015
2708,-0.195,-0.015
2709,-0.180,-0.030
2710,-0.175,-0.025
2711,-0.170,-0.020
2712,-0.185,-0.040
2713,-0.200,-0.060
2714,-0.175,-0.045
2715,-0.150,-0.030
2716,-0.145,-0.035
2717,-0.140,-0.040
2718,-0.140,-0.040
2719,-0.140,-0.040
2720,-0.145,-0.050
2721,-0.150,-0.060
2722,-0.160,-0.060
2723,-0.170,-0.060
2724,-0.165,-0.055
2725,-0.160,-0.050
2726,-0.155,-0.050
2727,-0.150,-0.055
2728,-0.160,-0.070
2729,-0.170,-0.080
2730,-0.175,-0.075
2731,-0.185,-0.075
2732,-0.200,-0.085
2733,-0.210,-0.085
2734,-0.205,-0.075
2735,-0.215,-0.070
2736,-0.245,-0.070
2737,-0.240,-0.070
2738,-0.210,-0.070
2739,-0.210,-0.070
2740,-0.235,-0.070
2741,-0.250,-0.070
2742,-0.265,-0.065
2743,-0.270,-0.060
2744,-0.265,-0.065
2745,-0.265,-0.070
2746,-0.275,-0.075
2747,-0.285,-0.080
2748,-0.295,-0.085
2749,-0.295,-0.090
2750,-0.300,-0.090
2751,-0.305,-0.100
2752,-0.330,-0.110
2753,-0.300,-0.085
2754,-0.270,-0.060
2755,-0.290,-0.080
2756,-0.310,-0.100
2757,-0.320,-0.095
2758,-0.330,-0.090
2759,-0.320,-0.075
2760,-0.310,-0.060
2761,-0.325,-0.065
2762,-0.340,-0.070
2763,-0.340,-0.065
2764,-0.335,-0.055
2765,-0.310,-0.040
2766,-0.285,-0.030
2767,-0.255,-0.020
2768,-0.235,-0.005
2769,-0.220,0.010
2770,-0.210,0.020
2771,-0.195,0.035
2772,-0.205,0.040
2773,-0.240,0.035
2774,-0.225,0.030
2775,-0.160,0.035
2776,-0.115,0.040
2777,-0.090,0.040
2778,-0.055,0.035
2779,-0.015,0.025
2780,-0.010,0.005
2781,-0.030,-0.020
2782,-0.045,-0.045
2783,-0.055,-0.065
2784,-0.115,-0.085
2785,-0.185,-0.105
2786,-0.215,-0.125
2787,-0.235,-0.145
2788,-0.220,-0.135
2789,-0.195,-0.115
2790,-0.265,-0.130
2791,-0.345,-0.155
2792,-0.395,-0.160
2793,-0.440,-0.160
2794,-0.425,-0.150
2795,-0.410,-0.140
2796,-0.400,-0.135
2797,-0.390,-0.130
2798,-0.410,-0.130
2799,-0.430,-0.130
2800,-0.425,-0.125
2801,-0.420,-0.120
2802,-0.400,-0.125
2803,-0.380,-0.130
2804,-0.385,-0.115
2805,-0.390,-0.100
2806,-0.380,-0.095
2807,-0.335,-0.040
2808,-0.235,0.110
2809,-0.260,0.180
2810,-0.485,0.130
2811,-0.580,0.065
2812,-0.515,-0.025
2813,-0.320,-0.035
2814,0.005,0.035
2815,0.330,0.125
2816,0.655,0.235
2817,0.980,0.130
2818,1.305,-0.125
2819,1.220,-0.425
2820,0.890,-0.755
2821,0.560,-1.085
2822,0.235,-1.410
2823,-0.095,-1.635
2824,-0.420,-1.825
2825,-0.750,-1.790
2826,-1.075,-1.690
2827,-1.405,-1.555
2828,-1.730,-1.410
2829,-1.590,-1.130
2830,-1.380,-0.825
2831,-1.115,-0.620
2832,-0.850,-0.420
2833,-0.720,-0.325
2834,-0.590,-0.230
2835,-0.540,-0.180
2836,-0.490,-0.130
2837,-0.455,-0.125
2838,-0.420,-0.120
2839,-0.430,-0.115
2840,-0.435,-0.110
2841,-0.390,-0.100
2842,-0.350,-0.090
2843,-0.365,-0.075
2844,-0.375,-0.060
2845,-0.340,-0.045
2846,-0.310,-0.030
2847,-0.320,-0.040
2848,-0.325,-0.045
2849,-0.310,-0.025
2850,-0.295,-0.010
2851,-0.280,-0.010
2852,-0.270,-0.010
2853,-0.275,-0.005
2854,-0.280,0.000
2855,-0.265,0.000
2856,-0.245,0.010
2857,-0.210,0.030
2858,-0.200,0.040
2859,-0.220,0.040
2860,-0.215,0.050
2861,-0.185,0.070
2862,-0.150,0.100
2863,-0.115,0.130
2864,-0.085,0.140
2865,-0.060,0.140
2866,-0.050,0.145
2867,-0.050,0.155
2868,-0.035,0.170
2869,-0.015,0.185
2870,0.030,0.205
2871,0.085,0.225
2872,0.105,0.235
2873,0.125,0.245
2874,0.150,0.275
2875,0.130,0.250
2876,0.240,0.315
2877,0.300,0.320
2878,0.320,0.340
2879,0.340,0.360
2880,0.350,0.345
2881,0.365,0.330
2882,0.420,0.365
2883,0.475,0.390
2884,0.520,0.400
2885,0.560,0.410
2886,0.555,0.400
2887,0.550,0.390
2888,0.565,0.375
2889,0.590,0.360
2890,0.625,0.360
2891,0.645,0.360
2892,0.630,0.360
2893,0.610,0.345
2894,0.585,0.310
2895,0.570,0.290
2896,0.565,0.285
2897,0.520,0.260
2898,0.430,0.220
2899,0.365,0.190
2900,0.320,0.160
2901,0.265,0.135
2902,0.205,0.110
2903,0.145,0.090
2904,0.090,0.075
2905,0.035,0.045
2906,-0.025,0.005
2907,-0.055,0.000
2908,-0.075,0.015
2909,-0.110,-0.005
2910,-0.150,-0.040
2911,-0.190,-0.045
2912,-0.235,-0.035
2913,-0.250,-0.030
2914,-0.265,-0.030
2915,-0.270,-0.035
2916,-0.275,-0.045
2917,-0.295,-0.060
2918,-0.310,-0.070
2919,-0.320,-0.065
2920,-0.330,-0.060
2921,-0.330,-0.055
2922,-0.330,-0.050
2923,-0.335,-0.050
2924,-0.340,-0.050
2925,-0.340,-0.050
2926,-0.340,-0.050
2927,-0.335,-0.050
2928,-0.330,-0.050
2929,-0.345,-0.045
2930,-0.355,-0.040
2931,-0.330,-0.035
2932,-0.305,-0.030
2933,-0.290,-0.030
2934,-0.290,-0.030
2935,-0.320,-0.035
2936,-0.330,-0.040
2937,-0.300,-0.040
2938,-0.285,-0.045
2939,-0.300,-0.055
2940,-0.305,-0.050
2941,-0.295,-0.030
2942,-0.290,-0.030
2943,-0.285,-0.050
2944,-0.280,-0.060
2945,-0.280,-0.060
2946,-0.280,-0.050
2947,-0.280,-0.035
2948,-0.280,-0.035
2949,-0.280,-0.045
2950,-0.275,-0.055
2951,-0.265,-0.065
2952,-0.265,-0.050
2953,-0.275,-0.025
2954,-0.280,-0.030
2955,-0.275,-0.045
2956,-0.265,-0.045
2957,-0.255,-0.035
2958,-0.260,-0.030
2959,-0.280,-0.030
2960,-0.280,-0.040
2961,-0.280,-0.050
2962,-0.300,-0.060
2963,-0.320,-0.070
2964,-0.285,-0.035
2965,-0.250,0.000
2966,-0.260,-0.015
2967,-0.270,-0.030
2968,-0.290,-0.035
2969,-0.310,-0.040
2970,-0.295,-0.030
2971,-0.280,-0.020
2972,-0.270,-0.010
2973,-0.260,0.000
2974,-0.270,0.000
2975,-0.280,0.000
2976,-0.290,-0.010
2977,-0.300,-0.020
2978,-0.295,-0.020
2979,-0.290,-0.020
2980,-0.285,-0.005
2981,-0.285,0.000
2982,-0.300,-0.005
2983,-0.310,-0.005
2984,-0.315,0.005
2985,-0.315,0.005
2986,-0.305,-0.005
2987,-0.310,-0.010
2988,-0.325,-0.005
2989,-0.330,-0.010
2990,-0.325,-0.025
2991,-0.290,-0.015
2992,-0.250,0.005
2993,-0.240,0.010
2994,-0.235,0.015
2995,-0.230,0.020
2996,-0.225,0.025
2997,-0.225,0.015
2998,-0.235,-0.005
2999,-0.195,0.015
3000,-0.240,-0.010
3001,-0.110,0.025
3002,-0.080,0.000
3003,-0.045,-0.005
3004,-0.010,-0.010
3005,-0.040,-0.040
3006,-0.070,-0.070
3007,-0.060,-0.060
3008,-0.065,-0.055
3009,-0.145,-0.090
3010,-0.210,-0.120
3011,-0.220,-0.120
3012,-0.230,-0.120
3013,-0.240,-0.110
3014,-0.260,-0.105
3015,-0.295,-0.120
3016,-0.335,-0.130
3017,-0.380,-0.130
3018,-0.415,-0.130
3019,-0.430,-0.135
3020,-0.440,-0.140
3021,-0.425,-0.140
3022,-0.415,-0.140
3023,-0.405,-0.135
3024,-0.395,-0.130
3025,-0.380,-0.125
3026,-0.380,-0.120
3027,-0.400,-0.120
3028,-0.395,-0.115
3029,-0.370,-0.105
3030,-0.365,-0.100
3031,-0.375,-0.100
3032,-0.330,-0.020
3033,-0.255,0.095
3034,-0.325,0.140
3035,-0.430,0.165
3036,-0.545,0.070
3037,-0.655,-0.055
3038,-0.385,-0.015
3039,-0.060,0.055
3040,0.265,0.170
3041,0.590,0.285
3042,0.920,0.205
3043,1.225,0.110
3044,0.900,-0.215
3045,0.570,-0.545
3046,0.245,-0.870
3047,-0.085,-1.200
3048,-0.410,-1.525
3049,-0.740,-1.795
3050,-1.065,-1.765
3051,-1.395,-1.705
3052,-1.720,-1.545
3053,-1.920,-1.360
3054,-1.750,-1.120
3055,-1.530,-0.875
3056,-1.205,-0.630
3057,-0.920,-0.425
3058,-0.700,-0.285
3059,-0.545,-0.185
3060,-0.470,-0.140
3061,-0.430,-0.110
3062,-0.435,-0.100
3063,-0.420,-0.080
3064,-0.375,-0.060
3065,-0.345,-0.045
3066,-0.330,-0.030
3067,-0.315,-0.020
3068,-0.300,-0.020
3069,-0.290,-0.020
3070,-0.285,-0.020
3071,-0.275,-0.005
3072,-0.265,0.020
3073,-0.260,0.030
3074,-0.255,0.030
3075,-0.235,0.035
3076,-0.215,0.045
3077,-0.210,0.050
3078,-0.215,0.050
3079,-0.210,0.050
3080,-0.195,0.045
3081,-0.165,0.060
3082,-0.135,0.085
3083,-0.130,0.090
3084,-0.130,0.080
3085,-0.115,0.080
3086,-0.100,0.080
3087,-0.100,0.085
3088,-0.095,0.090
3089,-0.050,0.115
3090,-0.010,0.140
3091,0.005,0.150
3092,0.020,0.160
3093,0.035,0.175
3094,0.060,0.190
3095,0.100,0.205
3096,0.140,0.225
3097,0.180,0.255
3098,0.210,0.280
3099,0.210,0.290
3100,0.230,0.310
3101,0.295,0.335
3102,0.335,0.350
3103,0.355,0.355
3104,0.395,0.370
3105,0.450,0.395
3106,0.490,0.410
3107,0.515,0.410
3108,0.545,0.415
3109,0.575,0.430
3110,0.605,0.440
3111,0.635,0.435
3112,0.650,0.425
3113,0.650,0.415
3114,0.660,0.405
3115,0.685,0.395
3116,0.690,0.390
3117,0.690,0.385
3118,0.670,0.370
3119,0.635,0.355
3120,0.620,0.320
3121,0.605,0.285
3122,0.555,0.255
3123,0.505,0.225
3124,0.460,0.215
3125,0.500,0.220
3126,0.365,0.170
3127,0.320,0.140
3128,0.255,0.120
3129,0.185,0.100
3130,0.130,0.080
3131,0.075,0.060
3132,0.040,0.035
3133,0.000,0.010
3134,-0.055,-0.010
3135,-0.100,-0.030
3136,-0.110,-0.035
3137,-0.120,-0.040
3138,-0.135,-0.055
3139,-0.155,-0.070
3140,-0.175,-0.070
3141,-0.195,-0.070
3142,-0.210,-0.080
3143,-0.215,-0.090
3144,-0.200,-0.090
3145,-0.200,-0.090
3146,-0.225,-0.105
3147,-0.230,-0.105
3148,-0.210,-0.090
3149,-0.220,-0.085
3150,-0.255,-0.095
3151,-0.265,-0.100
3152,-0.255,-0.100
3153,-0.245,-0.100
3154,-0.235,-0.095
3155,-0.230,-0.090
3156,-0.230,-0.085
3157,-0.235,-0.080
3158,-0.245,-0.075
3159,-0.240,-0.070
3160,-0.225,-0.070
3161,-0.220,-0.070
3162,-0.220,-0.070
3163,-0.220,-0.070
3164,-0.215,-0.065
3165,-0.210,-0.060
3166,-0.205,-0.065
3167,-0.195,-0.050
3168,-0.190,-0.030
3169,-0.200,-0.035
3170,-0.210,-0.040
3171,-0.190,-0.040
3172,-0.170,-0.040
3173,-0.165,-0.030
3174,-0.160,-0.020
3175,-0.170,-0.030
3176,-0.180,-0.040
3177,-0.170,-0.035
3178,-0.160,-0.030
3179,-0.145,-0.030
3180,-0.130,-0.030
3181,-0.140,-0.030
3182,-0.150,-0.030
3183,-0.150,-0.025
3184,-0.155,-0.020
3185,-0.170,-0.025
3186,-0.170,-0.030
3187,-0.145,-0.020
3188,-0.145,-0.010
3189,-0.175,-0.010
3190,-0.200,-0.015
3191,-0.220,-0.025
3192,-0.215,-0.030
3193,-0.185,-0.025
3194,-0.180,-0.020
3195,-0.200,-0.020
3196,-0.205,-0.020
3197,-0.195,-0.015
3198,-0.190,-0.010
3199,-0.185,-0.010
3200,-0.190,-0.015
3201,-0.205,-0.025
3202,-0.205,-0.030
3203,-0.195,-0.030
3204,-0.205,-0.035
3205,-0.225,-0.045
3206,-0.225,-0.050
3207,-0.215,-0.050
3208,-0.210,-0.050
3209,-0.200,-0.060
3210,-0.215,-0.060
3211,-0.230,-0.060
3212,-0.230,-0.050
3213,-0.230,-0.040
3214,-0.220,-0.060
3215,-0.210,-0.080
3216,-0.215,-0.085
3217,-0.220,-0.090
3218,-0.220,-0.090
3219,-0.220,-0.090
3220,-0.220,-0.090
3221,-0.210,-0.085
3222,-0.175,-0.060
3223,-0.150,-0.040
3224,-0.140,-0.030
3225,-0.120,-0.020
3226,-0.095,-0.010
3227,-0.080,0.000
3228,-0.090,0.000
3229,-0.085,0.000
3230,-0.050,0.000
3231,-0.020,-0.005
3232,0.000,-0.015
3233,0.040,-0.025
3234,0.095,-0.035
3235,0.105,-0.055
3236,0.080,-0.085
3237,0.045,-0.100
3238,0.005,-0.105
3239,-0.020,-0.120
3240,-0.045,-0.145
3241,-0.050,-0.140
3242,-0.055,-0.125
3243,-0.080,-0.135
3244,-0.115,-0.155
3245,-0.150,-0.160
3246,-0.185,-0.155
3247,-0.235,-0.150
3248,-0.285,-0.155
3249,-0.290,-0.160
3250,-0.290,-0.160
3251,-0.290,-0.175
3252,-0.290,-0.180
3253,-0.280,-0.170
3254,-0.270,-0.160
3255,-0.270,-0.170
3256,-0.270,-0.180
3257,-0.280,-0.185
3258,-0.290,-0.190
3259,-0.285,-0.185
3260,-0.280,-0.180
3261,-0.275,-0.165
3262,-0.250,-0.115
3263,-0.180,0.010
3264,-0.175,0.100
3265,-0.310,0.100
3266,-0.410,0.060
3267,-0.445,-0.045
3268,-0.335,-0.075
3269,-0.010,0.020
3270,0.315,0.145
3271,0.640,0.310
3272,0.965,0.265
3273,1.290,0.020
3274,1.255,-0.270
3275,0.925,-0.600
3276,0.600,-0.925
3277,0.270,-1.255
3278,-0.060,-1.555
3279,-0.385,-1.840
3280,-0.715,-1.860
3281,-1.040,-1.760
3282,-1.370,-1.595
3283,-1.695,-1.410
3284,-1.520,-1.135
3285,-1.210,-0.840
3286,-0.940,-0.610
3287,-0.680,-0.395
3288,-0.545,-0.275
3289,-0.420,-0.170
3290,-0.370,-0.145
3291,-0.325,-0.125
3292,-0.275,-0.095
3293,-0.230,-0.070
3294,-0.230,-0.065
3295,-0.230,-0.060
3296,-0.200,-0.050
3297,-0.170,-0.040
3298,-0.170,-0.030
3299,-0.170,-0.020
3300,-0.160,-0.015
3301,-0.150,-0.010
3302,-0.135,0.000
3303,-0.120,0.010
3304,-0.120,0.015
3305,-0.120,0.020
3306,-0.100,0.030
3307,-0.085,0.040
3308,-0.060,0.050
3309,-0.040,0.060
3310,-0.050,0.065
3311,-0.050,0.070
3312,-0.025,0.075
3313,0.005,0.085
3314,0.035,0.095
3315,0.055,0.105
3316,0.065,0.115
3317,0.080,0.120
3318,0.100,0.125
3319,0.125,0.135
3320,0.150,0.155
3321,0.170,0.170
3322,0.190,0.185
3323,0.205,0.200
3324,0.215,0.215
3325,0.240,0.230
3326,0.270,0.245
3327,0.295,0.265
3328,0.315,0.285
3329,0.350,0.305
3330,0.385,0.325
3331,0.420,0.335
3332,0.455,0.345
3333,0.485,0.355
3334,0.520,0.370
3335,0.560,0.390
3336,0.600,0.410
3337,0.630,0.415
3338,0.660,0.420
3339,0.665,0.425
3340,0.670,0.430
3341,0.690,0.435
3342,0.715,0.440
3343,0.750,0.440
3344,0.780,0.440
3345,0.775,0.430
3346,0.770,0.420
3347,0.775,0.415
3348,0.775,0.405
3349,0.750,0.380
3350,0.720,0.355
3351,0.685,0.335
3352,0.640,0.310
3353,0.580,0.285
3354,0.535,0.260
3355,0.490,0.235
3356,0.445,0.205
3357,0.385,0.170
3358,0.335,0.140
3359,0.280,0.120
3360,0.230,0.095
3361,0.180,0.070
3362,0.135,0.050
3363,0.095,0.030
3364,0.065,0.015
3365,0.040,0.005
3366,0.015,-0.010
3367,-0.005,-0.025
3368,-0.025,-0.035
3369,-0.045,-0.045
3370,-0.065,-0.055
3371,-0.085,-0.065
3372,-0.090,-0.070
3373,-0.090,-0.075
3374,-0.090,-0.080
3375,-0.090,-0.080
3376,-0.110,-0.065
3377,-0.120,-0.060
3378,-0.120,-0.065
3379,-0.120,-0.070
3380,-0.115,-0.070
3381,-0.110,-0.070
3382,-0.125,-0.065
3383,-0.140,-0.060
3384,-0.130,-0.060
3385,-0.120,-0.060
3386,-0.115,-0.050
3387,-0.110,-0.040
3388,-0.095,-0.030
3389,-0.080,-0.020
3390,-0.085,-0.015
3391,-0.090,-0.005
3392,-0.090,0.010
3393,-0.090,0.020
3394,-0.085,0.020
3395,-0.075,0.020
3396,-0.060,0.015
3397,-0.050,0.010
3398,-0.055,0.010
3399,-0.060,0.010
3400,-0.065,0.015
3401,-0.070,0.020
3402,-0.065,0.015
3403,-0.060,0.010
3404,-0.060,0.010
3405,-0.060,0.005
3406,-0.060,-0.005
3407,-0.060,-0.010
3408,-0.065,-0.015
3409,-0.075,-0.020
3410,-0.085,-0.015
3411,-0.090,-0.010
3412,-0.085,-0.010
3413,-0.080,-0.020
3414,-0.075,-0.035
3415,-0.090,-0.040
3416,-0.115,-0.035
3417,-0.095,-0.030
3418,-0.070,-0.030
3419,-0.075,-0.035
3420,-0.080,-0.040
3421,-0.085,-0.040
3422,-0.090,-0.040
3423,-0.100,-0.040
3424,-0.110,-0.040
3425,-0.105,-0.045
3426,-0.100,-0.050
3427,-0.105,-0.040
3428,-0.110,-0.030
3429,-0.120,-0.040
3430,-0.130,-0.050
3431,-0.120,-0.055
3432,-0.110,-0.060
3433,-0.115,-0.060
3434,-0.120,-0.060
3435,-0.115,-0.055
3436,-0.110,-0.050
3437,-0.115,-0.050
3438,-0.120,-0.050
3439,-0.120,-0.050
3440,-0.120,-0.050
3441,-0.120,-0.050
3442,-0.120,-0.050
3443,-0.120,-0.050
3444,-0.120,-0.050
3445,-0.125,-0.045
3446,-0.140,-0.040
3447,-0.155,-0.045
3448,-0.145,-0.050
3449,-0.120,-0.045
3450,-0.115,-0.040
3451,-0.125,-0.040
3452,-0.130,-0.040
3453,-0.125,-0.040
3454,-0.095,-0.035
3455,-0.065,-0.025
3456,-0.050,-0.005
3457,-0.035,0.015
3458,-0.030,0.020
3459,-0.040,0.030
3460,-0.030,0.040
3461,-0.020,0.050
3462,0.015,0.065
3463,0.050,0.080
3464,0.060,0.070
3465,0.080,0.060
3466,0.145,0.075
3467,0.200,0.085
3468,0.185,0.045
3469,0.170,0.010
3470,0.160,0.000
3471,0.135,-0.015
3472,0.065,-0.045
3473,0.020,-0.070
3474,0.015,-0.065
3475,0.000,-0.065
3476,-0.035,-0.080
3477,-0.070,-0.090
3478,-0.100,-0.095
3479,-0.135,-0.095
3480,-0.180,-0.080
3481,-0.200,-0.080
3482,-0.205,-0.100
3483,-0.210,-0.110
3484,-0.210,-0.115
3485,-0.215,-0.115
3486,-0.225,-0.105
3487,-0.220,-0.095
3488,-0.200,-0.085
3489,-0.195,-0.090
3490,-0.205,-0.105
3491,-0.210,-0.100
3492,-0.205,-0.085
3493,-0.200,-0.085
3494,-0.200,-0.095
3495,-0.160,-0.050
3496,-0.105,0.010
3497,-0.060,0.135
3498,-0.015,0.260
3499,-0.310,0.145
3500,-0.010,0.270
3501,-0.305,0.010
3502,0.020,0.015
3503,0.345,0.125
3504,0.670,0.235
3505,0.995,0.300
3506,1.245,0.315
3507,1.020,-0.010
3508,0.770,-0.340
3509,0.445,-0.665
3510,0.115,-0.995
3511,-0.210,-1.320
3512,-0.540,-1.605
3513,-0.865,-1.775
3514,-1.195,-1.835
3515,-1.525,-1.655
3516,-1.730,-1.475
3517,-1.730,-1.305
3518,-1.595,-1.075
3519,-1.270,-0.765
3520,-0.970,-0.530
3521,-0.695,-0.375
3522,-0.500,-0.240
3523,-0.375,-0.125
3524,-0.315,-0.070
3525,-0.305,-0.070
3526,-0.275,-0.060
3527,-0.230,-0.040
3528,-0.210,-0.025
3529,-0.210,-0.015
3530,-0.195,0.000
3531,-0.170,0.015
3532,-0.175,0.020
3533,-0.200,0.015
3534,-0.170,0.025
3535,-0.120,0.045
3536,-0.135,0.050
3537,-0.165,0.050
3538,-0.150,0.065
3539,-0.125,0.085
3540,-0.110,0.090
3541,-0.095,0.090
3542,-0.080,0.110
3543,-0.070,0.130
3544,-0.065,0.135
3545,-0.060,0.140
3546,-0.040,0.145
3547,-0.020,0.150
3548,-0.015,0.160
3549,-0.010,0.170
3550,0.010,0.165
3551,0.035,0.165
3552,0.060,0.190
3553,0.080,0.210
3554,0.080,0.220
3555,0.085,0.230
3556,0.120,0.240
3557,0.145,0.250
3558,0.160,0.260
3559,0.175,0.275
3560,0.195,0.290
3561,0.220,0.300
3562,0.250,0.310
3563,0.285,0.325
3564,0.320,0.335
3565,0.355,0.345
3566,0.385,0.360
3567,0.430,0.375
3568,0.480,0.385
3569,0.505,0.395
3570,0.515,0.405
3571,0.535,0.410
3572,0.560,0.410
3573,0.600,0.425
3574,0.640,0.445
3575,0.660,0.450
3576,0.675,0.445
3577,0.695,0.440
3578,0.715,0.435
3579,0.720,0.420
3580,0.720,0.405
3581,0.720,0.400
3582,0.725,0.400
3583,0.725,0.380
3584,0.710,0.350
3585,0.680,0.320
3586,0.650,0.290
3587,0.605,0.275
3588,0.555,0.260
3589,0.500,0.235
3590,0.445,0.210
3591,0.395,0.185
3592,0.340,0.155
3593,0.280,0.125
3594,0.225,0.100
3595,0.200,0.100
3596,0.160,0.090
3597,0.085,0.055
3598,0.025,0.030
3599,0.000,0.020
3600,-0.020,0.010
3601,-0.025,0.005
3602,-0.040,-0.005
3603,-0.065,-0.020
3604,-0.090,-0.030
3605,-0.125,-0.025
3606,-0.135,-0.020
3607,-0.120,-0.020
3608,-0.135,-0.030
3609,-0.180,-0.050
3610,-0.185,-0.055
3611,-0.160,-0.040
3612,-0.150,-0.025
3613,-0.145,-0.015
3614,-0.150,-0.015
3615,-0.175,-0.025
3616,-0.175,-0.030
3617,-0.165,-0.030
3618,-0.160,-0.030
3619,-0.160,-0.035
3620,-0.160,-0.035
3621,-0.165,-0.025
3622,-0.165,-0.015
3623,-0.155,-0.005
3624,-0.155,0.000
3625,-0.150,0.000
3626,-0.160,-0.010
3627,-0.150,-0.010
3628,-0.145,-0.005
3629,-0.140,0.000
3630,-0.125,0.000
3631,-0.110,0.000
3632,-0.120,0.005
3633,-0.130,0.010
3634,-0.130,0.010
3635,-0.125,0.010
3636,-0.100,0.015
3637,-0.080,0.020
3638,-0.085,0.005
3639,-0.090,-0.005
3640,-0.085,0.010
3641,-0.085,0.015
3642,-0.115,-0.005
3643,-0.125,-0.020
3644,-0.105,-0.015
3645,-0.090,-0.010
3646,-0.075,-0.005
3647,-0.075,-0.005
3648,-0.090,-0.015
3649,-0.100,-0.025
3650,-0.095,-0.035
3651,-0.090,-0.040
3652,-0.090,-0.040
3653,-0.100,-0.035
3654,-0.115,-0.025
3655,-0.110,-0.030
3656,-0.095,-0.045
3657,-0.100,-0.050
3658,-0.115,-0.050
3659,-0.120,-0.055
3660,-0.115,-0.065
3661,-0.100,-0.065
3662,-0.085,-0.055
3663,-0.080,-0.055
3664,-0.075,-0.065
3665,-0.085,-0.070
3666,-0.105,-0.065
3667,-0.095,-0.060
3668,-0.080,-0.060
3669,-0.080,-0.055
3670,-0.080,-0.050
3671,-0.100,-0.050
3672,-0.120,-0.050
3673,-0.105,-0.045
3674,-0.090,-0.040
3675,-0.100,-0.040
3676,-0.110,-0.040
3677,-0.095,-0.030
3678,-0.080,-0.020
3679,-0.085,-0.030
3680,-0.090,-0.040
3681,-0.085,-0.050
3682,-0.080,-0.055
3683,-0.080,-0.035
3684,-0.070,-0.020
3685,-0.045,-0.010
3686,-0.020,0.015
3687,0.010,0.055
3688,0.020,0.065
3689,-0.005,0.030
3690,-0.005,0.020
3691,0.035,0.045
3692,0.045,0.065
3693,0.030,0.075
3694,0.050,0.085
3695,0.100,0.095
3696,0.150,0.105
3697,0.195,0.115
3698,0.195,0.090
3699,0.170,0.045
3700,0.145,0.030
3701,0.125,0.025
3702,0.065,-0.010
3703,0.000,-0.050
3704,-0.020,-0.060
3705,-0.035,-0.060
3706,-0.070,-0.075
3707,-0.105,-0.095
3708,-0.115,-0.095
3709,-0.130,-0.080
3710,-0.175,-0.095
3711,-0.220,-0.110
3712,-0.225,-0.110
3713,-0.230,-0.110
3714,-0.245,-0.105
3715,-0.260,-0.100
3716,-0.245,-0.105
3717,-0.230,-0.110
3718,-0.245,-0.110
3719,-0.260,-0.105
3720,-0.245,-0.085
3721,-0.230,-0.075
3722,-0.225,-0.100
3723,-0.220,-0.115
3724,-0.225,-0.100
3725,-0.220,-0.080
3726,-0.190,-0.050
3727,-0.130,0.035
3728,-0.025,0.195
3729,-0.115,0.235
3730,-0.415,0.130
3731,-0.420,0.050
3732,-0.145,-0.010
3733,0.155,0.010
3734,0.480,0.105
3735,0.805,0.200
3736,1.130,0.295
3737,1.150,0.110
3738,1.010,-0.215
3739,0.735,-0.545
3740,0.410,-0.870
3741,0.080,-1.200
3742,-0.245,-1.525
3743,-0.575,-1.710
3744,-0.900,-1.855
3745,-1.230,-1.750
3746,-1.555,-1.595
3747,-1.650,-1.435
3748,-1.715,-1.270
3749,-1.415,-0.960
3750,-1.720,-1.260
3751,-0.775,-0.490
3752,-0.465,-0.335
3753,-0.360,-0.205
3754,-0.260,-0.080
3755,-0.220,-0.060
3756,-0.180,-0.040
3757,-0.155,-0.030
3758,-0.130,-0.020
3759,-0.115,-0.015
3760,-0.100,-0.010
3761,-0.095,-0.010
3762,-0.090,-0.010
3763,-0.075,0.005
3764,-0.060,0.025
3765,-0.050,0.040
3766,-0.040,0.050
3767,-0.030,0.055
3768,-0.020,0.060
3769,-0.015,0.065
3770,-0.010,0.070
3771,-0.010,0.075
3772,0.000,0.080
3773,0.020,0.080
3774,0.030,0.085
3775,0.035,0.100
3776,0.055,0.110
3777,0.080,0.115
3778,0.085,0.125
3779,0.075,0.135
3780,0.095,0.150
3781,0.130,0.165
3782,0.155,0.170
3783,0.180,0.165
3784,0.200,0.175
3785,0.215,0.195
3786,0.240,0.210
3787,0.265,0.225
3788,0.275,0.240
3789,0.285,0.255
3790,0.310,0.275
3791,0.335,0.295
3792,0.370,0.320
3793,0.400,0.340
3794,0.425,0.360
3795,0.450,0.380
3796,0.475,0.395
3797,0.500,0.410
3798,0.540,0.450
3799,0.575,0.480
3800,0.620,0.500
3801,0.660,0.520
3802,0.680,0.525
3803,0.700,0.530
3804,0.715,0.540
3805,0.735,0.550
3806,0.755,0.545
3807,0.775,0.540
3808,0.790,0.545
3809,0.800,0.550
3810,0.810,0.540
3811,0.820,0.525
3812,0.820,0.510
3813,0.810,0.495
3814,0.790,0.480
3815,0.770,0.455
3816,0.745,0.425
3817,0.700,0.395
3818,0.650,0.370
3819,0.600,0.350
3820,0.550,0.330
3821,0.505,0.300
3822,0.465,0.270
3823,0.410,0.245
3824,0.355,0.225
3825,0.315,0.195
3826,0.280,0.160
3827,0.235,0.140
3828,0.190,0.125
3829,0.140,0.100
3830,0.095,0.075
3831,0.085,0.065
3832,0.075,0.055
3833,0.060,0.050
3834,0.040,0.040
3835,0.030,0.050
3836,0.020,0.060
3837,0.010,0.035
3838,0.000,0.010
3839,-0.010,0.025
3840,-0.020,0.040
3841,-0.030,0.040
3842,-0.040,0.040
3843,-0.030,0.035
3844,-0.020,0.030
3845,-0.020,0.025
3846,-0.025,0.020
3847,-0.045,0.035
3848,-0.055,0.050
3849,-0.035,0.050
3850,-0.010,0.050
3851,0.015,0.045
3852,0.015,0.040
3853,-0.020,0.040
3854,-0.025,0.045
3855,0.010,0.060
3856,0.030,0.070
3857,0.025,0.065
3858,0.015,0.060
3859,0.000,0.065
3860,0.010,0.070
3861,0.045,0.070
3862,0.050,0.075
3863,0.035,0.085
3864,0.020,0.085
3865,0.005,0.075
3866,0.010,0.070
3867,0.025,0.065
3868,0.030,0.065
3869,0.035,0.075
3870,0.040,0.080
3871,0.045,0.080
3872,0.055,0.070
3873,0.065,0.055
3874,0.045,0.055
3875,0.070,0.050
3876,0.030,0.060
3877,0.050,0.050
3878,0.035,0.045
3879,0.020,0.040
3880,0.025,0.040
3881,0.030,0.040
3882,0.015,0.055
3883,0.000,0.070
3884,0.015,0.060
3885,0.030,0.050
3886,0.025,0.045
3887,0.015,0.040
3888,-0.010,0.040
3889,-0.025,0.040
3890,-0.010,0.030
3891,-0.005,0.020
3892,-0.020,0.015
3893,-0.030,0.015
3894,-0.030,0.030
3895,-0.035,0.040
3896,-0.050,0.025
3897,-0.060,0.020
3898,-0.065,0.020
3899,-0.060,0.025
3900,-0.040,0.040
3901,-0.025,0.050
3902,-0.010,0.045
3903,-0.025,0.035
3904,-0.065,0.025
3905,-0.055,0.035
3906,-0.020,0.060
3907,-0.020,0.065
3908,-0.035,0.055
3909,-0.005,0.080
3910,0.040,0.120
3911,0.050,0.130
3912,0.045,0.135
3913,0.055,0.155
3914,0.075,0.175
3915,0.070,0.180
3916,0.055,0.175
3917,0.090,0.175
3918,0.130,0.180
3919,0.155,0.190
3920,0.180,0.200
3921,0.220,0.170
3922,0.260,0.140
3923,0.245,0.120
3924,0.230,0.100
3925,0.200,0.085
3926,0.170,0.065
3927,0.120,0.040
3928,0.075,0.020
3929,0.035,0.020
3930,0.010,0.020
3931,-0.010,0.010
3932,-0.025,0.000
3933,-0.040,0.010
3934,-0.070,0.020
3935,-0.135,0.020
3936,-0.165,0.010
3937,-0.150,-0.015
3938,-0.140,-0.025
3939,-0.140,-0.015
3940,-0.140,-0.005
3941,-0.135,0.005
3942,-0.130,0.005
3943,-0.130,-0.005
3944,-0.130,-0.010
3945,-0.125,-0.005
3946,-0.135,0.000
3947,-0.160,-0.005
3948,-0.155,0.000
3949,-0.130,0.015
3950,-0.045,0.115
3951,0.050,0.235
3952,-0.055,0.250
3953,-0.210,0.235
3954,-0.300,0.135
3955,-0.380,0.020
3956,-0.095,0.080
3957,0.230,0.155
3958,0.555,0.235
3959,0.885,0.320
3960,1.210,0.115
3961,1.495,-0.100
3962,1.170,-0.425
3963,0.840,-0.755
3964,0.515,-1.080
3965,0.185,-1.400
3966,-0.140,-1.665
3967,-0.470,-1.865
3968,-0.795,-1.780
3969,-1.125,-1.670
3970,-1.450,-1.490
3971,-1.600,-1.275
3972,-1.310,-0.970
3973,-1.020,-0.695
3974,-0.730,-0.475
3975,-0.500,-0.300
3976,-0.375,-0.185
3977,-0.285,-0.100
3978,-0.250,-0.055
3979,-0.215,-0.030
3980,-0.180,-0.025
3981,-0.160,-0.015
3982,-0.165,0.000
3983,-0.150,0.010
3984,-0.110,0.010
3985,-0.095,0.010
3986,-0.105,0.015
3987,-0.095,0.030
3988,-0.070,0.045
3989,-0.070,0.050
3990,-0.085,0.045
3991,-0.050,0.055
3992,0.005,0.075
3993,0.000,0.070
3994,-0.035,0.055
3995,-0.025,0.060
3996,-0.005,0.075
3997,0.000,0.080
3998,0.005,0.075
3999,0.015,0.090
4000,0.010,0.070
4001,0.040,0.110
4002,0.050,0.100
4003,0.100,0.130
4004,0.150,0.160
4005,0.135,0.150
4006,0.120,0.140
4007,0.135,0.165
4008,0.155,0.190
4009,0.200,0.190
4010,0.240,0.195
4011,0.245,0.240
4012,0.255,0.270
4013,0.285,0.285
4014,0.310,0.300
4015,0.315,0.305
4016,0.330,0.315
4017,0.365,0.345
4018,0.405,0.360
4019,0.440,0.370
4020,0.465,0.380
4021,0.490,0.395
4022,0.510,0.400
4023,0.530,0.405
4024,0.550,0.415
4025,0.570,0.425
4026,0.595,0.430
4027,0.625,0.435
4028,0.670,0.440
4029,0.715,0.445
4030,0.740,0.450
4031,0.760,0.445
4032,0.770,0.430
4033,0.770,0.415
4034,0.780,0.410
4035,0.795,0.410
4036,0.785,0.395
4037,0.765,0.375
4038,0.740,0.360
4039,0.715,0.345
4040,0.680,0.325
4041,0.645,0.305
4042,0.595,0.275
4043,0.550,0.250
4044,0.490,0.220
4045,0.430,0.190
4046,0.405,0.175
4047,0.375,0.160
4048,0.310,0.145
4049,0.250,0.130
4050,0.220,0.115
4051,0.195,0.100
4052,0.155,0.090
4053,0.115,0.080
4054,0.095,0.070
4055,0.075,0.055
4056,0.055,0.035
4057,0.035,0.020
4058,0.020,0.025
4059,0.010,0.030
4060,0.000,0.025
4061,-0.010,0.020
4062,-0.020,0.015
4063,-0.025,0.010
4064,-0.015,0.010
4065,-0.010,0.010
4066,-0.015,0.015
4067,-0.020,0.015
4068,-0.020,0.005
4069,-0.020,0.000
4070,-0.020,0.005
4071,-0.020,0.010
4072,-0.015,0.005
4073,-0.025,0.000
4074,-0.045,-0.005
4075,-0.045,-0.010
4076,-0.035,-0.010
4077,-0.025,-0.010
4078,-0.015,-0.005
4079,-0.015,-0.005
4080,-0.025,-0.015
4081,-0.010,-0.015
4082,0.015,-0.005
4083,0.010,0.000
4084,-0.010,-0.010
4085,-0.005,-0.015
4086,0.000,-0.020
4087,-0.005,-0.010
4088,-0.010,0.000
4089,-0.005,-0.005
4090,0.000,-0.010
4091,0.005,-0.010
4092,0.010,-0.010
4093,0.025,-0.005
4094,0.035,0.000
4095,0.010,-0.005
4096,-0.010,-0.010
4097,0.000,-0.010
4098,0.015,-0.010
4099,0.030,-0.015
4100,0.035,-0.020
4101,0.015,-0.025
4102,0.000,-0.030
4103,0.010,-0.030
4104,0.020,-0.030
4105,0.025,-0.030
4106,0.030,-0.030
4107,0.030,-0.030
4108,0.025,-0.040
4109,0.010,-0.060
4110,0.005,-0.065
4111,0.015,-0.050
4112,0.010,-0.040
4113,-0.005,-0.045
4114,-0.010,-0.050
4115,-0.005,-0.045
4116,0.000,-0.050
4117,-0.005,-0.065
4118,-0.010,-0.050
4119,-0.005,-0.015
4120,0.005,-0.020
4121,0.015,-0.035
4122,-0.005,-0.045
4123,-0.035,-0.055
4124,-0.030,-0.055
4125,-0.040,-0.060
4126,-0.020,-0.040
4127,-0.030,-0.040
4128,-0.015,-0.045
4129,0.000,-0.050
4130,0.025,0.000
4131,0.050,0.040
4132,0.050,0.015
4133,0.050,-0.005
4134,0.045,0.050
4135,0.040,0.090
4136,0.065,0.085
4137,0.085,0.080
4138,0.105,0.070
4139,0.125,0.060
4140,0.140,0.055
4141,0.170,0.035
4142,0.230,-0.005
4143,0.260,-0.015
4144,0.230,0.020
4145,0.205,0.020
4146,0.190,-0.025
4147,0.130,-0.070
4148,0.025,-0.110
4149,0.005,-0.110
4150,0.060,-0.070
4151,0.040,-0.060
4152,-0.025,-0.080
4153,-0.065,-0.100
4154,-0.090,-0.120
4155,-0.135,-0.120
4156,-0.195,-0.105
4157,-0.210,-0.100
4158,-0.215,-0.100
4159,-0.170,-0.100
4160,-0.105,-0.100
4161,-0.120,-0.100
4162,-0.155,-0.105
4163,-0.225,-0.125
4164,-0.305,-0.145
4165,-0.200,-0.110
4166,-0.085,-0.065
4167,-0.110,-0.080
4168,-0.140,-0.100
4169,-0.150,-0.090
4170,-0.155,-0.075
4171,-0.065,0.050
4172,0.010,0.160
4173,-0.080,0.180
4174,-0.185,0.180
4175,-0.345,0.060
4176,-0.400,-0.030
4177,-0.075,0.015
4178,0.250,0.070
4179,0.575,0.145
4180,0.900,0.185
4181,1.225,0.135
4182,1.320,-0.015
4183,0.990,-0.345
4184,0.665,-0.670
4185,0.335,-1.000
4186,0.010,-1.325
4187,-0.320,-1.655
4188,-0.645,-1.820
4189,-0.975,-1.825
4190,-1.300,-1.740
4191,-1.630,-1.570
4192,-1.640,-1.365
4193,-1.430,-1.125
4194,-1.145,-0.855
4195,-0.820,-0.565
4196,-0.580,-0.375
4197,-0.385,-0.240
4198,-0.275,-0.155
4199,-0.200,-0.085
4200,-0.165,-0.070
4201,-0.145,-0.065
4202,-0.120,-0.040
4203,-0.095,-0.015
4204,-0.090,-0.010
4205,-0.090,-0.010
4206,-0.060,0.005
4207,-0.025,0.025
4208,-0.025,0.030
4209,-0.040,0.040
4210,-0.025,0.055
4211,-0.010,0.070
4212,0.000,0.070
4213,0.010,0.070
4214,0.025,0.085
4215,0.040,0.100
4216,0.045,0.100
4217,0.050,0.100
4218,0.050,0.105
4219,0.050,0.110
4220,0.060,0.125
4221,0.070,0.140
4222,0.080,0.135
4223,0.095,0.135
4224,0.120,0.155
4225,0.145,0.175
4226,0.160,0.190
4227,0.170,0.200
4228,0.170,0.205
4229,0.190,0.225
4230,0.235,0.260
4231,0.260,0.280
4232,0.265,0.285
4233,0.280,0.295
4234,0.300,0.305
4235,0.325,0.320
4236,0.355,0.340
4237,0.370,0.355
4238,0.375,0.365
4239,0.415,0.395
4240,0.465,0.430
4241,0.495,0.435
4242,0.525,0.425
4243,0.540,0.430
4244,0.555,0.445
4245,0.585,0.450
4246,0.615,0.450
4247,0.655,0.450
4248,0.695,0.445
4249,0.710,0.440
4250,0.700,0.440
4251,0.750,0.450
4252,0.770,0.450
4253,0.785,0.445
4254,0.800,0.440
4255,0.805,0.420
4256,0.810,0.400
4257,0.820,0.400
4258,0.830,0.400
4259,0.815,0.380
4260,0.790,0.360
4261,0.740,0.335
4262,0.690,0.320
4263,0.655,0.305
4264,0.620,0.285
4265,0.580,0.270
4266,0.535,0.255
4267,0.495,0.235
4268,0.450,0.215
4269,0.390,0.195
4270,0.345,0.175
4271,0.300,0.150
4272,0.265,0.140
4273,0.230,0.135
4274,0.200,0.120
4275,0.170,0.100
4276,0.145,0.090
4277,0.120,0.085
4278,0.100,0.075
4279,0.085,0.065
4280,0.075,0.060
4281,0.065,0.055
4282,0.060,0.050
4283,0.060,0.050
4284,0.050,0.050
4285,0.035,0.045
4286,0.030,0.045
4287,0.025,0.055
4288,0.030,0.060
4289,0.045,0.055
4290,0.040,0.050
4291,0.025,0.050
4292,0.020,0.060
4293,0.020,0.070
4294,0.030,0.065
4295,0.040,0.060
4296,0.040,0.070
4297,0.040,0.080
4298,0.045,0.070
4299,0.050,0.060
4300,0.050,0.060
4301,0.050,0.060
4302,0.050,0.060
4303,0.050,0.060
4304,0.055,0.065
4305,0.060,0.070
4306,0.065,0.050
4307,0.070,0.040
4308,0.080,0.045
4309,0.085,0.050
4310,0.070,0.055
4311,0.065,0.060
4312,0.085,0.055
4313,0.095,0.050
4314,0.080,0.050
4315,0.085,0.050
4316,0.125,0.045
4317,0.135,0.035
4318,0.125,0.025
4319,0.120,0.025
4320,0.115,0.035
4321,0.105,0.040
4322,0.095,0.035
4323,0.090,0.030
4324,0.085,0.035
4325,0.080,0.040
4326,0.085,0.035
4327,0.085,0.030
4328,0.075,0.025
4329,0.070,0.010
4330,0.070,-0.005
4331,0.065,-0.010
4332,0.055,-0.010
4333,0.050,-0.010
4334,0.050,0.000
4335,0.065,0.000
4336,0.080,0.000
4337,0.055,0.000
4338,0.030,0.000
4339,0.040,0.010
4340,0.050,0.020
4341,0.055,0.005
4342,0.060,-0.010
4343,0.050,0.010
4344,0.040,0.030
4345,0.040,0.020
4346,0.040,0.010
4347,0.035,0.010
4348,0.035,0.015
4349,0.055,0.030
4350,0.085,0.045
4351,0.125,0.065
4352,0.145,0.080
4353,0.130,0.070
4354,0.120,0.070
4355,0.135,0.095
4356,0.150,0.110
4357,0.170,0.115
4358,0.180,0.115
4359,0.185,0.100
4360,0.230,0.095
4361,0.305,0.110
4362,0.330,0.090
4363,0.325,0.045
4364,0.305,0.025
4365,0.280,0.015
4366,0.230,-0.005
4367,0.175,-0.035
4368,0.135,-0.055
4369,0.100,-0.075
4370,0.090,-0.080
4371,0.085,-0.080
4372,0.060,-0.080
4373,0.035,-0.080
4374,-0.010,-0.080
4375,0.030,-0.080
4376,-0.070,-0.095
4377,-0.080,-0.110
4378,-0.075,-0.110
4379,-0.070,-0.110
4380,-0.075,-0.105
4381,-0.080,-0.100
4382,-0.085,-0.095
4383,-0.090,-0.090
4384,-0.090,-0.085
4385,-0.090,-0.080
4386,-0.085,-0.080
4387,-0.080,-0.080
4388,-0.090,-0.090
4389,-0.085,-0.080
4390,-0.040,-0.005
4391,0.015,0.085
4392,0.095,0.220
4393,0.010,0.240
4394,-0.300,0.100
4395,-0.320,0.020
4396,0.005,0.015
4397,0.330,0.050
4398,0.655,0.130
4399,0.980,0.195
4400,1.305,0.250
4401,1.240,0.075
4402,0.910,-0.255
4403,0.580,-0.585
4404,0.255,-0.910
4405,-0.075,-1.240
4406,-0.400,-1.565
4407,-0.730,-1.745
4408,-1.055,-1.880
4409,-1.385,-1.760
4410,-1.710,-1.570
4411,-1.645,-1.395
4412,-1.500,-1.220
4413,-1.195,-0.915
4414,-0.870,-0.590
4415,-0.595,-0.410
4416,-0.325,-0.245
4417,-0.240,-0.150
4418,-0.160,-0.060
4419,-0.145,-0.060
4420,-0.130,-0.060
4421,-0.095,-0.045
4422,-0.060,-0.030
4423,-0.050,-0.020
4424,-0.040,-0.010
4425,-0.025,-0.015
4426,-0.010,-0.020
4427,-0.015,-0.005
4428,-0.015,0.010
4429,0.010,0.025
4430,0.030,0.040
4431,0.010,0.040
4432,0.005,0.040
4433,0.025,0.045
4434,0.040,0.050
4435,0.045,0.060
4436,0.050,0.070
4437,0.045,0.070
4438,0.045,0.075
4439,0.060,0.085
4440,0.075,0.095
4441,0.085,0.105
4442,0.100,0.115
4443,0.120,0.125
4444,0.135,0.135
4445,0.145,0.145
4446,0.155,0.160
4447,0.165,0.175
4448,0.190,0.180
4449,0.220,0.185
4450,0.230,0.210
4451,0.235,0.235
4452,0.265,0.250
4453,0.305,0.265
4454,0.325,0.285
4455,0.345,0.305
4456,0.365,0.325
4457,0.385,0.345
4458,0.420,0.360
4459,0.460,0.380
4460,0.490,0.395
4461,0.520,0.410
4462,0.535,0.410
4463,0.550,0.410
4464,0.595,0.425
4465,0.630,0.440
4466,0.665,0.435
4467,0.690,0.430
4468,0.700,0.440
4469,0.715,0.450
4470,0.740,0.445
4471,0.765,0.440
4472,0.785,0.445
4473,0.800,0.445
4474,0.800,0.430
4475,0.800,0.415
4476,0.800,0.395
4477,0.790,0.375
4478,0.760,0.360
4479,0.730,0.345
4480,0.695,0.320
4481,0.660,0.300
4482,0.620,0.275
4483,0.575,0.245
4484,0.530,0.215
4485,0.480,0.185
4486,0.430,0.160
4487,0.375,0.140
4488,0.320,0.125
4489,0.275,0.110
4490,0.240,0.085
4491,0.195,0.075
4492,0.150,0.065
4493,0.140,0.050
4494,0.135,0.035
4495,0.105,0.030
4496,0.075,0.025
4497,0.070,0.020
4498,0.065,0.025
4499,0.045,0.020
4500,0.060,0.030
4501,0.015,-0.005
4502,0.010,-0.010
4503,0.005,-0.010
4504,0.000,-0.010
4505,-0.005,-0.005
4506,-0.010,0.000
4507,-0.015,0.005
4508,-0.020,0.010
4509,-0.005,0.005
4510,0.010,0.000
4511,0.015,0.000
4512,0.020,0.000
4513,0.020,0.000
4514,0.020,0.000
4515,0.010,0.005
4516,0.000,0.010
4517,0.005,0.010
4518,0.010,0.010
4519,0.010,0.005
4520,0.010,0.000
4521,0.005,0.015
4522,0.000,0.020
4523,0.005,0.025
4524,0.015,0.030
4525,0.030,0.030
4526,0.040,0.035
4527,0.045,0.045
4528,0.050,0.050
4529,0.045,0.045
4530,0.045,0.040
4531,0.055,0.045
4532,0.060,0.050
4533,0.065,0.045
4534,0.065,0.035
4535,0.055,0.025
4536,0.050,0.020
4537,0.045,0.020
4538,0.045,0.025
4539,0.055,0.035
4540,0.055,0.030
4541,0.045,0.015
4542,0.040,0.015
4543,0.040,0.020
4544,0.045,0.015
4545,0.050,0.010
4546,0.030,0.005
4547,0.010,0.000
4548,0.015,0.005
4549,0.020,0.010
4550,0.015,0.010
4551,0.010,0.010
4552,0.005,0.005
4553,0.000,0.000
4554,-0.015,0.005
4555,-0.030,0.010
4556,-0.020,0.020
4557,-0.010,0.025
4558,-0.015,0.010
4559,-0.015,0.005
4560,0.000,0.025
4561,0.010,0.035
4562,0.005,0.020
4563,0.000,0.015
4564,0.000,0.025
4565,0.000,0.030
4566,-0.005,0.030
4567,-0.010,0.030
4568,-0.005,0.030
4569,0.005,0.035
4570,0.015,0.045
4571,0.035,0.060
4572,0.060,0.075
4573,0.065,0.090
4574,0.055,0.105
4575,0.075,0.120
4576,0.110,0.135
4577,0.115,0.140
4578,0.105,0.140
4579,0.130,0.140
4580,0.165,0.140
4581,0.200,0.145
4582,0.235,0.155
4583,0.265,0.145
4584,0.300,0.120
4585,0.285,0.100
4586,0.270,0.080
4587,0.230,0.060
4588,0.185,0.040
4589,0.135,0.025
4590,0.090,0.010
4591,0.075,0.005
4592,0.060,0.000
4593,0.060,-0.005
4594,0.055,-0.010
4595,0.025,0.000
4596,-0.015,0.005
4597,-0.085,-0.015
4598,-0.130,-0.030
4599,-0.120,-0.030
4600,-0.100,-0.030
4601,-0.075,-0.030
4602,-0.060,-0.030
4603,-0.070,-0.030
4604,-0.080,-0.030
4605,-0.095,-0.045
4606,-0.100,-0.045
4607,-0.095,-0.035
4608,-0.090,-0.030
4609,-0.085,-0.025
4610,-0.080,-0.020
4611,-0.080,-0.015
4612,-0.005,0.090
4613,0.115,0.245
4614,0.000,0.245
4615,-0.210,0.180
4616,-0.215,0.105
4617,-0.155,0.025
4618,0.120,0.055
4619,0.445,0.110
4620,0.770,0.140
4621,1.095,0.165
4622,1.165,-0.090
4623,1.205,-0.385
4624,0.900,-0.710
4625,1.210,-0.400
4626,0.245,-1.365
4627,-0.085,-1.680
4628,-0.410,-1.720
4629,-0.740,-1.755
4630,-1.065,-1.680
4631,-1.390,-1.595
4632,-1.705,-1.480
4633,-1.900,-1.330
4634,-1.575,-1.060
4635,-1.250,-0.800
4636,-0.925,-0.570
4637,-0.630,-0.370
4638,-0.405,-0.245
4639,-0.235,-0.145
4640,-0.190,-0.090
4641,-0.155,-0.045
4642,-0.125,-0.030
4643,-0.105,-0.015
4644,-0.090,0.000
4645,-0.075,0.010
4646,-0.060,0.015
4647,-0.050,0.025
4648,-0.045,0.040
4649,-0.040,0.050
4650,-0.035,0.045
4651,-0.020,0.040
4652,0.000,0.045
4653,0.010,0.050
4654,0.005,0.050
4655,0.005,0.050
4656,0.015,0.050
4657,0.015,0.050
4658,0.005,0.055
4659,0.020,0.060
4660,0.045,0.065
4661,0.055,0.070
4662,0.065,0.075
4663,0.070,0.080
4664,0.070,0.080
4665,0.090,0.085
4666,0.115,0.095
4667,0.140,0.115
4668,0.160,0.130
4669,0.165,0.135
4670,0.170,0.140
4671,0.190,0.155
4672,0.210,0.170
4673,0.225,0.195
4674,0.245,0.220
4675,0.285,0.230
4676,0.325,0.240
4677,0.350,0.255
4678,0.375,0.270
4679,0.400,0.285
4680,0.425,0.300
4681,0.450,0.305
4682,0.480,0.310
4683,0.515,0.320
4684,0.550,0.335
4685,0.580,0.350
4686,0.605,0.360
4687,0.620,0.360
4688,0.650,0.360
4689,0.690,0.365
4690,0.710,0.370
4691,0.715,0.370
4692,0.730,0.370
4693,0.750,0.370
4694,0.760,0.370
4695,0.760,0.365
4696,0.760,0.360
4697,0.765,0.355
4698,0.770,0.350
4699,0.770,0.345
4700,0.740,0.320
4701,0.700,0.295
4702,0.665,0.290
4703,0.625,0.290
4704,0.580,0.265
4705,0.535,0.235
4706,0.490,0.210
4707,0.445,0.185
4708,0.395,0.170
4709,0.340,0.150
4710,0.310,0.135
4711,0.280,0.120
4712,0.245,0.100
4713,0.210,0.080
4714,0.175,0.070
4715,0.140,0.060
4716,0.130,0.050
4717,0.115,0.040
4718,0.090,0.035
4719,0.070,0.030
4720,0.060,0.020
4721,0.050,0.010
4722,0.045,0.010
4723,0.035,0.010
4724,0.010,0.000
4725,-0.005,-0.005
4726,0.010,0.010
4727,0.015,0.020
4728,0.000,0.015
4729,-0.010,0.010
4730,0.005,0.010
4731,0.010,0.010
4732,0.005,0.005
4733,0.000,0.005
4734,0.005,0.015
4735,0.010,0.020
4736,0.005,0.025
4737,0.000,0.030
4738,0.000,0.025
4739,0.010,0.020
4740,0.025,0.025
4741,0.030,0.030
4742,0.025,0.030
4743,0.020,0.030
4744,0.025,0.030
4745,0.030,0.030
4746,0.035,0.030
4747,0.040,0.030
4748,0.035,0.025
4749,0.030,0.015
4750,0.030,0.020
4751,0.050,0.005
4752,0.080,0.010
4753,0.065,0.000
4754,0.050,-0.010
4755,0.070,-0.005
4756,0.090,0.000
4757,0.075,-0.010
4758,0.060,-0.020
4759,0.080,-0.020
4760,0.095,-0.020
4761,0.065,-0.025
4762,0.040,-0.030
4763,0.040,-0.035
4764,0.040,-0.040
4765,0.035,-0.050
4766,0.025,-0.060
4767,-0.005,-0.050
4768,-0.005,-0.040
4769,0.030,-0.035
4770,0.045,-0.030
4771,0.030,-0.035
4772,0.020,-0.040
4773,0.025,-0.035
4774,0.025,-0.035
4775,0.010,-0.045
4776,0.015,-0.040
4777,0.040,-0.020
4778,0.050,-0.020
4779,0.045,-0.035
4780,0.040,-0.040
4781,0.035,-0.035
4782,0.030,-0.030
4783,0.030,-0.030
4784,0.030,-0.030
4785,0.035,-0.035
4786,0.050,-0.025
4787,0.065,-0.005
4788,0.050,-0.005
4789,0.025,-0.015
4790,0.030,-0.015
4791,0.045,-0.005
4792,0.020,-0.005
4793,-0.010,-0.010
4794,0.025,-0.010
4795,0.060,-0.010
4796,0.060,0.000
4797,0.060,0.010
4798,0.055,0.010
4799,0.050,0.010
4800,0.030,0.015
4801,0.010,0.020
4802,0.010,0.015
4803,0.010,0.010
4804,0.015,0.020
4805,0.020,0.025
4806,0.010,0.005
4807,0.005,0.000
4808,0.025,0.045
4809,0.060,0.070
4810,0.110,0.070
4811,0.140,0.070
4812,0.135,0.080
4813,0.135,0.090
4814,0.145,0.090
4815,0.145,0.100
4816,0.130,0.120
4817,0.135,0.130
4818,0.165,0.130
4819,0.205,0.135
4820,0.255,0.145
4821,0.280,0.135
4822,0.300,0.110
4823,0.310,0.085
4824,0.305,0.065
4825,0.240,0.060
4826,0.165,0.065
4827,0.150,0.050
4828,0.145,0.025
4829,0.110,-0.005
4830,0.075,-0.035
4831,0.070,-0.030
4832,0.070,-0.015
4833,0.045,-0.005
4834,0.010,0.010
4835,-0.040,-0.005
4836,-0.090,-0.020
4837,-0.080,-0.025
4838,-0.070,-0.030
4839,-0.085,-0.025
4840,-0.100,-0.020
4841,-0.095,-0.025
4842,-0.090,-0.030
4843,-0.090,-0.015
4844,-0.080,0.000
4845,-0.035,0.000
4846,0.000,0.000
4847,-0.015,-0.005
4848,-0.025,0.000
4849,-0.005,0.030
4850,0.030,0.100
4851,0.085,0.240
4852,0.010,0.280
4853,-0.255,0.175
4854,-0.280,0.105
4855,-0.045,0.070
4856,0.240,0.100
4857,0.565,0.195
4858,0.890,0.290
4859,1.215,0.385
4860,1.320,0.220
4861,1.285,-0.110
4862,1.050,-0.440
4863,0.725,-0.765
4864,0.395,-1.095
4865,0.070,-1.420
4866,-0.260,-1.605
4867,-0.585,-1.740
4868,-0.915,-1.655
4869,-1.240,-1.515
4870,-1.440,-1.375
4871,-1.620,-1.235
4872,-1.350,-0.945
4873,-1.025,-0.635
4874,-0.705,-0.435
4875,-1.005,-0.620
4876,-0.300,-0.150
4877,-0.210,-0.060
4878,-0.165,-0.020
4879,-0.120,0.020
4880,-0.095,0.035
4881,-0.070,0.050
4882,-0.055,0.070
4883,-0.040,0.090
4884,-0.030,0.090
4885,-0.020,0.090
4886,-0.010,0.105
4887,0.000,0.120
4888,0.000,0.125
4889,0.005,0.130
4890,0.025,0.130
4891,0.045,0.130
4892,0.060,0.140
4893,0.070,0.150
4894,0.070,0.145
4895,0.070,0.140
4896,0.065,0.155
4897,0.075,0.170
4898,0.110,0.190
4899,0.130,0.200
4900,0.130,0.195
4901,0.135,0.195
4902,0.145,0.210
4903,0.150,0.225
4904,0.150,0.235
4905,0.175,0.250
4906,0.210,0.270
4907,0.235,0.280
4908,0.260,0.285
4909,0.265,0.295
4910,0.255,0.305
4911,0.275,0.345
4912,0.305,0.390
4913,0.355,0.390
4914,0.405,0.375
4915,0.410,0.395
4916,0.410,0.425
4917,0.440,0.445
4918,0.470,0.460
4919,0.510,0.475
4920,0.550,0.490
4921,0.560,0.500
4922,0.570,0.510
4923,0.590,0.525
4924,0.615,0.540
4925,0.660,0.545
4926,0.700,0.550
4927,0.700,0.545
4928,0.705,0.540
4929,0.730,0.550
4930,0.760,0.560
4931,0.795,0.550
4932,0.820,0.540
4933,0.830,0.550
4934,0.840,0.550
4935,0.835,0.510
4936,0.830,0.490
4937,0.820,0.480
4938,0.795,0.460
4939,0.765,0.435
4940,0.735,0.420
4941,0.705,0.415
4942,0.670,0.390
4943,0.635,0.345
4944,0.585,0.325
4945,0.520,0.305
4946,0.490,0.285
4947,0.470,0.260
4948,0.430,0.225
4949,0.385,0.190
4950,0.330,0.175
4951,0.280,0.165
4952,0.255,0.150
4953,0.235,0.135
4954,0.200,0.110
4955,0.165,0.085
4956,0.150,0.080
4957,0.135,0.085
4958,0.120,0.090
4959,0.100,0.080
4960,0.095,0.070
4961,0.090,0.060
4962,0.060,0.055
4963,0.030,0.050
4964,0.045,0.055
4965,0.060,0.060
4966,0.055,0.055
4967,0.050,0.050
4968,0.030,0.040
4969,0.010,0.030
4970,0.015,0.030
4971,0.025,0.035
4972,0.045,0.060
4973,0.060,0.080
4974,0.060,0.070
4975,0.055,0.055
4976,0.035,0.040
4977,0.015,0.030
4978,0.000,0.035
4979,0.005,0.055
4980,0.040,0.100
4981,0.075,0.095
4982,0.105,0.045
4983,0.110,0.025
4984,0.080,0.040
4985,0.075,0.050
4986,0.085,0.055
4987,0.080,0.060
4988,0.065,0.065
4989,0.065,0.070
4990,0.075,0.065
4991,0.100,0.060
4992,0.130,0.060
4993,0.115,0.040
4994,0.080,0.015
4995,0.075,0.065
4996,0.085,0.130
4997,0.115,0.085
4998,0.145,0.025
4999,0.140,0.030
5000,0.150,0.020
5001,0.120,0.035
5002,0.120,0.020
5003,0.100,0.020
5004,0.080,0.020
5005,0.085,0.030
5006,0.090,0.040
5007,0.085,0.015
5008,0.080,-0.010
5009,0.075,0.000
5010,0.070,0.010
5011,0.065,0.015
5012,0.060,0.020
5013,0.055,0.020
5014,0.050,0.020
5015,0.050,0.015
5016,0.050,0.010
5017,0.045,0.005
5018,0.035,0.000
5019,0.015,-0.010
5020,0.000,-0.015
5021,0.005,0.000
5022,0.010,0.010
5023,0.015,0.010
5024,0.020,0.010
5025,0.020,0.005
5026,0.020,0.000
5027,0.020,0.005
5028,0.010,0.005
5029,-0.005,-0.005
5030,0.000,-0.005
5031,0.015,0.005
5032,0.020,0.010
5033,0.020,0.005
5034,0.025,0.000
5035,0.035,-0.005
5036,0.040,-0.010
5037,0.035,-0.005
5038,0.030,0.000
5039,0.025,-0.005
5040,0.020,-0.010
5041,0.025,-0.015
5042,0.020,-0.015
5043,0.010,-0.010
5044,0.005,-0.020
5045,0.000,-0.030
5046,0.010,-0.020
5047,0.020,-0.010
5048,0.000,-0.020
5049,-0.015,-0.025
5050,0.020,0.015
5051,0.050,0.050
5052,0.065,0.035
5053,0.085,0.020
5054,0.110,0.025
5055,0.125,0.040
5056,0.090,0.080
5057,0.095,0.110
5058,0.180,0.100
5059,0.215,0.090
5060,0.170,0.100
5061,0.150,0.110
5062,0.180,0.120
5063,0.215,0.130
5064,0.245,0.130
5065,0.280,0.120
5066,0.320,0.100
5067,0.315,0.080
5068,0.270,0.060
5069,0.230,0.045
5070,0.195,0.035
5071,0.155,0.010
5072,0.115,-0.030
5073,0.095,-0.035
5074,0.085,-0.025
5075,0.080,-0.025
5076,0.075,-0.035
5077,0.040,-0.040
5078,0.000,-0.035
5079,-0.050,-0.035
5080,-0.105,-0.045
5081,-0.110,-0.065
5082,-0.115,-0.085
5083,-0.110,-0.080
5084,-0.090,-0.060
5085,-0.105,-0.065
5086,-0.120,-0.070
5087,-0.130,-0.075
5088,-0.140,-0.080
5089,-0.145,-0.085
5090,-0.150,-0.085
5091,-0.135,-0.045
5092,-0.120,-0.015
5093,-0.125,-0.055
5094,-0.105,-0.045
5095,-0.005,0.145
5096,0.020,0.265
5097,-0.160,0.215
5098,-0.255,0.155
5099,-0.165,0.065
5100,0.015,0.045
5101,0.340,0.145
5102,0.665,0.240
5103,0.990,0.345
5104,1.315,0.245
5105,1.640,-0.085
5106,1.625,-0.410
5107,1.295,-0.740
5108,0.970,-1.065
5109,0.640,-1.395
5110,0.315,-1.630
5111,-0.015,-1.810
5112,-0.345,-1.785
5113,-0.670,-1.660
5114,-1.000,-1.485
5115,-1.325,-1.295
5116,-1.200,-1.010
5117,-0.935,-0.690
5118,-0.705,-0.485
5119,-0.485,-0.300
5120,-0.370,-0.165
5121,-0.270,-0.045
5122,-0.175,-0.005
5123,-0.075,0.025
5124,-0.075,0.020
5125,-0.070,0.030
5126,-0.095,0.020
5127,-0.100,0.040
5128,-0.035,0.075
5129,0.030,0.110
5130,0.025,0.095
5131,0.020,0.080
5132,-0.005,0.090
5133,-0.030,0.100
5134,-0.015,0.120
5135,0.000,0.140
5136,0.005,0.135
5137,0.010,0.130
5138,-0.005,0.140
5139,-0.010,0.150
5140,0.020,0.155
5141,0.040,0.160
5142,0.030,0.160
5143,0.020,0.165
5144,0.020,0.180
5145,0.030,0.190
5146,0.065,0.205
5147,0.090,0.220
5148,0.115,0.245
5149,0.150,0.250
5150,0.185,0.230
5151,0.200,0.230
5152,0.195,0.250
5153,0.190,0.270
5154,0.195,0.290
5155,0.220,0.310
5156,0.250,0.330
5157,0.275,0.355
5158,0.300,0.380
5159,0.310,0.395
5160,0.315,0.405
5161,0.360,0.435
5162,0.410,0.465
5163,0.425,0.485
5164,0.435,0.505
5165,0.490,0.510
5166,0.545,0.515
5167,0.570,0.545
5168,0.590,0.570
5169,0.665,0.580
5170,0.740,0.590
5171,0.765,0.570
5172,0.790,0.550
5173,0.795,0.565
5174,0.800,0.580
5175,0.830,0.570
5176,0.850,0.560
5177,0.865,0.555
5178,0.880,0.545
5179,0.875,0.520
5180,0.865,0.500
5181,0.845,0.480
5182,0.825,0.460
5183,0.800,0.430
5184,0.760,0.405
5185,0.695,0.385
5186,0.635,0.350
5187,0.575,0.305
5188,0.520,0.275
5189,0.475,0.260
5190,0.435,0.245
5191,0.395,0.235
5192,0.380,0.210
5193,0.375,0.165
5194,0.345,0.135
5195,0.305,0.110
5196,0.270,0.100
5197,0.230,0.095
5198,0.205,0.085
5199,0.185,0.075
5200,0.160,0.055
5201,0.130,0.035
5202,0.105,0.030
5203,0.085,0.030
5204,0.080,0.030
5205,0.085,0.025
5206,0.085,0.020
5207,0.075,0.020
5208,0.045,0.010
5209,0.010,-0.010
5210,0.040,0.000
5211,0.070,0.010
5212,0.065,0.000
5213,0.060,-0.010
5214,0.060,0.005
5215,0.060,0.020
5216,0.055,0.015
5217,0.050,0.010
5218,0.040,0.010
5219,0.030,0.010
5220,0.025,0.015
5221,0.020,0.020
5222,0.035,0.025
5223,0.050,0.030
5224,0.050,0.025
5225,0.045,0.020
5226,0.030,0.030
5227,0.030,0.040
5228,0.055,0.035
5229,0.070,0.030
5230,0.055,0.025
5231,0.055,0.025
5232,0.070,0.035
5233,0.075,0.040
5234,0.060,0.040
5235,0.050,0.035
5236,0.050,0.025
5237,0.070,0.030
5238,0.100,0.050
5239,0.105,0.060
5240,0.095,0.060
5241,0.090,0.060
5242,0.085,0.055
5243,0.080,0.055
5244,0.080,0.065
5245,0.080,0.055
5246,0.075,0.035
5247,0.070,0.040
5248,0.070,0.055
5249,0.060,0.050
5250,0.070,0.060
5251,0.050,0.025
5252,0.060,0.020
5253,0.060,0.020
5254,0.060,0.020
5255,0.035,0.020
5256,0.010,0.020
5257,0.005,0.020
5258,0.000,0.020
5259,0.015,0.010
5260,0.030,0.000
5261,0.030,0.015
5262,0.025,0.030
5263,0.000,0.020
5264,-0.020,0.010
5265,-0.015,0.020
5266,-0.010,0.030
5267,-0.005,0.025
5268,0.000,0.020
5269,0.005,0.025
5270,0.010,0.030
5271,-0.005,0.015
5272,-0.010,0.010
5273,-0.010,0.015
5274,-0.015,0.020
5275,-0.025,0.015
5276,-0.030,0.010
5277,-0.030,0.010
5278,-0.030,0.010
5279,-0.035,0.005
5280,-0.040,0.000
5281,-0.040,0.000
5282,-0.040,-0.010
5283,-0.040,-0.025
5284,-0.050,-0.030
5285,-0.065,-0.030
5286,-0.070,-0.030
5287,-0.065,-0.030
5288,-0.060,-0.030
5289,-0.060,-0.035
5290,-0.035,-0.040
5291,-0.005,-0.045
5292,0.020,-0.030
5293,0.040,-0.010
5294,0.045,0.000
5295,0.050,0.010
5296,0.070,0.020
5297,0.090,0.030
5298,0.080,0.025
5299,0.070,0.020
5300,0.060,0.030
5301,0.060,0.040
5302,0.110,0.040
5303,0.170,0.040
5304,0.260,0.045
5305,0.320,0.040
5306,0.300,0.005
5307,0.280,-0.020
5308,0.245,-0.020
5309,0.195,-0.030
5310,0.130,-0.070
5311,0.085,-0.090
5312,0.070,-0.090
5313,0.045,-0.090
5314,0.015,-0.095
5315,0.000,-0.105
5316,0.005,-0.115
5317,-0.020,-0.110
5318,-0.075,-0.090
5319,-0.110,-0.090
5320,-0.130,-0.110
5321,-0.135,-0.120
5322,-0.125,-0.120
5323,-0.120,-0.120
5324,-0.125,-0.115
5325,-0.135,-0.110
5326,-0.145,-0.105
5327,-0.150,-0.100
5328,-0.155,-0.100
5329,-0.150,-0.100
5330,-0.135,-0.100
5331,-0.130,-0.100
5332,-0.130,-0.095
5333,-0.085,-0.010
5334,-0.030,0.080
5335,-0.060,0.170
5336,-0.100,0.250
5337,-0.300,0.080
5338,-0.445,-0.075
5339,-0.120,-0.005
5340,0.205,0.070
5341,0.530,0.165
5342,0.855,0.250
5343,1.180,0.310
5344,1.345,0.280
5345,1.020,-0.045
5346,0.690,-0.375
5347,0.365,-0.700
5348,0.035,-1.030
5349,-0.295,-1.360
5350,-0.620,-1.590
5351,-0.950,-1.680
5352,-1.275,-1.670
5353,-1.605,-1.520
5354,-1.725,-1.355
5355,-1.620,-1.175
5356,-1.400,-0.945
5357,-1.075,-0.670
5358,-0.795,-0.470
5359,-0.545,-0.325
5360,-0.380,-0.210
5361,-0.260,-0.105
5362,-0.210,-0.065
5363,-0.195,-0.055
5364,-0.165,-0.040
5365,-0.120,-0.025
5366,-0.105,-0.020
5367,-0.095,-0.015
5368,-0.080,-0.010
5369,-0.065,-0.015
5370,-0.060,-0.010
5371,-0.065,0.005
5372,-0.055,0.015
5373,-0.035,0.025
5374,-0.030,0.025
5375,-0.030,0.030
5376,-0.005,0.010
5377,0.010,0.010
5378,0.005,0.020
5379,0.000,0.030
5380,0.005,0.020
5381,0.010,0.010
5382,0.020,0.030
5383,0.030,0.050
5384,0.030,0.065
5385,0.035,0.080
5386,0.070,0.105
5387,0.100,0.120
5388,0.100,0.125
5389,0.115,0.130
5390,0.160,0.140
5391,0.190,0.150
5392,0.180,0.160
5393,0.175,0.180
5394,0.195,0.210
5395,0.220,0.230
5396,0.255,0.245
5397,0.280,0.255
5398,0.300,0.265
5399,0.315,0.275
5400,0.325,0.290
5401,0.345,0.305
5402,0.375,0.320
5403,0.425,0.340
5404,0.480,0.360
5405,0.505,0.370
5406,0.515,0.370
5407,0.550,0.370
5408,0.590,0.375
5409,0.605,0.380
5410,0.615,0.380
5411,0.645,0.380
5412,0.675,0.385
5413,0.680,0.390
5414,0.685,0.390
5415,0.720,0.390
5416,0.755,0.385
5417,0.755,0.370
5418,0.750,0.360
5419,0.760,0.355
5420,0.770,0.350
5421,0.755,0.330
5422,0.740,0.310
5423,0.710,0.285
5424,0.675,0.260
5425,0.615,0.240
5426,0.560,0.220
5427,0.505,0.215
5428,0.455,0.205
5429,0.415,0.175
5430,0.385,0.150
5431,0.350,0.130
5432,0.310,0.120
5433,0.240,0.115
5434,0.190,0.105
5435,0.165,0.090
5436,0.150,0.080
5437,0.140,0.075
5438,0.105,0.065
5439,0.050,0.055
5440,0.020,0.050
5441,0.015,0.055
5442,0.005,0.060
5443,-0.005,0.055
5444,-0.005,0.050
5445,0.005,0.045
5446,-0.010,0.035
5447,-0.040,0.025
5448,-0.035,0.035
5449,-0.010,0.060
5450,-0.030,0.060
5451,-0.070,0.045
5452,-0.080,0.045
5453,-0.075,0.055
5454,-0.060,0.060
5455,-0.045,0.065
5456,-0.055,0.070
5457,-0.075,0.065
5458,-0.065,0.060
5459,-0.040,0.070
5460,-0.035,0.080
5461,-0.030,0.090
5462,-0.050,0.085
5463,-0.070,0.080
5464,-0.040,0.080
5465,-0.010,0.080
5466,-0.030,0.075
5467,-0.050,0.070
5468,-0.045,0.070
5469,-0.040,0.070
5470,-0.040,0.065
5471,-0.040,0.060
5472,-0.035,0.065
5473,-0.030,0.070
5474,-0.040,0.075
5475,-0.050,0.080
5476,-0.045,0.070
5477,-0.040,0.060
5478,-0.035,0.060
5479,-0.030,0.055
5480,-0.025,0.040
5481,-0.020,0.030
5482,-0.015,0.030
5483,-0.015,0.035
5484,-0.030,0.045
5485,-0.045,0.040
5486,-0.055,0.020
5487,-0.050,0.015
5488,-0.035,0.025
5489,-0.040,0.030
5490,-0.055,0.025
5491,-0.060,0.015
5492,-0.060,0.005
5493,-0.060,0.005
5494,-0.060,0.015
5495,-0.060,0.025
5496,-0.065,0.035
5497,-0.070,0.040
5498,-0.070,0.035
5499,-0.070,0.030
5500,-0.070,0.030
5501,-0.095,0.030
5502,-0.110,0.030
5503,-0.095,0.035
5504,-0.080,0.040
5505,-0.095,0.035
5506,-0.110,0.030
5507,-0.095,0.045
5508,-0.080,0.060
5509,-0.085,0.060
5510,-0.090,0.060
5511,-0.095,0.055
5512,-0.100,0.050
5513,-0.105,0.050
5514,-0.110,0.050
5515,-0.115,0.040
5516,-0.120,0.035
5517,-0.110,0.050
5518,-0.105,0.055
5519,-0.120,0.040
5520,-0.130,0.030
5521,-0.115,0.045
5522,-0.110,0.045
5523,-0.105,0.030
5524,-0.110,0.020
5525,-0.130,0.025
5526,-0.130,0.030
5527,-0.110,0.035
5528,-0.110,0.035
5529,-0.125,0.025
5530,-0.130,0.015
5531,-0.130,0.005
5532,-0.120,0.005
5533,-0.105,0.015
5534,-0.105,0.020
5535,-0.115,0.020
5536,-0.085,0.050
5537,-0.040,0.085
5538,-0.040,0.090
5539,-0.055,0.085
5540,-0.030,0.100
5541,0.005,0.125
5542,-0.015,0.130
5543,-0.040,0.130
5544,0.000,0.135
5545,0.040,0.140
5546,0.085,0.135
5547,0.130,0.130
5548,0.170,0.120
5549,0.200,0.110
5550,0.185,0.095
5551,0.165,0.075
5552,0.125,0.050
5553,0.085,0.030
5554,0.060,0.025
5555,0.035,0.020
5556,0.000,0.010
5557,-0.020,0.000
5558,-0.015,0.000
5559,-0.025,0.000
5560,-0.070,-0.010
5561,-0.115,-0.020
5562,-0.155,-0.010
5563,-0.175,0.000
5564,-0.165,-0.005
5565,-0.170,-0.015
5566,-0.190,-0.025
5567,-0.200,-0.030
5568,-0.200,-0.025
5569,-0.200,-0.020
5570,-0.205,-0.020
5571,-0.210,-0.020
5572,-0.210,-0.020
5573,-0.195,-0.015
5574,-0.175,-0.005
5575,-0.170,0.000
5576,-0.170,0.005
5577,-0.115,0.120
5578,-0.050,0.250
5579,-0.165,0.265
5580,-0.315,0.255
5581,-0.365,0.140
5582,-0.405,0.015
5583,-0.100,0.095
5584,0.230,0.190
5585,0.555,0.340
5586,0.880,0.470
5587,1.205,0.280
5588,1.460,0.075
5589,1.135,-0.250
5590,0.805,-0.580
5591,0.480,-0.905
5592,0.150,-1.235
5593,-0.175,-1.560
5594,-0.505,-1.800
5595,-0.830,-1.755
5596,-1.160,-1.655
5597,-1.485,-1.435
5598,-1.595,-1.200
5599,-1.270,-0.930
5600,-0.980,-0.660
5601,-0.750,-0.405
5602,-0.560,-0.215
5603,-0.425,-0.100
5604,-0.330,-0.035
5605,-0.285,-0.020
5606,-0.255,0.000
5607,-0.245,0.025
5608,-0.235,0.045
5609,-0.220,0.055
5610,-0.210,0.065
5611,-0.205,0.075
5612,-0.185,0.080
5613,-0.160,0.085
5614,-0.160,0.095
5615,-0.185,0.105
5616,-0.165,0.105
5617,-0.130,0.095
5618,-0.115,0.105
5619,-0.105,0.125
5620,-0.105,0.135
5621,-0.115,0.145
5622,-0.115,0.145
5623,-0.105,0.135
5624,-0.090,0.145
5625,-0.100,0.130
5626,-0.050,0.180
5627,-0.030,0.190
5628,-0.015,0.195
5629,0.000,0.200
5630,0.000,0.215
5631,0.005,0.230
5632,0.055,0.245
5633,0.100,0.260
5634,0.105,0.275
5635,0.115,0.290
5636,0.145,0.300
5637,0.170,0.315
5638,0.175,0.340
5639,0.185,0.360
5640,0.210,0.370
5641,0.240,0.385
5642,0.275,0.405
5643,0.310,0.425
5644,0.340,0.445
5645,0.375,0.465
5646,0.420,0.490
5647,0.455,0.505
5648,0.485,0.520
5649,0.515,0.530
5650,0.545,0.535
5651,0.580,0.545
5652,0.615,0.555
5653,0.640,0.560
5654,0.660,0.560
5655,0.680,0.560
5656,0.695,0.555
5657,0.730,0.550
5658,0.780,0.550
5659,0.790,0.540
5660,0.795,0.525
5661,0.800,0.515
5662,0.800,0.505
5663,0.800,0.490
5664,0.800,0.475
5665,0.770,0.440
5666,0.735,0.405
5667,0.705,0.385
5668,0.680,0.370
5669,0.610,0.350
5670,0.540,0.330
5671,0.515,0.300
5672,0.485,0.270
5673,0.420,0.245
5674,0.355,0.220
5675,0.310,0.205
5676,0.265,0.190
5677,0.225,0.175
5678,0.190,0.160
5679,0.175,0.150
5680,0.145,0.135
5681,0.080,0.110
5682,0.045,0.090
5683,0.070,0.085
5684,0.085,0.080
5685,0.065,0.070
5686,0.050,0.060
5687,0.040,0.055
5688,0.025,0.050
5689,0.015,0.045
5690,0.005,0.040
5691,-0.005,0.035
5692,-0.015,0.030
5693,-0.025,0.030
5694,-0.025,0.030
5695,-0.015,0.030
5696,-0.010,0.035
5697,-0.010,0.045
5698,-0.020,0.050
5699,-0.035,0.045
5700,-0.040,0.040
5701,-0.045,0.040
5702,-0.035,0.040
5703,-0.015,0.045
5704,-0.010,0.050
5705,-0.015,0.055
5706,-0.020,0.060
5707,-0.025,0.055
5708,-0.025,0.050
5709,-0.010,0.060
5710,-0.010,0.060
5711,-0.010,0.060
5712,-0.010,0.065
5713,-0.010,0.070
5714,0.015,0.070
5715,0.040,0.070
5716,0.015,0.070
5717,-0.010,0.070
5718,0.005,0.060
5719,0.020,0.050
5720,0.005,0.055
5721,0.000,0.060
5722,0.035,0.050
5723,0.050,0.045
5724,0.020,0.060
5725,0.000,0.070
5726,0.010,0.060
5727,0.020,0.050
5728,0.025,0.045
5729,0.030,0.040
5730,0.015,0.025
5731,0.010,0.025
5732,0.015,0.035
5733,0.020,0.035
5734,0.025,0.020
5735,0.025,0.010
5736,0.010,0.005
5737,0.000,0.005
5738,0.005,0.015
5739,0.010,0.010
5740,0.010,-0.005
5741,0.010,-0.010
5742,0.005,-0.005
5743,0.000,0.000
5744,0.000,0.005
5745,-0.010,0.010
5746,-0.025,0.005
5747,-0.015,0.005
5748,0.005,0.015
5749,-0.015,0.020
5750,0.010,0.020
5751,-0.030,0.020
5752,-0.010,0.020
5753,-0.015,0.005
5754,-0.020,-0.010
5755,-0.035,-0.005
5756,-0.050,0.000
5757,-0.050,0.005
5758,-0.050,0.010
5759,-0.055,0.000
5760,-0.060,-0.010
5761,-0.050,-0.005
5762,-0.045,0.000
5763,-0.075,-0.010
5764,-0.100,-0.020
5765,-0.095,-0.015
5766,-0.090,-0.010
5767,-0.080,-0.015
5768,-0.070,-0.020
5769,-0.075,-0.020
5770,-0.080,-0.020
5771,-0.075,-0.025
5772,-0.075,-0.030
5773,-0.090,-0.035
5774,-0.100,-0.035
5775,-0.105,-0.025
5776,-0.075,-0.015
5777,-0.015,0.000
5778,0.000,0.020
5779,-0.015,0.040
5780,-0.010,0.055
5781,0.010,0.065
5782,0.015,0.070
5783,0.005,0.070
5784,0.010,0.070
5785,0.025,0.075
5786,0.065,0.080
5787,0.110,0.080
5788,0.170,0.070
5789,0.235,0.055
5790,0.210,0.040
5791,0.175,0.025
5792,0.120,-0.010
5793,0.070,-0.040
5794,0.045,-0.055
5795,0.020,-0.070
5796,0.005,-0.080
5797,-0.010,-0.090
5798,-0.020,-0.095
5799,-0.035,-0.100
5800,-0.070,-0.090
5801,-0.110,-0.080
5802,-0.155,-0.080
5803,-0.190,-0.080
5804,-0.180,-0.095
5805,-0.170,-0.110
5806,-0.180,-0.110
5807,-0.190,-0.110
5808,-0.195,-0.100
5809,-0.200,-0.090
5810,-0.200,-0.100
5811,-0.200,-0.110
5812,-0.200,-0.100
5813,-0.190,-0.090
5814,-0.170,-0.085
5815,-0.160,-0.075
5816,-0.165,-0.060
5817,-0.110,0.040
5818,0.000,0.190
5819,-0.085,0.230
5820,-0.285,0.195
5821,-0.325,0.110
5822,-0.285,0.010
5823,-0.035,0.055
5824,0.290,0.155
5825,0.615,0.260
5826,0.940,0.370
5827,1.265,0.150
5828,1.590,-0.140
5829,1.350,-0.465
5830,1.025,-0.790
5831,0.695,-1.120
5832,0.370,-1.445
5833,0.040,-1.700
5834,-0.290,-1.950
5835,-0.615,-1.840
5836,-0.945,-1.720
5837,-1.270,-1.515
5838,-1.540,-1.305
5839,-1.280,-1.030
5840,-1.020,-0.765
5841,-0.765,-0.510
5842,-0.540,-0.290
5843,-0.420,-0.185
5844,-0.325,-0.095
5845,-0.295,-0.065
5846,-0.265,-0.040
5847,-0.240,-0.025
5848,-0.220,-0.010
5849,-0.210,0.000
5850,-0.190,0.010
5851,-0.160,0.015
5852,-0.140,0.020
5853,-0.145,0.025
5854,-0.145,0.035
5855,-0.120,0.050
5856,-0.115,0.055
5857,-0.125,0.045
5858,-0.125,0.050
5859,-0.110,0.080
5860,-0.100,0.090
5861,-0.100,0.085
5862,-0.100,0.080
5863,-0.105,0.085
5864,-0.095,0.100
5865,-0.070,0.125
5866,-0.055,0.140
5867,-0.045,0.155
5868,-0.030,0.160
5869,-0.015,0.165
5870,0.000,0.170
5871,0.015,0.175
5872,0.030,0.195
5873,0.045,0.215
5874,0.070,0.220
5875,0.050,0.220
5876,0.125,0.240
5877,0.150,0.260
5878,0.160,0.275
5879,0.170,0.290
5880,0.195,0.295
5881,0.225,0.300
5882,0.265,0.325
5883,0.300,0.350
5884,0.315,0.360
5885,0.335,0.370
5886,0.370,0.385
5887,0.410,0.400
5888,0.450,0.395
5889,0.485,0.395
5890,0.500,0.415
5891,0.520,0.430
5892,0.555,0.430
5893,0.585,0.430
5894,0.600,0.425
5895,0.620,0.420
5896,0.645,0.405
5897,0.675,0.400
5898,0.705,0.405
5899,0.725,0.410
5900,0.735,0.410
5901,0.745,0.400
5902,0.755,0.380
5903,0.750,0.360
5904,0.735,0.345
5905,0.720,0.330
5906,0.700,0.310
5907,0.670,0.285
5908,0.640,0.265
5909,0.590,0.250
5910,0.530,0.235
5911,0.475,0.205
5912,0.420,0.175
5913,0.375,0.155
5914,0.335,0.135
5915,0.280,0.120
5916,0.225,0.105
5917,0.190,0.085
5918,0.160,0.070
5919,0.115,0.065
5920,0.070,0.060
5921,0.060,0.050
5922,0.050,0.040
5923,0.020,0.030
5924,-0.010,0.020
5925,-0.020,0.025
5926,-0.030,0.030
5927,-0.035,0.035
5928,-0.040,0.040
5929,-0.050,0.030
5930,-0.060,0.020
5931,-0.040,0.025
5932,-0.035,0.030
5933,-0.055,0.025
5934,-0.075,0.020
5935,-0.095,0.015
5936,-0.110,0.010
5937,-0.100,0.010
5938,-0.080,0.010
5939,-0.060,0.015
5940,-0.055,0.020
5941,-0.065,0.015
5942,-0.070,0.010
5943,-0.065,0.015
5944,-0.075,0.020
5945,-0.100,0.020
5946,-0.110,0.020
5947,-0.105,0.020
5948,-0.075,0.020
5949,-0.040,0.015
5950,-0.050,0.015
5951,-0.080,0.025
5952,-0.080,0.030
5953,-0.065,0.035
5954,-0.075,0.040
5955,-0.095,0.040
5956,-0.095,0.040
5957,-0.085,0.040
5958,-0.080,0.040
5959,-0.080,0.050
5960,-0.075,0.045
5961,-0.070,0.040
5962,-0.060,0.040
5963,-0.050,0.040
5964,-0.070,0.040
5965,-0.085,0.040
5966,-0.050,0.035
5967,-0.020,0.030
5968,-0.030,0.025
5969,-0.045,0.020
5970,-0.070,0.015
5971,-0.090,0.010
5972,-0.080,0.015
5973,-0.070,0.020
5974,-0.070,0.010
5975,-0.070,0.000
5976,-0.070,0.005
5977,-0.070,0.010
5978,-0.080,0.000
5979,-0.090,-0.010
5980,-0.085,0.005
5981,-0.085,0.005
5982,-0.100,-0.010
5983,-0.110,-0.020
5984,-0.115,-0.020
5985,-0.120,-0.020
5986,-0.115,-0.025
5987,-0.110,-0.030
5988,-0.115,-0.035
5989,-0.120,-0.040
5990,-0.115,-0.045
5991,-0.110,-0.050
5992,-0.110,-0.045
5993,-0.110,-0.045
5994,-0.115,-0.055
5995,-0.120,-0.060
5996,-0.125,-0.060
5997,-0.125,-0.060
5998,-0.115,-0.060
5999,-0.110,-0.065
6000,-0.110,-0.060
6001,-0.125,-0.075
6002,-0.130,-0.070
6003,-0.160,-0.080
6004,-0.190,-0.090
6005,-0.170,-0.090
6006,-0.155,-0.090
6007,-0.190,-0.090
6008,-0.215,-0.090
6009,-0.175,-0.085
6010,-0.140,-0.080
6011,-0.150,-0.075
6012,-0.160,-0.070
6013,-0.160,-0.075
6014,-0.160,-0.080
6015,-0.165,-0.085
6016,-0.170,-0.090
6017,-0.160,-0.085
6018,-0.145,-0.080
6019,-0.125,-0.070
6020,-0.105,-0.055
6021,-0.090,-0.040
6022,-0.080,-0.020
6023,-0.080,0.000
6024,-0.080,0.010
6025,-0.075,0.005
6026,-0.055,0.010
6027,-0.025,0.030
6028,-0.005,0.030
6029,0.005,0.010
6030,0.085,0.015
6031,0.200,0.040
6032,0.185,0.025
6033,0.125,-0.010
6034,0.110,-0.020
6035,0.105,-0.025
6036,0.045,-0.050
6037,-0.020,-0.075
6038,-0.050,-0.090
6039,-0.075,-0.105
6040,-0.090,-0.110
6041,-0.105,-0.110
6042,-0.120,-0.100
6043,-0.130,-0.090
6044,-0.175,-0.080
6045,-0.220,-0.070
6046,-0.240,-0.115
6047,-0.260,-0.160
6048,-0.220,-0.135
6049,-0.195,-0.110
6050,-0.235,-0.120
6051,-0.270,-0.130
6052,-0.260,-0.125
6053,-0.250,-0.120
6054,-0.245,-0.115
6055,-0.240,-0.110
6056,-0.245,-0.110
6057,-0.250,-0.110
6058,-0.255,-0.115
6059,-0.235,-0.090
6060,-0.170,-0.005
6061,-0.145,0.080
6062,-0.185,0.180
6063,-0.325,0.155
6064,-0.555,0.000
6065,-0.485,-0.050
6066,-0.160,-0.010
6067,0.165,0.060
6068,0.490,0.145
6069,0.815,0.200
6070,1.140,0.235
6071,1.020,0.025
6072,0.695,-0.300
6073,0.365,-0.630
6074,0.040,-0.955
6075,-0.290,-1.285
6076,-0.615,-1.610
6077,-0.945,-1.775
6078,-1.270,-1.900
6079,-1.600,-1.780
6080,-1.925,-1.615
6081,-1.795,-1.440
6082,-1.620,-1.270
6083,-1.300,-0.955
6084,-0.975,-0.640
6085,-0.735,-0.480
6086,-0.505,-0.325
6087,-0.420,-0.230
6088,-0.340,-0.140
6089,-0.305,-0.120
6090,-0.265,-0.100
6091,-0.230,-0.065
6092,-0.200,-0.040
6093,-0.190,-0.040
6094,-0.180,-0.040
6095,-0.165,-0.025
6096,-0.150,-0.010
6097,-0.145,-0.005
6098,-0.140,0.000
6099,-0.140,0.000
6100,-0.140,0.005
6101,-0.135,0.020
6102,-0.130,0.030
6103,-0.125,0.030
6104,-0.120,0.030
6105,-0.105,0.035
6106,-0.095,0.045
6107,-0.080,0.060
6108,-0.070,0.070
6109,-0.075,0.070
6110,-0.070,0.075
6111,-0.050,0.090
6112,-0.035,0.110
6113,-0.025,0.125
6114,-0.015,0.135
6115,-0.005,0.145
6116,0.015,0.150
6117,0.045,0.155
6118,0.060,0.175
6119,0.075,0.195
6120,0.100,0.205
6121,0.125,0.215
6122,0.135,0.225
6123,0.145,0.235
6124,0.170,0.240
6125,0.150,0.240
6126,0.230,0.265
6127,0.260,0.290
6128,0.280,0.295
6129,0.300,0.300
6130,0.335,0.320
6131,0.370,0.340
6132,0.405,0.350
6133,0.435,0.360
6134,0.470,0.360
6135,0.500,0.360
6136,0.525,0.365
6137,0.545,0.370
6138,0.575,0.355
6139,0.605,0.340
6140,0.625,0.350
6141,0.645,0.360
6142,0.675,0.350
6143,0.690,0.340
6144,0.700,0.340
6145,0.710,0.330
6146,0.715,0.305
6147,0.710,0.290
6148,0.690,0.295
6149,0.670,0.280
6150,0.640,0.245
6151,0.605,0.225
6152,0.560,0.210
6153,0.505,0.190
6154,0.450,0.170
6155,0.405,0.150
6156,0.365,0.135
6157,0.315,0.110
6158,0.265,0.080
6159,0.210,0.065
6160,0.150,0.055
6161,0.135,0.035
6162,0.125,0.015
6163,0.075,0.005
6164,0.025,-0.005
6165,0.020,-0.030
6166,0.015,-0.055
6167,-0.025,-0.065
6168,-0.060,-0.070
6169,-0.060,-0.075
6170,-0.060,-0.080
6171,-0.060,-0.105
6172,-0.060,-0.130
6173,-0.075,-0.105
6174,-0.090,-0.080
6175,-0.100,-0.095
6176,-0.110,-0.110
6177,-0.110,-0.090
6178,-0.110,-0.070
6179,-0.105,-0.075
6180,-0.105,-0.080
6181,-0.125,-0.085
6182,-0.140,-0.090
6183,-0.140,-0.085
6184,-0.140,-0.080
6185,-0.150,-0.075
6186,-0.160,-0.070
6187,-0.150,-0.070
6188,-0.135,-0.070
6189,-0.120,-0.065
6190,-0.120,-0.060
6191,-0.145,-0.055
6192,-0.145,-0.050
6193,-0.120,-0.050
6194,-0.120,-0.045
6195,-0.140,-0.035
6196,-0.140,-0.030
6197,-0.125,-0.025
6198,-0.115,-0.020
6199,-0.105,-0.015
6200,-0.100,-0.010
6201,-0.105,-0.010
6202,-0.100,-0.010
6203,-0.085,-0.010
6204,-0.100,-0.010
6205,-0.125,-0.015
6206,-0.110,-0.020
6207,-0.085,-0.025
6208,-0.085,-0.025
6209,-0.100,-0.010
6210,-0.085,-0.015
6211,-0.070,-0.020
6212,-0.105,-0.025
6213,-0.140,-0.030
6214,-0.120,-0.030
6215,-0.100,-0.030
6216,-0.110,-0.040
6217,-0.120,-0.050
6218,-0.140,-0.055
6219,-0.160,-0.060
6220,-0.155,-0.050
6221,-0.150,-0.040
6222,-0.155,-0.055
6223,-0.160,-0.070
6224,-0.160,-0.070
6225,-0.165,-0.070
6226,-0.180,-0.070
6227,-0.190,-0.070
6228,-0.190,-0.060
6229,-0.190,-0.055
6230,-0.185,-0.070
6231,-0.190,-0.080
6232,-0.210,-0.085
6233,-0.210,-0.090
6234,-0.190,-0.095
6235,-0.185,-0.100
6236,-0.200,-0.095
6237,-0.190,-0.090
6238,-0.160,-0.085
6239,-0.145,-0.080
6240,-0.135,-0.075
6241,-0.120,-0.070
6242,-0.105,-0.065
6243,-0.080,-0.050
6244,-0.055,-0.035
6245,-0.095,-0.015
6246,-0.150,0.005
6247,-0.085,0.020
6248,0.005,0.035
6249,-0.045,0.035
6250,0.010,0.040
6251,-0.055,0.030
6252,0.000,0.040
6253,0.040,0.055
6254,0.080,0.070
6255,0.130,0.050
6256,0.170,0.030
6257,0.135,0.010
6258,0.105,-0.010
6259,0.060,-0.030
6260,0.015,-0.050
6261,-0.020,-0.075
6262,-0.050,-0.090
6263,-0.065,-0.090
6264,-0.080,-0.090
6265,-0.090,-0.095
6266,-0.105,-0.100
6267,-0.135,-0.110
6268,-0.165,-0.120
6269,-0.215,-0.110
6270,-0.240,-0.105
6271,-0.225,-0.130
6272,-0.225,-0.140
6273,-0.240,-0.135
6274,-0.240,-0.130
6275,-0.210,-0.135
6276,-0.205,-0.140
6277,-0.215,-0.140
6278,-0.220,-0.135
6279,-0.215,-0.125
6280,-0.190,-0.120
6281,-0.160,-0.120
6282,-0.160,-0.120
6283,-0.175,-0.115
6284,-0.110,0.000
6285,-0.015,0.145
6286,-0.135,0.155
6287,-0.300,0.135
6288,-0.275,0.030
6289,-0.225,-0.080
6290,0.080,-0.015
6291,0.405,0.065
6292,0.735,0.175
6293,1.055,0.275
6294,1.240,-0.030
6295,1.385,-0.335
6296,1.060,-0.660
6297,0.730,-0.990
6298,0.405,-1.315
6299,0.075,-1.620
6300,-0.250,-1.805
6301,-0.580,-1.930
6302,-0.905,-1.840
6303,-1.235,-1.730
6304,-1.560,-1.560
6305,-1.690,-1.360
6306,-1.365,-1.085
6307,-1.050,-0.815
6308,-0.745,-0.545
6309,-0.515,-0.340
6310,-0.405,-0.240
6311,-0.315,-0.155
6312,-0.255,-0.100
6313,-0.210,-0.070
6314,-0.190,-0.065
6315,-0.180,-0.055
6316,-0.175,-0.045
6317,-0.155,-0.040
6318,-0.130,-0.035
6319,-0.120,-0.015
6320,-0.115,0.020
6321,-0.110,0.030
6322,-0.105,0.035
6323,-0.105,0.045
6324,-0.115,0.055
6325,-0.100,0.065
6326,-0.075,0.075
6327,-0.075,0.090
6328,-0.085,0.105
6329,-0.075,0.115
6330,-0.055,0.125
6331,-0.050,0.130
6332,-0.050,0.135
6333,-0.045,0.140
6334,-0.030,0.140
6335,0.005,0.160
6336,0.040,0.180
6337,0.025,0.185
6338,0.010,0.190
6339,0.035,0.195
6340,0.060,0.200
6341,0.070,0.225
6342,0.085,0.250
6343,0.120,0.260
6344,0.150,0.270
6345,0.165,0.280
6346,0.190,0.295
6347,0.230,0.315
6348,0.265,0.330
6349,0.280,0.335
6350,0.300,0.345
6351,0.335,0.365
6352,0.370,0.380
6353,0.400,0.385
6354,0.425,0.395
6355,0.450,0.410
6356,0.470,0.425
6357,0.490,0.435
6358,0.530,0.445
6359,0.585,0.455
6360,0.625,0.460
6361,0.650,0.455
6362,0.665,0.455
6363,0.675,0.465
6364,0.705,0.465
6365,0.750,0.455
6366,0.760,0.440
6367,0.765,0.425
6368,0.770,0.415
6369,0.770,0.405
6370,0.745,0.385
6371,0.715,0.365
6372,0.690,0.355
6373,0.665,0.345
6374,0.625,0.320
6375,0.660,0.340
6376,0.525,0.265
6377,0.470,0.240
6378,0.425,0.220
6379,0.375,0.200
6380,0.320,0.170
6381,0.265,0.140
6382,0.230,0.130
6383,0.190,0.120
6384,0.130,0.100
6385,0.080,0.080
6386,0.055,0.070
6387,0.040,0.060
6388,0.025,0.050
6389,-0.005,0.035
6390,-0.050,0.015
6391,-0.070,0.000
6392,-0.035,0.010
6393,-0.025,0.020
6394,-0.075,0.010
6395,-0.100,0.000
6396,-0.115,-0.005
6397,-0.105,-0.005
6398,-0.070,0.005
6399,-0.070,0.010
6400,-0.110,0.005
6401,-0.125,0.000
6402,-0.110,0.005
6403,-0.100,0.010
6404,-0.105,0.005
6405,-0.110,0.005
6406,-0.105,0.015
6407,-0.110,0.020
6408,-0.125,0.015
6409,-0.110,0.010
6410,-0.075,0.015
6411,-0.095,0.010
6412,-0.125,-0.005
6413,-0.110,-0.005
6414,-0.085,0.005
6415,-0.090,0.010
6416,-0.105,0.015
6417,-0.100,0.020
6418,-0.090,0.020
6419,-0.090,-0.005
6420,-0.090,-0.030
6421,-0.095,-0.005
6422,-0.100,0.020
6423,-0.090,0.005
6424,-0.080,-0.010
6425,-0.070,-0.005
6426,-0.060,0.000
6427,-0.060,0.000
6428,-0.060,0.000
6429,-0.055,-0.005
6430,-0.050,-0.010
6431,-0.040,-0.010
6432,-0.030,-0.010
6433,-0.025,-0.005
6434,-0.020,0.000
6435,-0.015,-0.010
6436,-0.020,-0.020
6437,-0.050,-0.015
6438,-0.065,-0.010
6439,-0.055,-0.005
6440,-0.040,0.000
6441,-0.020,0.000
6442,-0.025,0.000
6443,-0.050,-0.005
6444,-0.055,-0.010
6445,-0.045,-0.005
6446,-0.050,0.005
6447,-0.065,0.015
6448,-0.070,0.020
6449,-0.075,0.015
6450,-0.070,0.010
6451,-0.055,0.010
6452,-0.055,0.010
6453,-0.065,0.010
6454,-0.070,0.010
6455,-0.075,0.015
6456,-0.075,0.020
6457,-0.065,0.020
6458,-0.060,0.020
6459,-0.070,0.010
6460,-0.090,-0.010
6461,-0.110,-0.030
6462,-0.105,-0.010
6463,-0.100,0.010
6464,-0.100,0.010
6465,-0.100,0.010
6466,-0.095,0.010
6467,-0.080,0.015
6468,-0.025,0.055
6469,0.015,0.090
6470,-0.005,0.075
6471,-0.025,0.065
6472,-0.050,0.090
6473,-0.055,0.110
6474,-0.010,0.120
6475,0.020,0.130
6476,0.030,0.130
6477,0.065,0.135
6478,0.125,0.150
6479,0.160,0.145
6480,0.155,0.100
6481,0.145,0.080
6482,0.130,0.085
6483,0.080,0.070
6484,0.000,0.030
6485,-0.010,0.010
6486,0.025,0.005
6487,0.000,-0.010
6488,-0.070,-0.030
6489,-0.115,-0.045
6490,-0.150,-0.055
6491,-0.175,-0.045
6492,-0.195,-0.025
6493,-0.210,-0.045
6494,-0.225,-0.080
6495,-0.230,-0.075
6496,-0.235,-0.055
6497,-0.280,-0.040
6498,-0.325,-0.025
6499,-0.330,-0.065
6500,-0.330,-0.020
6501,-0.235,-0.095
6502,-0.150,-0.070
6503,-0.205,-0.030
6504,-0.260,0.010
6505,-0.225,-0.025
6506,-0.190,-0.060
6507,-0.190,-0.025
6508,-0.175,0.030
6509,-0.075,0.200
6510,-0.070,0.315
6511,-0.385,0.240
6512,-0.530,0.155
6513,-0.240,0.060
6514,0.065,0.020
6515,0.390,0.115
6516,0.715,0.190
6517,1.040,0.220
6518,1.155,0.105
6519,0.965,-0.225
6520,0.710,-0.550
6521,0.380,-0.880
6522,0.055,-1.205
6523,-0.275,-1.535
6524,-0.600,-1.730
6525,-0.930,-1.830
6526,-1.255,-1.805
6527,-1.585,-1.690
6528,-1.810,-1.570
6529,-1.975,-1.440
6530,-1.805,-1.235
6531,-1.480,-1.000
6532,-1.155,-0.735
6533,-0.830,-0.460
6534,-0.630,-0.300
6535,-0.460,-0.170
6536,-0.370,-0.140
6537,-0.290,-0.125
6538,-0.250,-0.085
6539,-0.215,-0.045
6540,-0.240,-0.060
6541,-0.275,-0.085
6542,-0.255,-0.040
6543,-0.230,0.010
6544,-0.295,0.005
6545,-0.350,0.000
6546,-0.200,-0.015
6547,-0.075,-0.030
6548,-0.155,-0.005
6549,-0.215,0.020
6550,-0.180,0.005
6551,-0.150,-0.010
6552,-0.165,-0.015
6553,-0.180,-0.020
6554,-0.165,-0.010
6555,-0.145,0.015
6556,-0.125,0.070
6557,-0.110,0.100
6558,-0.110,0.070
6559,-0.105,0.055
6560,-0.090,0.070
6561,-0.080,0.085
6562,-0.080,0.100
6563,-0.085,0.100
6564,-0.095,0.075
6565,-0.035,0.105
6566,0.090,0.190
6567,0.120,0.215
6568,0.075,0.190
6569,0.065,0.180
6570,0.085,0.175
6571,0.135,0.205
6572,0.210,0.255
6573,0.230,0.270
6574,0.225,0.270
6575,0.235,0.285
6576,0.255,0.305
6577,0.305,0.335
6578,0.360,0.365
6579,0.370,0.360
6580,0.370,0.345
6581,0.455,0.385
6582,0.555,0.435
6583,0.525,0.405
6584,0.480,0.360
6585,0.555,0.380
6586,0.630,0.400
6587,0.655,0.405
6588,0.685,0.410
6589,0.735,0.405
6590,0.780,0.400
6591,0.770,0.390
6592,0.760,0.380
6593,0.775,0.370
6594,0.785,0.355
6595,0.760,0.335
6596,0.735,0.320
6597,0.715,0.315
6598,0.680,0.295
6599,0.605,0.245
6600,0.545,0.210
6601,0.505,0.210
6602,0.455,0.205
6603,0.385,0.185
6604,0.330,0.165
6605,0.275,0.140
6606,0.220,0.125
6607,0.160,0.110
6608,0.120,0.095
6609,0.100,0.080
6610,0.070,0.065
6611,0.035,0.050
6612,0.020,0.040
6613,0.015,0.040
6614,0.010,0.040
6615,0.005,0.040
6616,-0.015,0.030
6617,-0.045,0.015
6618,-0.080,0.015
6619,-0.120,0.025
6620,-0.075,0.030
6621,-0.010,0.035
6622,-0.070,0.025
6623,-0.155,0.005
6624,-0.135,0.025
6625,-0.160,0.000
6626,-0.095,0.060
6627,-0.090,0.060
6628,-0.090,0.060
6629,-0.090,0.060
6630,-0.090,0.055
6631,-0.090,0.050
6632,-0.090,0.065
6633,-0.090,0.080
6634,-0.090,0.085
6635,-0.090,0.090
6636,-0.095,0.080
6637,-0.095,0.070
6638,-0.065,0.080
6639,-0.050,0.090
6640,-0.090,0.095
6641,-0.110,0.095
6642,-0.075,0.075
6643,-0.055,0.060
6644,-0.070,0.065
6645,-0.070,0.070
6646,-0.045,0.075
6647,-0.040,0.080
6648,-0.065,0.075
6649,-0.080,0.060
6650,-0.075,0.040
6651,-0.060,0.035
6652,-0.040,0.050
6653,-0.030,0.040
6654,-0.035,0.005
6655,-0.045,0.000
6656,-0.055,0.015
6657,-0.065,0.010
6658,-0.075,-0.005
6659,-0.065,-0.010
6660,-0.045,-0.005
6661,-0.050,0.000
6662,-0.065,0.000
6663,-0.065,0.000
6664,-0.055,-0.005
6665,-0.055,-0.010
6666,-0.065,-0.010
6667,-0.095,-0.020
6668,-0.120,-0.030
6669,-0.105,-0.025
6670,-0.090,-0.020
6671,-0.095,-0.015
6672,-0.100,-0.010
6673,-0.105,-0.015
6674,-0.110,-0.020
6675,-0.105,-0.025
6676,-0.100,-0.030
6677,-0.115,-0.025
6678,-0.130,-0.020
6679,-0.145,-0.030
6680,-0.160,-0.040
6681,-0.140,-0.050
6682,-0.130,-0.055
6683,-0.135,-0.040
6684,-0.140,-0.030
6685,-0.145,-0.030
6686,-0.150,-0.030
6687,-0.140,-0.035
6688,-0.130,-0.035
6689,-0.125,-0.020
6690,-0.105,-0.005
6691,-0.075,0.010
6692,-0.075,0.020
6693,-0.100,0.025
6694,-0.105,0.035
6695,-0.085,0.045
6696,-0.075,0.050
6697,-0.065,0.055
6698,-0.025,0.060
6699,0.025,0.055
6700,0.095,0.055
6701,0.165,0.065
6702,0.170,0.045
6703,0.155,0.015
6704,0.150,0.010
6705,0.150,0.010
6706,0.085,-0.015
6707,0.015,-0.045
6708,-0.020,-0.055
6709,-0.060,-0.070
6710,-0.030,-0.060
6711,0.000,-0.050
6712,-0.040,-0.050
6713,-0.080,-0.050
6714,-0.125,-0.050
6715,-0.165,-0.050
6716,-0.225,-0.070
6717,-0.265,-0.090
6718,-0.240,-0.090
6719,-0.220,-0.090
6720,-0.230,-0.090
6721,-0.240,-0.090
6722,-0.235,-0.080
6723,-0.230,-0.070
6724,-0.225,-0.070
6725,-0.220,-0.070
6726,-0.215,-0.070
6727,-0.210,-0.070
6728,-0.205,-0.075
6729,-0.195,-0.065
6730,-0.170,-0.030
6731,-0.115,0.065
6732,-0.020,0.205
6733,-0.135,0.230
6734,-0.405,0.150
6735,-0.380,0.085
6736,-0.165,0.025
6737,0.125,0.050
6738,0.450,0.125
6739,0.775,0.210
6740,1.100,0.295
6741,1.265,0.140
6742,1.375,-0.100
6743,1.135,-0.415
6744,0.810,-0.740
6745,0.480,-1.070
6746,0.155,-1.395
6747,-0.175,-1.555
6748,-0.500,-1.700
6749,-0.830,-1.650
6750,-0.520,-1.710
6751,-1.485,-1.455
6752,-1.790,-1.320
6753,-1.550,-1.055
6754,-1.300,-0.790
6755,-0.975,-0.565
6756,-0.680,-0.350
