'sample interval','ECG1','ECG2'
'0.004 sec','mV','mV'
0,-0.220,0.010
1,-0.215,-0.005
2,-0.210,-0.010
3,-0.190,-0.055
4,-0.170,-0.100
5,-0.190,-0.115
6,-0.210,-0.130
7,-0.210,-0.120
8,-0.210,-0.110
9,-0.200,-0.105
10,-0.190,-0.100
11,-0.215,-0.105
12,-0.230,-0.110
13,-0.215,-0.105
14,-0.200,-0.100
15,-0.205,-0.100
16,-0.200,-0.100
17,-0.170,-0.105
18,-0.155,-0.100
19,-0.175,-0.070
20,-0.190,-0.050
21,-0.175,-0.065
22,-0.160,-0.070
23,-0.135,-0.065
24,-0.125,-0.060
25,-0.135,-0.055
26,-0.140,-0.050
27,-0.135,-0.045
28,-0.125,-0.040
29,-0.115,-0.045
30,-0.100,-0.050
31,-0.085,-0.050
32,-0.090,-0.050
33,-0.105,-0.045
34,-0.135,-0.040
35,-0.170,-0.035
36,-0.035,0.000
37,0.140,0.045
38,0.445,0.075
39,0.770,0.105
40,1.095,-0.060
41,1.420,-0.245
42,1.750,-0.490
43,2.075,-0.730
44,2.400,-0.780
45,2.675,-0.835
46,2.350,-0.905
47,2.020,-0.970
48,1.695,-0.970
49,1.365,-0.970
50,1.040,-0.970
51,0.710,-0.925
52,0.385,-0.705
53,0.080,-0.500
54,-0.150,-0.350
55,-0.295,-0.210
56,-0.245,-0.110
57,-0.210,-0.020
58,-0.200,0.040
59,-0.195,0.080
60,-0.215,0.070
61,-0.230,0.065
62,-0.220,0.080
63,-0.205,0.090
64,-0.190,0.085
65,-0.185,0.085
66,-0.200,0.095
67,-0.205,0.100
68,-0.190,0.100
69,-0.190,0.100
70,-0.210,0.105
71,-0.220,0.110
72,-0.220,0.115
73,-0.220,0.120
74,-0.215,0.120
75,-0.210,0.125
76,-0.215,0.135
77,-0.220,0.140
78,-0.220,0.140
79,-0.215,0.140
80,-0.205,0.145
81,-0.205,0.150
82,-0.215,0.150
83,-0.215,0.155
84,-0.200,0.170
85,-0.165,0.170
86,-0.130,0.170
87,-0.140,0.180
88,-0.150,0.190
89,-0.145,0.190
90,-0.140,0.190
91,-0.120,0.185
92,-0.100,0.180
93,-0.080,0.185
94,-0.060,0.190
95,-0.050,0.195
96,-0.035,0.200
97,-0.015,0.200
98,0.000,0.200
99,0.000,0.200
100,0.020,0.200
101,0.075,0.200
102,0.110,0.200
103,0.120,0.200
104,0.130,0.200
105,0.135,0.200
106,0.145,0.200
107,0.160,0.200
108,0.195,0.200
109,0.250,0.195
110,0.275,0.195
111,0.290,0.205
112,0.300,0.210
113,0.300,0.205
114,0.325,0.200
115,0.370,0.200
116,0.380,0.200
117,0.385,0.195
118,0.400,0.190
119,0.415,0.185
120,0.420,0.175
121,0.415,0.165
122,0.390,0.155
123,0.365,0.145
124,0.320,0.140
125,0.360,0.140
126,0.250,0.115
127,0.230,0.100
128,0.205,0.090
129,0.180,0.080
130,0.130,0.070
131,0.090,0.060
132,0.080,0.055
133,0.070,0.050
134,0.050,0.040
135,0.025,0.030
136,0.000,0.020
137,-0.020,0.010
138,-0.010,0.010
139,-0.005,0.010
140,-0.025,0.010
141,-0.040,0.010
142,-0.045,0.005
143,-0.050,0.000
144,-0.040,0.000
145,-0.030,0.000
146,-0.015,0.005
147,-0.015,0.010
148,-0.030,0.010
149,-0.040,0.010
150,-0.040,0.010
151,-0.045,0.010
152,-0.055,0.010
153,-0.060,0.010
154,-0.055,0.005
155,-0.035,0.000
156,-0.010,0.005
157,-0.020,0.010
158,-0.050,0.005
159,-0.060,0.000
160,-0.060,0.000
161,-0.060,0.000
162,-0.060,0.000
163,-0.050,0.000
164,-0.035,0.000
165,-0.045,0.000
166,-0.065,0.005
167,-0.065,0.010
168,-0.060,0.010
169,-0.060,0.005
170,-0.060,0.000
171,-0.070,0.005
172,-0.080,0.010
173,-0.050,0.005
174,-0.025,0.000
175,-0.060,-0.005
176,-0.090,-0.010
177,-0.095,0.005
178,-0.100,0.020
179,-0.100,0.005
180,-0.100,-0.010
181,-0.080,-0.005
182,-0.075,0.000
183,-0.100,0.000
184,-0.120,0.000
185,-0.115,0.005
186,-0.110,0.010
187,-0.120,0.010
188,-0.130,0.010
189,-0.135,0.005
190,-0.135,0.000
191,-0.125,0.000
192,-0.135,0.000
193,-0.160,-0.005
194,-0.175,-0.010
195,-0.185,-0.005
196,-0.190,0.000
197,-0.185,-0.005
198,-0.165,-0.010
199,-0.145,-0.010
200,-0.140,-0.005
201,-0.145,0.005
202,-0.170,0.010
203,-0.195,0.005
204,-0.195,0.000
205,-0.185,-0.005
206,-0.170,-0.010
207,-0.155,-0.005
208,-0.160,0.000
209,-0.180,0.000
210,-0.175,0.000
211,-0.170,0.000
212,-0.170,0.005
213,-0.170,0.010
214,-0.170,0.000
215,-0.170,-0.010
216,-0.165,-0.010
217,-0.160,-0.010
218,-0.175,-0.005
219,-0.185,0.000
220,-0.165,0.000
221,-0.150,0.000
222,-0.155,0.000
223,-0.165,0.000
224,-0.180,-0.010
225,-0.190,-0.020
226,-0.185,-0.015
227,-0.180,-0.010
228,-0.175,-0.010
229,-0.170,-0.010
230,-0.175,-0.005
231,-0.180,-0.005
232,-0.180,-0.015
233,-0.175,-0.020
234,-0.165,-0.020
235,-0.155,-0.020
236,-0.145,-0.020
237,-0.150,-0.020
238,-0.170,-0.025
239,-0.180,-0.030
240,-0.180,-0.035
241,-0.185,-0.040
242,-0.195,-0.045
243,-0.185,-0.045
244,-0.165,-0.035
245,-0.125,-0.025
246,-0.075,-0.015
247,-0.105,-0.010
248,-0.145,-0.005
249,-0.165,0.000
250,-0.150,0.000
251,-0.185,0.015
252,-0.180,0.020
253,-0.185,0.025
254,-0.190,0.030
255,-0.210,0.025
256,-0.230,0.020
257,-0.220,0.015
258,-0.210,0.005
259,-0.215,-0.040
260,-0.220,-0.080
261,-0.225,-0.095
262,-0.230,-0.110
263,-0.225,-0.095
264,-0.230,-0.080
265,-0.260,-0.070
266,-0.280,-0.060
267,-0.275,-0.065
268,-0.265,-0.070
269,-0.250,-0.070
270,-0.240,-0.070
271,-0.245,-0.075
272,-0.245,-0.080
273,-0.235,-0.080
274,-0.230,-0.065
275,-0.235,-0.035
276,-0.240,-0.025
277,-0.235,-0.040
278,-0.230,-0.050
279,-0.225,-0.050
280,-0.220,-0.050
281,-0.220,-0.050
282,-0.210,-0.050
283,-0.195,-0.045
284,-0.190,-0.040
285,-0.190,-0.040
286,-0.190,-0.040
287,-0.185,-0.045
288,-0.195,-0.050
289,-0.215,-0.045
290,-0.245,-0.040
291,-0.275,-0.035
292,-0.090,0.010
293,0.110,0.050
294,0.435,0.065
295,0.760,0.070
296,1.085,-0.120
297,1.410,-0.320
298,1.735,-0.570
299,2.060,-0.780
300,2.385,-0.800
301,2.570,-0.840
302,2.245,-0.930
303,1.915,-0.995
304,1.590,-0.970
305,1.260,-0.950
306,0.930,-0.970
307,0.605,-0.905
308,0.275,-0.690
309,-0.015,-0.500
310,-0.265,-0.355
311,-0.380,-0.225
312,-0.335,-0.125
313,-0.300,-0.045
314,-0.275,0.005
315,-0.255,0.030
316,-0.245,0.035
317,-0.250,0.040
318,-0.270,0.040
319,-0.280,0.040
320,-0.280,0.045
321,-0.275,0.050
322,-0.265,0.045
323,-0.250,0.040
324,-0.235,0.045
325,-0.250,0.050
326,-0.280,0.055
327,-0.290,0.060
328,-0.285,0.065
329,-0.280,0.070
330,-0.275,0.070
331,-0.270,0.070
332,-0.270,0.070
333,-0.265,0.070
334,-0.250,0.060
335,-0.265,0.065
336,-0.280,0.070
337,-0.280,0.075
338,-0.280,0.080
339,-0.270,0.075
340,-0.260,0.070
341,-0.245,0.070
342,-0.230,0.070
343,-0.210,0.075
344,-0.190,0.080
345,-0.195,0.095
346,-0.200,0.110
347,-0.195,0.100
348,-0.185,0.090
349,-0.160,0.090
350,-0.130,0.090
351,-0.100,0.095
352,-0.080,0.100
353,-0.085,0.105
354,-0.085,0.110
355,-0.060,0.110
356,-0.035,0.110
357,-0.005,0.105
358,0.030,0.105
359,0.065,0.115
360,0.080,0.120
361,0.080,0.120
362,0.090,0.120
363,0.105,0.120
364,0.120,0.120
365,0.145,0.115
366,0.195,0.110
367,0.255,0.115
368,0.270,0.120
369,0.270,0.125
370,0.285,0.130
371,0.305,0.125
372,0.315,0.120
373,0.325,0.120
374,0.345,0.115
375,0.330,0.120
376,0.355,0.095
377,0.340,0.090
378,0.305,0.085
379,0.270,0.080
380,0.255,0.075
381,0.240,0.070
382,0.215,0.055
383,0.185,0.040
384,0.140,0.035
385,0.100,0.030
386,0.075,0.025
387,0.050,0.020
388,0.015,0.010
389,-0.010,0.000
390,-0.020,0.000
391,-0.030,0.000
392,-0.030,-0.010
393,-0.030,-0.020
394,-0.040,-0.015
395,-0.055,-0.010
396,-0.070,-0.015
397,-0.080,-0.015
398,-0.080,-0.005
399,-0.080,0.000
400,-0.075,-0.005
401,-0.070,-0.010
402,-0.070,-0.005
403,-0.060,0.000
404,-0.045,0.005
405,-0.050,0.010
406,-0.070,0.005
407,-0.080,0.000
408,-0.085,0.005
409,-0.085,0.010
410,-0.075,0.015
411,-0.055,0.020
412,-0.035,0.025
413,-0.045,0.030
414,-0.065,0.035
415,-0.075,0.040
416,-0.085,0.045
417,-0.075,0.050
418,-0.060,0.050
419,-0.060,0.045
420,-0.060,0.040
421,-0.050,0.045
422,-0.040,0.050
423,-0.060,0.055
424,-0.080,0.060
425,-0.080,0.060
426,-0.080,0.060
427,-0.070,0.060
428,-0.060,0.060
429,-0.060,0.055
430,-0.065,0.050
431,-0.090,0.050
432,-0.105,0.050
433,-0.090,0.055
434,-0.080,0.055
435,-0.075,0.040
436,-0.075,0.030
437,-0.090,0.035
438,-0.100,0.040
439,-0.100,0.035
440,-0.100,0.030
441,-0.095,0.030
442,-0.090,0.030
443,-0.095,0.035
444,-0.105,0.035
445,-0.115,0.025
446,-0.115,0.020
447,-0.105,0.025
448,-0.115,0.030
449,-0.135,0.025
450,-0.140,0.020
451,-0.140,0.020
452,-0.140,0.020
453,-0.145,0.015
454,-0.155,0.010
455,-0.165,0.010
456,-0.165,0.010
457,-0.155,0.015
458,-0.150,0.020
459,-0.150,0.020
460,-0.175,0.020
461,-0.200,0.020
462,-0.190,0.010
463,-0.180,0.000
464,-0.170,0.010
465,-0.160,0.020
466,-0.170,0.015
467,-0.180,0.010
468,-0.195,0.005
469,-0.210,0.000
470,-0.205,0.000
471,-0.200,0.000
472,-0.190,-0.005
473,-0.180,-0.010
474,-0.175,0.000
475,-0.175,0.010
476,-0.190,0.000
477,-0.200,-0.010
478,-0.200,0.000
479,-0.200,0.010
480,-0.200,-0.005
481,-0.190,-0.005
482,-0.165,0.005
483,-0.160,0.010
484,-0.180,0.005
485,-0.190,0.000
486,-0.195,0.005
487,-0.190,0.010
488,-0.175,0.010
489,-0.160,0.010
490,-0.145,0.005
491,-0.145,0.000
492,-0.155,0.005
493,-0.160,0.005
494,-0.165,-0.005
495,-0.165,-0.010
496,-0.155,-0.010
497,-0.145,-0.010
498,-0.135,-0.010
499,-0.115,-0.010
500,-0.130,-0.010
501,-0.100,0.020
502,-0.110,0.040
503,-0.090,0.045
504,-0.070,0.050
505,-0.100,0.050
506,-0.130,0.050
507,-0.150,0.055
508,-0.170,0.060
509,-0.150,0.055
510,-0.130,0.050
511,-0.130,0.045
512,-0.130,0.040
513,-0.135,0.030
514,-0.145,0.005
515,-0.160,-0.040
516,-0.170,-0.070
517,-0.160,-0.070
518,-0.155,-0.065
519,-0.170,-0.050
520,-0.180,-0.040
521,-0.180,-0.040
522,-0.175,-0.040
523,-0.165,-0.045
524,-0.165,-0.045
525,-0.180,-0.035
526,-0.190,-0.035
527,-0.190,-0.050
528,-0.180,-0.045
529,-0.160,-0.020
530,-0.155,-0.010
531,-0.165,-0.005
532,-0.175,0.000
533,-0.185,-0.005
534,-0.170,-0.010
535,-0.135,-0.010
536,-0.130,-0.010
537,-0.130,-0.005
538,-0.140,0.000
539,-0.155,0.005
540,-0.155,0.010
541,-0.145,0.010
542,-0.125,0.010
543,-0.110,0.010
544,-0.130,0.005
545,-0.150,0.000
546,-0.180,0.010
547,-0.185,0.025
548,0.045,0.080
549,0.295,0.125
550,0.620,0.085
551,0.945,0.000
552,1.270,-0.240
553,1.595,-0.485
554,1.920,-0.750
555,2.225,-0.900
556,2.490,-0.805
557,2.545,-0.795
558,2.215,-0.955
559,1.890,-1.030
560,1.560,-0.965
561,1.235,-0.900
562,0.905,-0.830
563,0.580,-0.690
564,0.250,-0.485
565,-0.005,-0.305
566,-0.200,-0.140
567,-0.270,-0.040
568,-0.250,0.010
569,-0.240,0.045
570,-0.235,0.070
571,-0.230,0.090
572,-0.230,0.105
573,-0.230,0.115
574,-0.235,0.125
575,-0.235,0.130
576,-0.225,0.125
577,-0.225,0.120
578,-0.235,0.120
579,-0.240,0.125
580,-0.240,0.135
581,-0.240,0.140
582,-0.240,0.145
583,-0.240,0.150
584,-0.240,0.150
585,-0.240,0.155
586,-0.240,0.160
587,-0.225,0.170
588,-0.210,0.180
589,-0.210,0.185
590,-0.210,0.190
591,-0.220,0.190
592,-0.230,0.190
593,-0.230,0.185
594,-0.225,0.180
595,-0.205,0.185
596,-0.185,0.190
597,-0.165,0.195
598,-0.150,0.200
599,-0.155,0.205
600,-0.160,0.210
601,-0.160,0.210
602,-0.155,0.210
603,-0.140,0.210
604,-0.110,0.210
605,-0.055,0.225
606,-0.030,0.230
607,-0.030,0.230
608,-0.030,0.230
609,-0.025,0.230
610,-0.005,0.230
611,0.025,0.230
612,0.060,0.230
613,0.095,0.230
614,0.120,0.230
615,0.135,0.230
616,0.145,0.230
617,0.155,0.230
618,0.175,0.230
619,0.195,0.230
620,0.220,0.230
621,0.245,0.225
622,0.300,0.220
623,0.355,0.220
624,0.360,0.220
625,0.360,0.220
626,0.385,0.215
627,0.400,0.220
628,0.415,0.205
629,0.430,0.190
630,0.430,0.190
631,0.430,0.190
632,0.405,0.175
633,0.375,0.160
634,0.335,0.150
635,0.295,0.140
636,0.265,0.130
637,0.230,0.120
638,0.195,0.110
639,0.170,0.100
640,0.160,0.095
641,0.140,0.085
642,0.105,0.070
643,0.070,0.060
644,0.045,0.065
645,0.030,0.065
646,0.015,0.050
647,0.010,0.040
648,0.005,0.040
649,-0.005,0.040
650,-0.020,0.040
651,-0.020,0.040
652,0.000,0.040
653,-0.005,0.040
654,-0.030,0.035
655,-0.040,0.030
656,-0.040,0.030
657,-0.025,0.030
658,-0.005,0.025
659,-0.005,0.020
660,-0.015,0.025
661,-0.025,0.030
662,-0.035,0.030
663,-0.035,0.030
664,-0.025,0.025
665,-0.020,0.020
666,-0.025,0.020
667,-0.020,0.020
668,-0.010,0.020
669,-0.010,0.025
670,-0.010,0.030
671,-0.025,0.030
672,-0.040,0.030
673,-0.035,0.025
674,-0.030,0.020
675,-0.015,0.020
676,0.000,0.020
677,0.000,0.025
678,-0.005,0.030
679,-0.030,0.025
680,-0.050,0.020
681,-0.030,0.020
682,-0.015,0.020
683,0.000,0.020
684,0.010,0.020
685,0.005,0.020
686,-0.005,0.020
687,-0.025,0.020
688,-0.040,0.020
689,-0.045,0.015
690,-0.050,0.010
691,-0.050,0.010
692,-0.045,0.010
693,-0.035,0.010
694,-0.035,0.010
695,-0.055,0.005
696,-0.070,0.005
697,-0.090,0.015
698,-0.100,0.015
699,-0.095,0.005
700,-0.090,0.000
701,-0.090,0.000
702,-0.090,0.000
703,-0.085,-0.005
704,-0.085,-0.010
705,-0.095,-0.005
706,-0.105,0.000
707,-0.115,0.005
708,-0.125,0.000
709,-0.140,-0.020
710,-0.120,-0.015
711,-0.100,-0.010
712,-0.115,-0.010
713,-0.130,-0.010
714,-0.140,-0.010
715,-0.150,-0.010
716,-0.145,-0.010
717,-0.140,-0.010
718,-0.130,-0.015
719,-0.120,-0.020
720,-0.125,-0.015
721,-0.130,-0.010
722,-0.145,-0.010
723,-0.160,-0.010
724,-0.160,-0.015
725,-0.160,-0.020
726,-0.165,-0.020
727,-0.170,-0.020
728,-0.160,-0.015
729,-0.150,-0.010
730,-0.165,-0.010
731,-0.170,-0.010
732,-0.175,-0.015
733,-0.180,-0.020
734,-0.175,-0.020
735,-0.165,-0.020
736,-0.150,-0.020
737,-0.140,-0.020
738,-0.145,-0.015
739,-0.155,-0.010
740,-0.165,-0.015
741,-0.170,-0.020
742,-0.165,-0.020
743,-0.160,-0.020
744,-0.165,-0.020
745,-0.165,-0.020
746,-0.155,-0.020
747,-0.150,-0.020
748,-0.150,-0.025
749,-0.160,-0.025
750,-0.150,-0.030
751,-0.170,-0.015
752,-0.160,-0.020
753,-0.145,-0.015
754,-0.130,-0.010
755,-0.135,-0.015
756,-0.140,-0.020
757,-0.160,-0.025
758,-0.180,-0.030
759,-0.170,-0.025
760,-0.160,-0.020
761,-0.155,-0.025
762,-0.145,-0.030
763,-0.125,-0.015
764,-0.110,0.005
765,-0.100,0.025
766,-0.090,0.040
767,-0.085,0.035
768,-0.095,0.030
769,-0.130,0.035
770,-0.150,0.040
771,-0.150,0.045
772,-0.150,0.050
773,-0.145,0.045
774,-0.140,0.035
775,-0.145,0.020
776,-0.145,0.000
777,-0.135,-0.020
778,-0.145,-0.050
779,-0.170,-0.085
780,-0.175,-0.100
781,-0.165,-0.100
782,-0.160,-0.090
783,-0.160,-0.075
784,-0.185,-0.070
785,-0.220,-0.075
786,-0.220,-0.080
787,-0.205,-0.085
788,-0.190,-0.090
789,-0.175,-0.090
790,-0.170,-0.095
791,-0.170,-0.105
792,-0.180,-0.075
793,-0.190,-0.040
794,-0.190,-0.055
795,-0.190,-0.070
796,-0.185,-0.065
797,-0.180,-0.060
798,-0.165,-0.065
799,-0.150,-0.070
800,-0.150,-0.065
801,-0.150,-0.060
802,-0.150,-0.055
803,-0.150,-0.050
804,-0.135,-0.055
805,-0.120,-0.060
806,-0.100,-0.055
807,-0.100,-0.050
808,-0.145,-0.060
809,-0.125,-0.060
810,-0.015,-0.035
811,0.175,0.010
812,0.450,0.075
813,0.750,0.045
814,1.075,-0.095
815,1.400,-0.290
816,1.725,-0.540
817,2.050,-0.730
818,2.375,-0.890
819,2.290,-0.945
820,1.960,-0.925
821,1.630,-0.955
822,1.305,-1.015
823,0.975,-1.030
824,0.650,-1.025
825,0.320,-0.870
826,-0.005,-0.675
827,-0.190,-0.505
828,-0.350,-0.335
829,-0.310,-0.200
830,-0.240,-0.070
831,-0.225,-0.010
832,-0.215,0.045
833,-0.205,0.050
834,-0.190,0.060
835,-0.170,0.070
836,-0.150,0.080
837,-0.175,0.085
838,-0.200,0.090
839,-0.210,0.090
840,-0.220,0.090
841,-0.195,0.090
842,-0.170,0.090
843,-0.175,0.095
844,-0.180,0.100
845,-0.195,0.105
846,-0.210,0.110
847,-0.205,0.120
848,-0.200,0.130
849,-0.200,0.125
850,-0.200,0.120
851,-0.190,0.125
852,-0.180,0.130
853,-0.170,0.135
854,-0.170,0.140
855,-0.195,0.140
856,-0.200,0.145
857,-0.180,0.155
858,-0.160,0.160
859,-0.140,0.160
860,-0.130,0.160
861,-0.130,0.160
862,-0.135,0.165
863,-0.145,0.175
864,-0.130,0.180
865,-0.100,0.185
866,-0.075,0.190
867,-0.055,0.195
868,-0.040,0.200
869,-0.025,0.195
870,-0.005,0.190
871,0.015,0.195
872,0.025,0.200
873,0.035,0.205
874,0.070,0.210
875,0.040,0.210
876,0.130,0.205
877,0.150,0.210
878,0.170,0.205
879,0.190,0.200
880,0.205,0.205
881,0.225,0.210
882,0.260,0.215
883,0.290,0.220
884,0.310,0.205
885,0.330,0.190
886,0.355,0.190
887,0.380,0.190
888,0.425,0.190
889,0.460,0.190
890,0.460,0.190
891,0.460,0.185
892,0.450,0.170
893,0.440,0.155
894,0.450,0.140
895,0.460,0.125
896,0.455,0.110
897,0.425,0.095
898,0.365,0.085
899,0.320,0.075
900,0.285,0.065
901,0.250,0.055
902,0.215,0.040
903,0.190,0.020
904,0.175,0.005
905,0.160,-0.005
906,0.145,-0.015
907,0.110,-0.030
908,0.060,-0.045
909,0.050,-0.055
910,0.045,-0.065
911,0.040,-0.070
912,0.040,-0.075
913,0.030,-0.090
914,0.015,-0.105
915,-0.005,-0.110
916,-0.025,-0.105
917,-0.020,-0.115
918,-0.010,-0.130
919,-0.010,-0.125
920,-0.010,-0.120
921,-0.005,-0.130
922,0.000,-0.140
923,-0.005,-0.145
924,-0.010,-0.150
925,-0.030,-0.145
926,-0.050,-0.140
927,-0.045,-0.140
928,-0.035,-0.140
929,-0.010,-0.145
930,0.010,-0.150
931,-0.010,-0.145
932,-0.020,-0.140
933,-0.025,-0.135
934,-0.030,-0.130
935,-0.030,-0.125
936,-0.030,-0.120
937,-0.020,-0.125
938,-0.015,-0.130
939,-0.030,-0.125
940,-0.035,-0.120
941,-0.020,-0.120
942,-0.010,-0.120
943,-0.015,-0.115
944,-0.030,-0.110
945,-0.050,-0.105
946,-0.050,-0.100
947,-0.030,-0.105
948,-0.020,-0.110
949,-0.020,-0.105
950,-0.035,-0.100
951,-0.055,-0.095
952,-0.060,-0.090
953,-0.065,-0.085
954,-0.070,-0.085
955,-0.070,-0.095
956,-0.070,-0.095
957,-0.075,-0.085
958,-0.080,-0.080
959,-0.070,-0.080
960,-0.085,-0.080
961,-0.100,-0.080
962,-0.120,-0.080
963,-0.140,-0.080
964,-0.120,-0.075
965,-0.100,-0.070
966,-0.105,-0.065
967,-0.110,-0.060
968,-0.130,-0.065
969,-0.150,-0.070
970,-0.145,-0.065
971,-0.140,-0.060
972,-0.140,-0.065
973,-0.140,-0.070
974,-0.140,-0.060
975,-0.140,-0.050
976,-0.130,-0.050
977,-0.130,-0.050
978,-0.155,-0.055
979,-0.170,-0.060
980,-0.175,-0.060
981,-0.175,-0.060
982,-0.160,-0.055
983,-0.150,-0.050
984,-0.150,-0.050
985,-0.155,-0.050
986,-0.170,-0.050
987,-0.180,-0.045
988,-0.175,-0.035
989,-0.170,-0.030
990,-0.170,-0.035
991,-0.175,-0.040
992,-0.185,-0.040
993,-0.175,-0.040
994,-0.155,-0.035
995,-0.160,-0.030
996,-0.175,-0.035
997,-0.180,-0.035
998,-0.180,-0.025
999,-0.180,-0.025
1000,-0.180,-0.020
1001,-0.160,-0.035
1002,-0.150,-0.030
1003,-0.165,-0.025
1004,-0.180,-0.020
1005,-0.180,-0.020
1006,-0.180,-0.020
1007,-0.175,-0.025
1008,-0.170,-0.030
1009,-0.170,-0.030
1010,-0.170,-0.030
1011,-0.160,-0.035
1012,-0.150,-0.040
1013,-0.155,-0.040
1014,-0.160,-0.040
1015,-0.160,-0.040
1016,-0.150,-0.040
1017,-0.120,-0.045
1018,-0.100,-0.035
1019,-0.090,0.000
1020,-0.085,0.020
1021,-0.100,0.005
1022,-0.125,0.005
1023,-0.160,0.015
1024,-0.185,0.020
1025,-0.195,0.020
1026,-0.195,0.020
1027,-0.180,0.015
1028,-0.165,0.005
1029,-0.155,-0.005
1030,-0.160,-0.020
1031,-0.180,-0.040
1032,-0.195,-0.080
1033,-0.205,-0.120
1034,-0.210,-0.130
1035,-0.205,-0.135
1036,-0.200,-0.130
1037,-0.195,-0.115
1038,-0.210,-0.110
1039,-0.235,-0.110
1040,-0.225,-0.110
1041,-0.205,-0.105
1042,-0.200,-0.105
1043,-0.200,-0.110
1044,-0.200,-0.120
1045,-0.200,-0.130
1046,-0.195,-0.095
1047,-0.190,-0.060
1048,-0.200,-0.070
1049,-0.210,-0.080
1050,-0.210,-0.075
1051,-0.205,-0.070
1052,-0.175,-0.070
1053,-0.150,-0.070
1054,-0.145,-0.065
1055,-0.140,-0.060
1056,-0.160,-0.065
1057,-0.165,-0.070
1058,-0.140,-0.065
1059,-0.120,-0.060
1060,-0.125,-0.050
1061,-0.145,-0.045
1062,-0.180,-0.060
1063,-0.145,-0.055
1064,-0.035,-0.020
1065,0.160,0.030
1066,0.420,0.095
1067,0.720,0.055
1068,1.045,-0.055
1069,1.370,-0.255
1070,1.695,-0.500
1071,2.020,-0.710
1072,2.345,-0.895
1073,2.195,-0.905
1074,1.870,-0.835
1075,1.540,-0.885
1076,1.215,-0.975
1077,0.885,-0.980
1078,0.560,-0.965
1079,0.230,-0.835
1080,-0.095,-0.695
1081,-0.265,-0.525
1082,-0.425,-0.360
1083,-0.365,-0.220
1084,-0.290,-0.080
1085,-0.270,-0.020
1086,-0.250,0.040
1087,-0.235,0.045
1088,-0.220,0.050
1089,-0.220,0.065
1090,-0.220,0.080
1091,-0.225,0.080
1092,-0.230,0.080
1093,-0.230,0.090
1094,-0.230,0.100
1095,-0.225,0.105
1096,-0.220,0.110
1097,-0.215,0.115
1098,-0.210,0.120
1099,-0.215,0.115
1100,-0.220,0.110
1101,-0.225,0.120
1102,-0.230,0.130
1103,-0.235,0.130
1104,-0.235,0.130
1105,-0.210,0.145
1106,-0.200,0.150
1107,-0.205,0.150
1108,-0.215,0.155
1109,-0.225,0.165
1110,-0.225,0.170
1111,-0.215,0.170
1112,-0.210,0.170
1113,-0.210,0.175
1114,-0.200,0.180
1115,-0.175,0.180
1116,-0.165,0.185
1117,-0.155,0.195
1118,-0.150,0.200
1119,-0.145,0.195
1120,-0.140,0.200
1121,-0.145,0.215
1122,-0.130,0.215
1123,-0.105,0.205
1124,-0.070,0.205
1125,-0.100,0.200
1126,-0.015,0.215
1127,0.000,0.210
1128,0.005,0.220
1129,0.010,0.230
1130,0.030,0.225
1131,0.050,0.220
1132,0.075,0.215
1133,0.100,0.210
1134,0.130,0.210
1135,0.150,0.210
1136,0.150,0.215
1137,0.155,0.220
1138,0.185,0.210
1139,0.215,0.200
1140,0.230,0.205
1141,0.260,0.210
1142,0.315,0.205
1143,0.345,0.200
1144,0.330,0.195
1145,0.320,0.190
1146,0.325,0.185
1147,0.335,0.180
1148,0.345,0.175
1149,0.340,0.165
1150,0.320,0.155
1151,0.290,0.145
1152,0.245,0.130
1153,0.210,0.115
1154,0.175,0.105
1155,0.135,0.100
1156,0.095,0.095
1157,0.070,0.080
1158,0.055,0.065
1159,0.045,0.060
1160,0.035,0.055
1161,-0.010,0.050
1162,-0.060,0.050
1163,-0.055,0.050
1164,-0.035,0.045
1165,-0.035,0.040
1166,-0.045,0.035
1167,-0.060,0.035
1168,-0.070,0.040
1169,-0.065,0.040
1170,-0.060,0.040
1171,-0.070,0.040
1172,-0.080,0.040
1173,-0.090,0.040
1174,-0.100,0.040
1175,-0.080,0.035
1176,-0.060,0.030
1177,-0.060,0.035
1178,-0.060,0.040
1179,-0.065,0.040
1180,-0.070,0.040
1181,-0.075,0.045
1182,-0.080,0.050
1183,-0.090,0.045
1184,-0.100,0.040
1185,-0.110,0.035
1186,-0.110,0.030
1187,-0.080,0.030
1188,-0.065,0.030
1189,-0.075,0.035
1190,-0.090,0.040
1191,-0.115,0.040
1192,-0.125,0.040
1193,-0.115,0.035
1194,-0.095,0.030
1195,-0.070,0.025
1196,-0.070,0.020
1197,-0.090,0.020
1198,-0.105,0.020
1199,-0.115,0.025
1200,-0.120,0.025
1201,-0.115,0.015
1202,-0.105,0.010
1203,-0.095,0.010
1204,-0.090,0.010
1205,-0.090,0.005
1206,-0.115,0.000
1207,-0.145,0.000
1208,-0.155,0.000
1209,-0.170,-0.010
1210,-0.145,-0.010
1211,-0.120,-0.010
1212,-0.110,-0.010
1213,-0.100,-0.010
1214,-0.145,-0.010
1215,-0.180,-0.010
1216,-0.190,-0.020
1217,-0.200,-0.030
1218,-0.185,-0.035
1219,-0.170,-0.040
1220,-0.170,-0.035
1221,-0.170,-0.030
1222,-0.180,-0.035
1223,-0.190,-0.040
1224,-0.200,-0.035
1225,-0.210,-0.030
1226,-0.220,-0.040
1227,-0.230,-0.050
1228,-0.225,-0.050
1229,-0.220,-0.050
1230,-0.205,-0.050
1231,-0.215,-0.045
1232,-0.245,-0.035
1233,-0.250,-0.030
1234,-0.230,-0.035
1235,-0.220,-0.040
1236,-0.220,-0.040
1237,-0.230,-0.040
1238,-0.245,-0.040
1239,-0.250,-0.040
1240,-0.255,-0.040
1241,-0.260,-0.040
1242,-0.260,-0.045
1243,-0.260,-0.050
1244,-0.260,-0.045
1245,-0.260,-0.040
1246,-0.260,-0.045
1247,-0.240,-0.050
1248,-0.215,-0.045
1249,-0.220,-0.040
1250,-0.210,-0.040
1251,-0.240,-0.040
1252,-0.240,-0.040
1253,-0.235,-0.040
1254,-0.230,-0.040
1255,-0.245,-0.035
1256,-0.260,-0.030
1257,-0.235,-0.025
1258,-0.210,-0.020
1259,-0.220,-0.025
1260,-0.235,-0.030
1261,-0.260,-0.025
1262,-0.280,-0.020
1263,-0.275,-0.025
1264,-0.270,-0.030
1265,-0.260,-0.030
1266,-0.250,-0.030
1267,-0.245,-0.025
1268,-0.240,-0.020
1269,-0.245,-0.020
1270,-0.250,-0.020
1271,-0.235,-0.005
1272,-0.220,0.010
1273,-0.200,0.030
1274,-0.185,0.035
1275,-0.175,0.025
1276,-0.185,0.025
1277,-0.215,0.035
1278,-0.260,0.040
1279,-0.305,0.035
1280,-0.295,0.030
1281,-0.255,0.035
1282,-0.225,0.030
1283,-0.200,0.015
1284,-0.210,-0.005
1285,-0.245,-0.025
1286,-0.265,-0.055
1287,-0.285,-0.085
1288,-0.270,-0.095
1289,-0.245,-0.105
1290,-0.240,-0.100
1291,-0.245,-0.085
1292,-0.250,-0.080
1293,-0.250,-0.080
1294,-0.245,-0.085
1295,-0.240,-0.090
1296,-0.245,-0.085
1297,-0.250,-0.080
1298,-0.245,-0.095
1299,-0.240,-0.105
1300,-0.210,-0.070
1301,-0.195,-0.040
1302,-0.230,-0.050
1303,-0.260,-0.060
1304,-0.250,-0.060
1305,-0.235,-0.060
1306,-0.200,-0.065
1307,-0.180,-0.070
1308,-0.190,-0.065
1309,-0.200,-0.060
1310,-0.195,-0.060
1311,-0.190,-0.060
1312,-0.185,-0.065
1313,-0.180,-0.070
1314,-0.180,-0.065
1315,-0.195,-0.065
1316,-0.225,-0.075
1317,-0.175,-0.065
1318,-0.065,-0.035
1319,0.170,0.025
1320,0.465,0.095
1321,0.780,0.025
1322,1.105,-0.110
1323,1.430,-0.335
1324,1.755,-0.590
1325,2.080,-0.775
1326,2.405,-0.940
1327,2.195,-0.950
1328,1.870,-0.925
1329,1.540,-0.965
1330,1.215,-1.025
1331,0.885,-1.020
1332,0.560,-1.005
1333,0.230,-0.840
1334,-0.095,-0.670
1335,-0.255,-0.505
1336,-0.410,-0.345
1337,-0.365,-0.210
1338,-0.320,-0.085
1339,-0.310,-0.030
1340,-0.300,0.020
1341,-0.300,0.025
1342,-0.295,0.030
1343,-0.270,0.040
1344,-0.250,0.050
1345,-0.265,0.060
1346,-0.280,0.070
1347,-0.285,0.075
1348,-0.290,0.080
1349,-0.295,0.085
1350,-0.295,0.090
1351,-0.280,0.100
1352,-0.265,0.110
1353,-0.250,0.100
1354,-0.240,0.090
1355,-0.245,0.105
1356,-0.260,0.110
1357,-0.285,0.115
1358,-0.290,0.120
1359,-0.270,0.125
1360,-0.255,0.130
1361,-0.240,0.130
1362,-0.230,0.130
1363,-0.235,0.130
1364,-0.240,0.140
1365,-0.245,0.155
1366,-0.250,0.160
1367,-0.250,0.160
1368,-0.250,0.160
1369,-0.245,0.160
1370,-0.210,0.165
1371,-0.175,0.175
1372,-0.170,0.180
1373,-0.170,0.185
1374,-0.170,0.195
1375,-0.170,0.190
1376,-0.155,0.205
1377,-0.130,0.200
1378,-0.100,0.205
1379,-0.070,0.210
1380,-0.040,0.215
1381,-0.010,0.220
1382,0.000,0.220
1383,0.010,0.220
1384,0.030,0.225
1385,0.050,0.230
1386,0.075,0.225
1387,0.095,0.220
1388,0.125,0.225
1389,0.160,0.230
1390,0.190,0.230
1391,0.210,0.230
1392,0.215,0.225
1393,0.225,0.220
1394,0.245,0.220
1395,0.280,0.220
1396,0.325,0.215
1397,0.355,0.210
1398,0.370,0.210
1399,0.375,0.210
1400,0.365,0.205
1401,0.360,0.195
1402,0.360,0.185
1403,0.345,0.170
1404,0.320,0.155
1405,0.305,0.145
1406,0.295,0.135
1407,0.260,0.130
1408,0.210,0.125
1409,0.160,0.115
1410,0.110,0.105
1411,0.095,0.085
1412,0.085,0.065
1413,0.080,0.060
1414,0.080,0.065
1415,0.055,0.060
1416,0.025,0.045
1417,0.000,0.030
1418,-0.020,0.020
1419,-0.015,0.030
1420,-0.010,0.040
1421,-0.020,0.030
1422,-0.030,0.020
1423,-0.025,0.020
1424,-0.020,0.020
1425,-0.020,0.015
1426,-0.020,0.010
1427,-0.030,0.015
1428,-0.040,0.020
1429,-0.040,0.020
1430,-0.040,0.020
1431,-0.035,0.015
1432,-0.025,0.010
1433,-0.005,0.015
1434,0.000,0.020
1435,-0.025,0.020
1436,-0.040,0.020
1437,-0.050,0.025
1438,-0.060,0.030
1439,-0.060,0.025
1440,-0.045,0.020
1441,-0.015,0.025
1442,-0.005,0.030
1443,-0.015,0.025
1444,-0.035,0.020
1445,-0.060,0.025
1446,-0.065,0.030
1447,-0.055,0.030
1448,-0.035,0.030
1449,-0.015,0.025
1450,-0.015,0.020
1451,-0.025,0.025
1452,-0.035,0.030
1453,-0.045,0.035
1454,-0.050,0.035
1455,-0.055,0.025
1456,-0.050,0.020
1457,-0.035,0.020
1458,-0.035,0.020
1459,-0.050,0.020
1460,-0.045,0.030
1461,-0.040,0.040
1462,-0.070,0.030
1463,-0.100,0.020
1464,-0.095,0.010
1465,-0.090,0.000
1466,-0.085,0.000
1467,-0.080,0.000
1468,-0.090,0.000
1469,-0.100,0.000
1470,-0.115,0.000
1471,-0.130,0.000
1472,-0.115,0.000
1473,-0.100,-0.005
1474,-0.105,-0.020
1475,-0.110,-0.030
1476,-0.115,-0.025
1477,-0.115,-0.020
1478,-0.100,-0.025
1479,-0.100,-0.030
1480,-0.125,-0.025
1481,-0.135,-0.020
1482,-0.125,-0.020
1483,-0.120,-0.020
1484,-0.125,-0.025
1485,-0.125,-0.030
1486,-0.115,-0.030
1487,-0.110,-0.030
1488,-0.115,-0.030
1489,-0.130,-0.030
1490,-0.145,-0.035
1491,-0.160,-0.040
1492,-0.175,-0.040
1493,-0.160,-0.040
1494,-0.135,-0.040
1495,-0.110,-0.040
1496,-0.085,-0.040
1497,-0.115,-0.040
1498,-0.155,-0.045
1499,-0.160,-0.050
1500,-0.160,-0.050
1501,-0.150,-0.060
1502,-0.130,-0.060
1503,-0.125,-0.055
1504,-0.120,-0.050
1505,-0.135,-0.050
1506,-0.150,-0.050
1507,-0.155,-0.050
1508,-0.160,-0.050
1509,-0.160,-0.050
1510,-0.160,-0.050
1511,-0.145,-0.055
1512,-0.130,-0.060
1513,-0.135,-0.060
1514,-0.145,-0.060
1515,-0.170,-0.055
1516,-0.190,-0.050
1517,-0.180,-0.050
1518,-0.165,-0.050
1519,-0.150,-0.055
1520,-0.140,-0.060
1521,-0.140,-0.060
1522,-0.145,-0.060
1523,-0.160,-0.060
1524,-0.160,-0.060
1525,-0.130,-0.060
1526,-0.125,-0.060
1527,-0.140,-0.065
1528,-0.140,-0.070
1529,-0.125,-0.075
1530,-0.105,-0.065
1531,-0.080,-0.040
1532,-0.070,-0.030
1533,-0.065,-0.025
1534,-0.080,-0.020
1535,-0.115,-0.020
1536,-0.130,-0.020
1537,-0.145,-0.020
1538,-0.150,-0.020
1539,-0.145,-0.020
1540,-0.150,-0.025
1541,-0.165,-0.035
1542,-0.145,-0.045
1543,-0.120,-0.050
1544,-0.145,-0.095
1545,-0.170,-0.140
1546,-0.170,-0.160
1547,-0.170,-0.180
1548,-0.155,-0.160
1549,-0.140,-0.140
1550,-0.150,-0.140
1551,-0.165,-0.140
1552,-0.190,-0.140
1553,-0.205,-0.140
1554,-0.180,-0.135
1555,-0.160,-0.130
1556,-0.165,-0.130
1557,-0.165,-0.130
1558,-0.140,-0.125
1559,-0.130,-0.110
1560,-0.160,-0.080
1561,-0.180,-0.060
1562,-0.175,-0.070
1563,-0.165,-0.080
1564,-0.155,-0.080
1565,-0.140,-0.075
1566,-0.120,-0.065
1567,-0.110,-0.060
1568,-0.115,-0.065
1569,-0.125,-0.065
1570,-0.135,-0.045
1571,-0.120,-0.040
1572,-0.080,-0.045
1573,-0.090,-0.050
1574,-0.120,-0.045
1575,-0.150,-0.040
1576,-0.180,-0.035
1577,0.015,0.015
1578,0.265,0.070
1579,0.580,0.065
1580,0.905,0.045
1581,1.230,-0.170
1582,1.555,-0.400
1583,1.880,-0.660
1584,2.205,-0.920
1585,2.495,-0.830
1586,2.750,-0.750
1587,2.425,-0.910
1588,2.095,-1.055
1589,1.770,-1.000
1590,1.440,-0.945
1591,1.115,-0.900
1592,0.785,-0.815
1593,0.460,-0.590
1594,0.155,-0.385
1595,-0.070,-0.225
1596,-0.230,-0.095
1597,-0.215,-0.035
1598,-0.200,0.015
1599,-0.195,0.040
1600,-0.190,0.060
1601,-0.180,0.065
1602,-0.175,0.070
1603,-0.190,0.080
1604,-0.200,0.090
1605,-0.200,0.095
1606,-0.195,0.100
1607,-0.185,0.095
1608,-0.180,0.095
1609,-0.180,0.105
1610,-0.180,0.110
1611,-0.185,0.110
1612,-0.190,0.110
1613,-0.190,0.110
1614,-0.190,0.110
1615,-0.185,0.115
1616,-0.180,0.120
1617,-0.175,0.120
1618,-0.165,0.120
1619,-0.155,0.125
1620,-0.155,0.130
1621,-0.165,0.130
1622,-0.155,0.130
1623,-0.135,0.135
1624,-0.130,0.140
1625,-0.130,0.140
1626,-0.105,0.150
1627,-0.080,0.150
1628,-0.095,0.155
1629,-0.110,0.160
1630,-0.095,0.165
1631,-0.080,0.170
1632,-0.055,0.180
1633,-0.030,0.190
1634,-0.015,0.195
1635,0.005,0.200
1636,0.030,0.205
1637,0.050,0.210
1638,0.050,0.205
1639,0.055,0.205
1640,0.075,0.220
1641,0.105,0.230
1642,0.145,0.220
1643,0.180,0.210
1644,0.205,0.220
1645,0.220,0.230
1646,0.215,0.230
1647,0.230,0.230
1648,0.275,0.235
1649,0.310,0.235
1650,0.330,0.225
1651,0.345,0.220
1652,0.360,0.220
1653,0.390,0.220
1654,0.425,0.220
1655,0.440,0.220
1656,0.445,0.220
1657,0.450,0.220
1658,0.445,0.215
1659,0.445,0.200
1660,0.455,0.185
1661,0.450,0.180
1662,0.435,0.175
1663,0.395,0.170
1664,0.355,0.165
1665,0.325,0.160
1666,0.295,0.155
1667,0.250,0.130
1668,0.210,0.110
1669,0.175,0.100
1670,0.140,0.090
1671,0.150,0.085
1672,0.155,0.080
1673,0.100,0.080
1674,0.050,0.080
1675,0.035,0.075
1676,0.020,0.070
1677,0.030,0.055
1678,0.040,0.040
1679,0.045,0.050
1680,0.045,0.060
1681,0.025,0.055
1682,0.010,0.050
1683,0.010,0.050
1684,0.010,0.050
1685,0.010,0.045
1686,0.010,0.040
1687,0.010,0.050
1688,0.010,0.060
1689,0.015,0.065
1690,0.015,0.065
1691,0.005,0.055
1692,-0.010,0.050
1693,-0.030,0.050
1694,-0.035,0.050
1695,-0.025,0.050
1696,-0.010,0.050
1697,0.010,0.055
1698,0.005,0.060
1699,-0.020,0.060
1700,-0.030,0.060
1701,-0.025,0.060
1702,-0.015,0.060
1703,-0.005,0.060
1704,0.000,0.060
1705,-0.005,0.060
1706,-0.010,0.060
1707,-0.005,0.060
1708,-0.010,0.060
1709,-0.030,0.060
1710,-0.030,0.060
1711,-0.030,0.060
1712,-0.015,0.060
1713,0.000,0.060
1714,-0.005,0.060
1715,-0.010,0.060
1716,-0.025,0.060
1717,-0.040,0.060
1718,-0.045,0.055
1719,-0.050,0.050
1720,-0.045,0.045
1721,-0.040,0.040
1722,-0.055,0.045
1723,-0.065,0.050
1724,-0.050,0.045
1725,-0.040,0.040
1726,-0.035,0.045
1727,-0.045,0.050
1728,-0.080,0.055
1729,-0.100,0.055
1730,-0.085,0.040
1731,-0.070,0.035
1732,-0.050,0.045
1733,-0.045,0.050
1734,-0.060,0.045
1735,-0.075,0.040
1736,-0.090,0.045
1737,-0.100,0.045
1738,-0.095,0.035
1739,-0.090,0.030
1740,-0.090,0.030
1741,-0.085,0.035
1742,-0.075,0.045
1743,-0.090,0.050
1744,-0.115,0.050
1745,-0.120,0.050
1746,-0.115,0.050
1747,-0.110,0.050
1748,-0.105,0.045
1749,-0.100,0.040
1750,-0.100,0.040
1751,-0.120,0.050
1752,-0.150,0.050
1753,-0.140,0.055
1754,-0.130,0.060
1755,-0.125,0.050
1756,-0.120,0.040
1757,-0.125,0.040
1758,-0.130,0.040
1759,-0.115,0.040
1760,-0.100,0.040
1761,-0.125,0.035
1762,-0.140,0.030
1763,-0.150,0.030
1764,-0.155,0.030
1765,-0.135,0.030
1766,-0.120,0.030
1767,-0.125,0.030
1768,-0.130,0.030
1769,-0.135,0.030
1770,-0.135,0.030
1771,-0.120,0.025
1772,-0.115,0.020
1773,-0.125,0.020
1774,-0.130,0.020
1775,-0.125,0.025
1776,-0.115,0.030
1777,-0.105,0.025
1778,-0.100,0.020
1779,-0.100,0.020
1780,-0.115,0.025
1781,-0.140,0.035
1782,-0.140,0.025
1783,-0.125,0.005
1784,-0.105,0.005
1785,-0.085,0.015
1786,-0.095,0.020
1787,-0.115,0.020
1788,-0.095,0.045
1789,-0.065,0.075
1790,-0.060,0.080
1791,-0.055,0.075
1792,-0.085,0.075
1793,-0.120,0.080
1794,-0.125,0.090
1795,-0.130,0.100
1796,-0.135,0.085
1797,-0.140,0.070
1798,-0.155,0.060
1799,-0.170,0.050
1800,-0.160,0.035
1801,-0.150,0.015
1802,-0.145,-0.015
1803,-0.140,-0.045
1804,-0.150,-0.065
1805,-0.160,-0.075
1806,-0.180,-0.055
1807,-0.190,-0.040
1808,-0.180,-0.040
1809,-0.170,-0.040
1810,-0.165,-0.050
1811,-0.160,-0.055
1812,-0.165,-0.040
1813,-0.180,-0.035
1814,-0.205,-0.050
1815,-0.205,-0.055
1816,-0.175,-0.045
1817,-0.160,-0.035
1818,-0.165,-0.025
1819,-0.165,-0.020
1820,-0.145,-0.015
1821,-0.155,-0.010
1822,-0.180,-0.010
1823,-0.185,-0.010
1824,-0.175,-0.010
1825,-0.155,-0.010
1826,-0.135,-0.015
1827,-0.120,-0.015
1828,-0.105,-0.005
1829,-0.095,0.000
1830,-0.085,0.000
1831,-0.125,0.000
1832,-0.175,0.000
1833,-0.180,0.000
1834,-0.190,0.010
1835,0.050,0.065
1836,0.300,0.120
1837,0.625,0.095
1838,0.950,0.050
1839,1.275,-0.170
1840,1.600,-0.400
1841,1.925,-0.655
1842,2.250,-0.845
1843,2.575,-0.765
1844,2.740,-0.740
1845,2.415,-0.900
1846,2.085,-1.005
1847,1.760,-0.950
1848,1.430,-0.900
1849,1.100,-0.870
1850,0.775,-0.765
1851,0.445,-0.540
1852,0.140,-0.345
1853,-0.140,-0.190
1854,-0.265,-0.080
1855,-0.200,-0.015
1856,-0.180,0.035
1857,-0.200,0.065
1858,-0.215,0.085
1859,-0.225,0.095
1860,-0.225,0.100
1861,-0.215,0.100
1862,-0.210,0.100
1863,-0.205,0.100
1864,-0.190,0.110
1865,-0.165,0.125
1866,-0.170,0.130
1867,-0.185,0.130
1868,-0.200,0.130
1869,-0.215,0.130
1870,-0.215,0.130
1871,-0.205,0.130
1872,-0.185,0.130
1873,-0.165,0.135
1874,-0.180,0.145
1875,-0.160,0.140
1876,-0.205,0.165
1877,-0.200,0.170
1878,-0.175,0.165
1879,-0.150,0.160
1880,-0.140,0.170
1881,-0.130,0.180
1882,-0.130,0.185
1883,-0.130,0.190
1884,-0.130,0.185
1885,-0.130,0.180
1886,-0.120,0.185
1887,-0.105,0.190
1888,-0.085,0.195
1889,-0.065,0.200
1890,-0.040,0.200
1891,-0.020,0.200
1892,-0.030,0.205
1893,-0.030,0.210
1894,-0.005,0.210
1895,0.025,0.210
1896,0.060,0.210
1897,0.080,0.210
1898,0.080,0.215
1899,0.100,0.220
1900,0.140,0.220
1901,0.160,0.220
1902,0.165,0.215
1903,0.190,0.210
1904,0.220,0.215
1905,0.240,0.220
1906,0.255,0.215
1907,0.275,0.210
1908,0.295,0.210
1909,0.315,0.210
1910,0.335,0.215
1911,0.350,0.220
1912,0.365,0.220
1913,0.405,0.220
1914,0.445,0.215
1915,0.450,0.205
1916,0.450,0.195
1917,0.450,0.195
1918,0.450,0.200
1919,0.445,0.185
1920,0.440,0.170
1921,0.380,0.165
1922,0.325,0.160
1923,0.285,0.145
1924,0.250,0.130
1925,0.245,0.130
1926,0.230,0.130
1927,0.180,0.115
1928,0.130,0.100
1929,0.090,0.095
1930,0.060,0.090
1931,0.050,0.070
1932,0.040,0.060
1933,0.035,0.060
1934,0.030,0.060
1935,0.025,0.055
1936,0.015,0.050
1937,-0.005,0.040
1938,-0.025,0.030
1939,-0.035,0.030
1940,-0.040,0.030
1941,-0.040,0.030
1942,-0.030,0.030
1943,-0.010,0.035
1944,-0.010,0.035
1945,-0.030,0.025
1946,-0.040,0.020
1947,-0.045,0.025
1948,-0.050,0.030
1949,-0.050,0.030
1950,-0.045,0.030
1951,-0.035,0.030
1952,-0.025,0.030
1953,-0.015,0.025
1954,-0.030,0.020
1955,-0.055,0.025
1956,-0.055,0.030
1957,-0.045,0.030
1958,-0.040,0.030
1959,-0.030,0.040
1960,-0.030,0.035
1961,-0.030,0.030
1962,-0.035,0.035
1963,-0.040,0.040
1964,-0.045,0.040
1965,-0.050,0.040
1966,-0.040,0.035
1967,-0.030,0.030
1968,-0.030,0.025
1969,-0.030,0.020
1970,-0.035,0.025
1971,-0.040,0.030
1972,-0.050,0.030
1973,-0.060,0.030
1974,-0.065,0.025
1975,-0.070,0.020
1976,-0.075,0.015
1977,-0.080,0.010
1978,-0.070,0.010
1979,-0.060,0.010
1980,-0.065,0.015
1981,-0.085,0.020
1982,-0.115,0.015
1983,-0.125,0.010
1984,-0.115,0.010
1985,-0.110,0.010
1986,-0.115,0.005
1987,-0.120,0.000
1988,-0.115,0.000
1989,-0.115,0.000
1990,-0.125,0.000
1991,-0.135,0.000
1992,-0.145,-0.005
1993,-0.155,-0.010
1994,-0.165,-0.005
1995,-0.165,0.000
1996,-0.155,0.005
1997,-0.150,0.005
1998,-0.145,-0.005
1999,-0.160,-0.010
2000,-0.140,-0.010
2001,-0.170,-0.010
2002,-0.150,-0.010
2003,-0.145,-0.010
2004,-0.140,-0.010
2005,-0.150,-0.010
2006,-0.160,-0.010
2007,-0.170,-0.010
2008,-0.180,-0.010
2009,-0.185,-0.010
2010,-0.190,-0.010
2011,-0.180,-0.010
2012,-0.165,-0.010
2013,-0.145,-0.015
2014,-0.135,-0.020
2015,-0.150,-0.020
2016,-0.165,-0.020
2017,-0.185,-0.025
2018,-0.195,-0.030
2019,-0.180,-0.025
2020,-0.170,-0.020
2021,-0.170,-0.025
2022,-0.170,-0.030
2023,-0.170,-0.025
2024,-0.175,-0.020
2025,-0.185,-0.025
2026,-0.190,-0.030
2027,-0.190,-0.030
2028,-0.195,-0.030
2029,-0.205,-0.035
2030,-0.195,-0.040
2031,-0.170,-0.040
2032,-0.160,-0.040
2033,-0.160,-0.040
2034,-0.170,-0.040
2035,-0.185,-0.040
2036,-0.190,-0.040
2037,-0.190,-0.040
2038,-0.185,-0.045
2039,-0.175,-0.055
2040,-0.170,-0.060
2041,-0.170,-0.055
2042,-0.175,-0.050
2043,-0.180,-0.050
2044,-0.170,-0.035
2045,-0.160,-0.020
2046,-0.155,-0.005
2047,-0.150,0.010
2048,-0.120,0.005
2049,-0.095,0.000
2050,-0.125,0.005
2051,-0.155,0.010
2052,-0.195,0.025
2053,-0.225,0.040
2054,-0.205,0.040
2055,-0.185,0.035
2056,-0.165,0.015
2057,-0.155,-0.005
2058,-0.175,-0.020
2059,-0.195,-0.040
2060,-0.215,-0.080
2061,-0.225,-0.100
2062,-0.205,-0.100
2063,-0.200,-0.095
2064,-0.220,-0.085
2065,-0.230,-0.080
2066,-0.225,-0.085
2067,-0.220,-0.090
2068,-0.215,-0.085
2069,-0.215,-0.080
2070,-0.235,-0.085
2071,-0.240,-0.090
2072,-0.240,-0.095
2073,-0.225,-0.085
2074,-0.200,-0.060
2075,-0.190,-0.050
2076,-0.195,-0.055
2077,-0.200,-0.060
2078,-0.200,-0.055
2079,-0.195,-0.050
2080,-0.185,-0.055
2081,-0.185,-0.060
2082,-0.195,-0.065
2083,-0.190,-0.070
2084,-0.170,-0.070
2085,-0.140,-0.070
2086,-0.110,-0.070
2087,-0.145,-0.065
2088,-0.180,-0.060
2089,-0.185,-0.065
2090,-0.175,-0.070
2091,-0.080,-0.055
2092,0.055,-0.030
2093,0.325,0.045
2094,0.610,0.075
2095,0.935,-0.045
2096,1.260,-0.200
2097,1.585,-0.440
2098,1.910,-0.670
2099,2.235,-0.875
2100,2.310,-0.980
2101,1.980,-0.915
2102,1.655,-0.925
2103,1.325,-1.030
2104,1.000,-1.075
2105,0.670,-1.030
2106,0.345,-0.955
2107,0.015,-0.850
2108,-0.210,-0.700
2109,-0.360,-0.530
2110,-0.370,-0.370
2111,-0.280,-0.220
2112,-0.245,-0.135
2113,-0.235,-0.080
2114,-0.225,-0.050
2115,-0.215,-0.035
2116,-0.210,-0.025
2117,-0.210,-0.015
2118,-0.200,-0.010
2119,-0.185,-0.010
2120,-0.180,0.000
2121,-0.180,0.015
2122,-0.195,0.020
2123,-0.215,0.015
2124,-0.205,0.010
2125,-0.220,0.010
2126,-0.195,0.010
2127,-0.210,0.010
2128,-0.220,0.020
2129,-0.230,0.030
2130,-0.215,0.035
2131,-0.200,0.040
2132,-0.205,0.050
2133,-0.210,0.060
2134,-0.225,0.060
2135,-0.240,0.060
2136,-0.230,0.060
2137,-0.220,0.060
2138,-0.205,0.070
2139,-0.190,0.080
2140,-0.185,0.085
2141,-0.180,0.090
2142,-0.175,0.095
2143,-0.170,0.100
2144,-0.165,0.100
2145,-0.150,0.100
2146,-0.125,0.100
2147,-0.105,0.100
2148,-0.095,0.105
2149,-0.085,0.110
2150,-0.075,0.115
2151,-0.065,0.120
2152,-0.055,0.125
2153,-0.020,0.135
2154,0.025,0.145
2155,0.055,0.150
2156,0.080,0.155
2157,0.075,0.160
2158,0.055,0.155
2159,0.070,0.150
2160,0.105,0.155
2161,0.135,0.160
2162,0.165,0.155
2163,0.200,0.155
2164,0.235,0.165
2165,0.240,0.170
2166,0.240,0.170
2167,0.260,0.170
2168,0.280,0.170
2169,0.310,0.170
2170,0.340,0.170
2171,0.375,0.165
2172,0.410,0.160
2173,0.405,0.160
2174,0.400,0.160
2175,0.385,0.160
2176,0.365,0.160
2177,0.340,0.150
2178,0.320,0.140
2179,0.315,0.130
2180,0.300,0.120
2181,0.260,0.115
2182,0.215,0.105
2183,0.165,0.090
2184,0.130,0.080
2185,0.130,0.075
2186,0.115,0.070
2187,0.075,0.065
2188,0.035,0.055
2189,0.005,0.045
2190,-0.005,0.040
2191,0.005,0.040
2192,0.005,0.040
2193,-0.010,0.040
2194,-0.020,0.040
2195,-0.015,0.035
2196,-0.020,0.030
2197,-0.035,0.025
2198,-0.035,0.020
2199,-0.025,0.025
2200,-0.020,0.030
2201,-0.025,0.025
2202,-0.035,0.020
2203,-0.045,0.025
2204,-0.060,0.030
2205,-0.075,0.025
2206,-0.060,0.020
2207,-0.035,0.020
2208,-0.020,0.025
2209,0.000,0.040
2210,-0.035,0.040
2211,-0.070,0.040
2212,-0.075,0.035
2213,-0.080,0.030
2214,-0.065,0.035
2215,-0.050,0.040
2216,-0.040,0.045
2217,-0.030,0.050
2218,-0.035,0.045
2219,-0.040,0.040
2220,-0.030,0.040
2221,-0.025,0.040
2222,-0.045,0.045
2223,-0.060,0.050
2224,-0.050,0.045
2225,-0.040,0.040
2226,-0.035,0.045
2227,-0.035,0.050
2228,-0.055,0.040
2229,-0.070,0.030
2230,-0.055,0.035
2231,-0.045,0.040
2232,-0.035,0.035
2233,-0.030,0.025
2234,-0.035,0.015
2235,-0.045,0.010
2236,-0.060,0.005
2237,-0.070,0.000
2238,-0.070,0.005
2239,-0.080,0.010
2240,-0.105,0.005
2241,-0.110,-0.005
2242,-0.105,-0.015
2243,-0.085,-0.020
2244,-0.065,-0.025
2245,-0.085,-0.030
2246,-0.115,-0.025
2247,-0.120,-0.020
2248,-0.125,-0.025
2249,-0.130,-0.030
2250,-0.130,-0.030
2251,-0.115,-0.045
2252,-0.110,-0.050
2253,-0.120,-0.055
2254,-0.130,-0.060
2255,-0.135,-0.055
2256,-0.140,-0.050
2257,-0.145,-0.060
2258,-0.150,-0.070
2259,-0.155,-0.070
2260,-0.160,-0.070
2261,-0.135,-0.070
2262,-0.120,-0.070
2263,-0.130,-0.070
2264,-0.140,-0.070
2265,-0.150,-0.065
2266,-0.160,-0.060
2267,-0.155,-0.065
2268,-0.150,-0.070
2269,-0.145,-0.065
2270,-0.140,-0.060
2271,-0.145,-0.060
2272,-0.155,-0.060
2273,-0.165,-0.060
2274,-0.170,-0.060
2275,-0.170,-0.065
2276,-0.170,-0.070
2277,-0.165,-0.070
2278,-0.160,-0.070
2279,-0.155,-0.065
2280,-0.150,-0.060
2281,-0.155,-0.055
2282,-0.170,-0.050
2283,-0.185,-0.050
2284,-0.170,-0.050
2285,-0.145,-0.050
2286,-0.135,-0.050
2287,-0.125,-0.045
2288,-0.125,-0.040
2289,-0.135,-0.045
2290,-0.145,-0.050
2291,-0.155,-0.045
2292,-0.155,-0.040
2293,-0.150,-0.040
2294,-0.140,-0.050
2295,-0.130,-0.060
2296,-0.130,-0.055
2297,-0.130,-0.050
2298,-0.130,-0.050
2299,-0.130,-0.045
2300,-0.100,-0.015
2301,-0.080,0.010
2302,-0.070,0.000
2303,-0.065,-0.010
2304,-0.105,0.005
2305,-0.130,0.020
2306,-0.150,0.030
2307,-0.160,0.040
2308,-0.150,0.030
2309,-0.140,0.020
2310,-0.150,0.010
2311,-0.155,0.000
2312,-0.140,-0.010
2313,-0.130,-0.040
2314,-0.135,-0.080
2315,-0.145,-0.105
2316,-0.160,-0.120
2317,-0.175,-0.120
2318,-0.190,-0.100
2319,-0.200,-0.095
2320,-0.200,-0.105
2321,-0.185,-0.110
2322,-0.160,-0.110
2323,-0.165,-0.100
2324,-0.185,-0.085
2325,-0.195,-0.085
2326,-0.205,-0.095
2327,-0.190,-0.100
2328,-0.165,-0.095
2329,-0.160,-0.085
2330,-0.165,-0.075
2331,-0.160,-0.070
2332,-0.145,-0.070
2333,-0.140,-0.070
2334,-0.150,-0.070
2335,-0.150,-0.065
2336,-0.150,-0.060
2337,-0.140,-0.060
2338,-0.130,-0.060
2339,-0.115,-0.055
2340,-0.100,-0.050
2341,-0.085,-0.045
2342,-0.075,-0.040
2343,-0.115,-0.045
2344,-0.145,-0.050
2345,-0.110,-0.035
2346,-0.005,-0.005
2347,0.255,0.050
2348,0.540,0.075
2349,0.865,0.015
2350,1.190,-0.115
2351,1.515,-0.365
2352,1.840,-0.620
2353,2.165,-0.875
2354,2.315,-0.970
2355,2.265,-0.875
2356,2.070,-0.900
2357,1.740,-1.040
2358,1.415,-1.070
2359,1.085,-1.015
2360,0.760,-0.940
2361,0.430,-0.850
2362,0.100,-0.685
2363,-0.225,-0.480
2364,-0.285,-0.320
2365,-0.235,-0.175
2366,-0.195,-0.090
2367,-0.160,-0.015
2368,-0.150,0.010
2369,-0.155,0.025
2370,-0.165,0.040
2371,-0.175,0.055
2372,-0.180,0.060
2373,-0.180,0.065
2374,-0.160,0.070
2375,-0.180,0.070
2376,-0.125,0.070
2377,-0.120,0.080
2378,-0.150,0.085
2379,-0.180,0.090
2380,-0.170,0.100
2381,-0.160,0.110
2382,-0.155,0.105
2383,-0.150,0.100
2384,-0.130,0.105
2385,-0.110,0.110
2386,-0.120,0.120
2387,-0.130,0.130
2388,-0.145,0.135
2389,-0.155,0.140
2390,-0.130,0.150
2391,-0.105,0.160
2392,-0.085,0.160
2393,-0.070,0.160
2394,-0.080,0.170
2395,-0.090,0.180
2396,-0.105,0.180
2397,-0.095,0.185
2398,-0.065,0.195
2399,-0.045,0.200
2400,-0.035,0.200
2401,-0.025,0.205
2402,-0.015,0.215
2403,-0.005,0.220
2404,0.005,0.220
2405,0.020,0.220
2406,0.035,0.225
2407,0.050,0.230
2408,0.065,0.235
2409,0.110,0.240
2410,0.160,0.240
2411,0.175,0.240
2412,0.185,0.240
2413,0.200,0.240
2414,0.215,0.240
2415,0.245,0.240
2416,0.275,0.240
2417,0.290,0.240
2418,0.300,0.240
2419,0.320,0.235
2420,0.340,0.230
2421,0.395,0.235
2422,0.440,0.240
2423,0.450,0.235
2424,0.460,0.230
2425,0.475,0.230
2426,0.490,0.230
2427,0.505,0.220
2428,0.520,0.210
2429,0.530,0.205
2430,0.530,0.200
2431,0.490,0.190
2432,0.460,0.180
2433,0.450,0.175
2434,0.425,0.165
2435,0.380,0.150
2436,0.340,0.140
2437,0.310,0.130
2438,0.280,0.115
2439,0.260,0.100
2440,0.225,0.090
2441,0.175,0.090
2442,0.140,0.085
2443,0.120,0.075
2444,0.125,0.070
2445,0.150,0.065
2446,0.155,0.060
2447,0.145,0.055
2448,0.110,0.050
2449,0.070,0.045
2450,0.065,0.040
2451,0.075,0.040
2452,0.080,0.040
2453,0.085,0.035
2454,0.090,0.030
2455,0.085,0.030
2456,0.075,0.030
2457,0.065,0.030
2458,0.055,0.030
2459,0.040,0.020
2460,0.050,0.025
2461,0.060,0.030
2462,0.060,0.025
2463,0.060,0.020
2464,0.055,0.025
2465,0.050,0.030
2466,0.030,0.035
2467,0.010,0.040
2468,0.030,0.040
2469,0.050,0.040
2470,0.040,0.035
2471,0.030,0.030
2472,0.040,0.035
2473,0.050,0.040
2474,0.045,0.040
2475,0.040,0.040
2476,0.040,0.045
2477,0.040,0.050
2478,0.035,0.050
2479,0.030,0.050
2480,0.045,0.035
2481,0.055,0.030
2482,0.065,0.035
2483,0.060,0.040
2484,0.030,0.045
2485,0.025,0.050
2486,0.040,0.045
2487,0.045,0.040
2488,0.035,0.035
2489,0.030,0.030
2490,0.030,0.035
2491,0.030,0.040
2492,0.035,0.035
2493,0.030,0.030
2494,0.015,0.025
2495,0.000,0.020
2496,-0.015,0.015
2497,-0.010,0.010
2498,0.005,0.010
2499,0.010,0.010
2500,0.010,0.010
2501,-0.015,0.015
2502,-0.040,0.010
2503,-0.040,0.000
2504,-0.040,-0.010
2505,-0.045,-0.015
2506,-0.050,-0.020
2507,-0.050,-0.015
2508,-0.045,-0.010
2509,-0.015,-0.020
2510,0.005,-0.030
2511,-0.040,-0.030
2512,-0.070,-0.030
2513,-0.080,-0.030
2514,-0.080,-0.030
2515,-0.050,-0.040
2516,-0.030,-0.050
2517,-0.040,-0.055
2518,-0.055,-0.060
2519,-0.070,-0.055
2520,-0.080,-0.050
2521,-0.080,-0.050
2522,-0.080,-0.050
2523,-0.085,-0.055
2524,-0.090,-0.060
2525,-0.095,-0.065
2526,-0.095,-0.070
2527,-0.080,-0.070
2528,-0.080,-0.070
2529,-0.100,-0.070
2530,-0.110,-0.070
2531,-0.115,-0.065
2532,-0.115,-0.065
2533,-0.105,-0.075
2534,-0.100,-0.080
2535,-0.100,-0.075
2536,-0.100,-0.070
2537,-0.105,-0.070
2538,-0.115,-0.070
2539,-0.125,-0.070
2540,-0.115,-0.070
2541,-0.095,-0.070
2542,-0.105,-0.065
2543,-0.120,-0.060
2544,-0.110,-0.060
2545,-0.100,-0.060
2546,-0.105,-0.055
2547,-0.110,-0.050
2548,-0.120,-0.050
2549,-0.130,-0.050
2550,-0.110,-0.055
2551,-0.090,-0.060
2552,-0.090,-0.055
2553,-0.090,-0.050
2554,-0.105,-0.050
2555,-0.120,-0.050
2556,-0.100,-0.050
2557,-0.090,-0.050
2558,-0.085,-0.050
2559,-0.070,-0.040
2560,-0.045,-0.015
2561,-0.020,0.000
2562,0.005,0.000
2563,0.000,0.005
2564,-0.045,0.015
2565,-0.085,0.025
2566,-0.125,0.035
2567,-0.125,0.035
2568,-0.095,0.020
2569,-0.080,0.010
2570,-0.080,0.010
2571,-0.090,0.005
2572,-0.105,-0.005
2573,-0.110,-0.035
2574,-0.110,-0.070
2575,-0.110,-0.090
2576,-0.110,-0.105
2577,-0.115,-0.100
2578,-0.125,-0.085
2579,-0.125,-0.080
2580,-0.115,-0.080
2581,-0.110,-0.080
2582,-0.115,-0.080
2583,-0.135,-0.075
2584,-0.160,-0.060
2585,-0.160,-0.070
2586,-0.160,-0.080
2587,-0.110,-0.075
2588,-0.060,-0.070
2589,-0.095,-0.045
2590,-0.130,-0.020
2591,-0.125,-0.025
2592,-0.120,-0.030
2593,-0.115,-0.030
2594,-0.110,-0.030
2595,-0.110,-0.030
2596,-0.100,-0.030
2597,-0.065,-0.020
2598,-0.045,-0.010
2599,-0.060,-0.005
2600,-0.070,0.000
2601,-0.080,-0.005
2602,-0.090,-0.010
2603,-0.095,-0.015
2604,-0.100,-0.015
2605,-0.100,0.000
2606,0.015,0.035
2607,0.240,0.085
2608,0.525,0.105
2609,0.850,0.090
2610,1.175,-0.065
2611,1.500,-0.300
2612,1.825,-0.545
2613,2.150,-0.795
2614,2.475,-0.815
2615,2.800,-0.730
2616,2.630,-0.840
2617,2.305,-1.015
2618,1.975,-1.000
2619,1.650,-0.930
2620,1.320,-0.905
2621,0.995,-0.885
2622,0.665,-0.680
2623,0.340,-0.455
2624,0.065,-0.285
2625,0.320,-0.440
2626,-0.190,-0.060
2627,-0.170,0.000
2628,-0.145,0.040
2629,-0.120,0.080
2630,-0.130,0.080
2631,-0.140,0.080
2632,-0.140,0.090
2633,-0.140,0.100
2634,-0.135,0.100
2635,-0.130,0.100
2636,-0.135,0.110
2637,-0.145,0.120
2638,-0.165,0.120
2639,-0.170,0.120
2640,-0.135,0.125
2641,-0.110,0.130
2642,-0.115,0.135
2643,-0.125,0.140
2644,-0.140,0.135
2645,-0.150,0.130
2646,-0.150,0.130
2647,-0.140,0.130
2648,-0.120,0.135
2649,-0.105,0.140
2650,-0.095,0.145
2651,-0.090,0.150
2652,-0.090,0.150
2653,-0.090,0.150
2654,-0.095,0.155
2655,-0.100,0.160
2656,-0.105,0.160
2657,-0.080,0.165
2658,-0.040,0.175
2659,-0.025,0.180
2660,-0.015,0.180
2661,-0.020,0.180
2662,-0.035,0.185
2663,-0.025,0.190
2664,-0.005,0.195
2665,0.030,0.200
2666,0.065,0.200
2667,0.085,0.210
2668,0.100,0.220
2669,0.120,0.220
2670,0.140,0.220
2671,0.155,0.225
2672,0.170,0.230
2673,0.185,0.225
2674,0.205,0.220
2675,0.240,0.220
2676,0.275,0.220
2677,0.300,0.225
2678,0.320,0.230
2679,0.320,0.235
2680,0.330,0.240
2681,0.370,0.240
2682,0.405,0.240
2683,0.430,0.235
2684,0.450,0.230
2685,0.460,0.230
2686,0.475,0.230
2687,0.495,0.230
2688,0.505,0.230
2689,0.495,0.230
2690,0.480,0.225
2691,0.460,0.215
2692,0.445,0.205
2693,0.430,0.190
2694,0.420,0.175
2695,0.425,0.165
2696,0.375,0.160
2697,0.285,0.155
2698,0.245,0.145
2699,0.220,0.135
2700,0.195,0.120
2701,0.175,0.105
2702,0.160,0.100
2703,0.145,0.095
2704,0.120,0.090
2705,0.095,0.090
2706,0.075,0.085
2707,0.055,0.075
2708,0.045,0.070
2709,0.030,0.060
2710,0.050,0.055
2711,0.070,0.050
2712,0.065,0.050
2713,0.060,0.050
2714,0.035,0.050
2715,0.010,0.050
2716,0.015,0.045
2717,0.020,0.040
2718,0.025,0.040
2719,0.030,0.040
2720,0.020,0.040
2721,0.010,0.040
2722,0.000,0.035
2723,-0.010,0.030
2724,-0.015,0.035
2725,-0.020,0.040
2726,-0.030,0.040
2727,-0.035,0.040
2728,-0.020,0.035
2729,-0.010,0.030
2730,-0.005,0.030
2731,-0.010,0.030
2732,-0.035,0.025
2733,-0.040,0.020
2734,-0.020,0.025
2735,-0.010,0.030
2736,-0.005,0.025
2737,0.000,0.020
2738,0.000,0.020
2739,0.000,0.020
2740,-0.005,0.025
2741,-0.015,0.030
2742,-0.025,0.025
2743,-0.035,0.020
2744,-0.045,0.025
2745,-0.040,0.025
2746,-0.025,0.015
2747,-0.020,0.010
2748,-0.015,0.015
2749,-0.040,0.020
2750,-0.010,0.020
2751,-0.065,0.010
2752,-0.050,0.010
2753,-0.050,0.005
2754,-0.050,0.000
2755,-0.050,0.005
2756,-0.050,0.010
2757,-0.055,0.005
2758,-0.060,0.000
2759,-0.080,0.000
2760,-0.100,0.000
2761,-0.105,-0.005
2762,-0.105,-0.010
2763,-0.085,-0.015
2764,-0.070,-0.020
2765,-0.070,-0.015
2766,-0.080,-0.010
2767,-0.110,-0.005
2768,-0.125,0.000
2769,-0.110,-0.005
2770,-0.100,-0.010
2771,-0.100,0.005
2772,-0.100,0.010
2773,-0.105,0.005
2774,-0.115,0.000
2775,-0.125,0.005
2776,-0.130,0.010
2777,-0.125,0.010
2778,-0.120,0.010
2779,-0.120,0.015
2780,-0.120,0.020
2781,-0.125,0.020
2782,-0.125,0.020
2783,-0.115,0.025
2784,-0.125,0.030
2785,-0.145,0.030
2786,-0.150,0.030
2787,-0.150,0.030
2788,-0.150,0.030
2789,-0.150,0.030
2790,-0.140,0.030
2791,-0.125,0.030
2792,-0.125,0.035
2793,-0.130,0.040
2794,-0.140,0.040
2795,-0.150,0.040
2796,-0.170,0.035
2797,-0.190,0.030
2798,-0.185,0.020
2799,-0.175,0.010
2800,-0.145,0.015
2801,-0.120,0.020
2802,-0.140,0.020
2803,-0.165,0.020
2804,-0.185,0.020
2805,-0.200,0.020
2806,-0.195,0.015
2807,-0.185,0.010
2808,-0.170,0.020
2809,-0.160,0.030
2810,-0.150,0.020
2811,-0.150,0.010
2812,-0.175,0.015
2813,-0.190,0.020
2814,-0.185,0.015
2815,-0.175,0.010
2816,-0.160,0.005
2817,-0.135,0.000
2818,-0.110,0.005
2819,-0.105,0.020
2820,-0.115,0.040
2821,-0.120,0.045
2822,-0.120,0.035
2823,-0.120,0.040
2824,-0.125,0.055
2825,-0.145,0.060
2826,-0.165,0.065
2827,-0.185,0.060
2828,-0.205,0.045
2829,-0.205,0.040
2830,-0.195,0.040
2831,-0.170,0.040
2832,-0.145,0.035
2833,-0.155,-0.010
2834,-0.180,-0.060
2835,-0.180,-0.070
2836,-0.180,-0.080
2837,-0.200,-0.060
2838,-0.220,-0.040
2839,-0.225,-0.040
2840,-0.230,-0.040
2841,-0.205,-0.040
2842,-0.180,-0.040
2843,-0.190,-0.040
2844,-0.205,-0.040
2845,-0.225,-0.035
2846,-0.230,-0.030
2847,-0.185,-0.025
2848,-0.160,-0.020
2849,-0.195,-0.010
2850,-0.220,0.000
2851,-0.210,-0.005
2852,-0.195,-0.010
2853,-0.180,-0.010
2854,-0.170,-0.010
2855,-0.155,-0.005
2856,-0.150,0.000
2857,-0.155,0.000
2858,-0.160,0.000
2859,-0.160,0.005
2860,-0.155,0.005
2861,-0.145,-0.005
2862,-0.155,-0.010
2863,-0.180,-0.010
2864,-0.130,0.005
2865,-0.045,0.030
2866,0.170,0.090
2867,0.420,0.155
2868,0.730,0.080
2869,1.055,-0.030
2870,1.380,-0.240
2871,1.705,-0.465
2872,2.030,-0.680
2873,2.355,-0.890
2874,2.065,-0.825
2875,2.375,-0.900
2876,1.410,-0.855
2877,1.080,-0.970
2878,0.755,-0.940
2879,0.425,-0.900
2880,0.100,-0.790
2881,-0.205,-0.670
2882,-0.385,-0.495
2883,-0.515,-0.325
2884,-0.415,-0.170
2885,-0.335,-0.040
2886,-0.305,0.015
2887,-0.280,0.060
2888,-0.280,0.075
2889,-0.280,0.090
2890,-0.285,0.100
2891,-0.285,0.110
2892,-0.270,0.120
2893,-0.260,0.130
2894,-0.265,0.125
2895,-0.270,0.120
2896,-0.275,0.125
2897,-0.280,0.130
2898,-0.275,0.130
2899,-0.275,0.130
2900,-0.290,0.135
2901,-0.295,0.145
2902,-0.285,0.160
2903,-0.295,0.165
2904,-0.320,0.155
2905,-0.315,0.155
2906,-0.290,0.165
2907,-0.280,0.170
2908,-0.275,0.175
2909,-0.285,0.185
2910,-0.305,0.195
2911,-0.310,0.200
2912,-0.305,0.195
2913,-0.275,0.190
2914,-0.245,0.195
2915,-0.245,0.200
2916,-0.255,0.205
2917,-0.260,0.215
2918,-0.260,0.220
2919,-0.245,0.225
2920,-0.230,0.230
2921,-0.215,0.220
2922,-0.195,0.210
2923,-0.155,0.225
2924,-0.120,0.240
2925,-0.105,0.240
2926,-0.090,0.240
2927,-0.095,0.235
2928,-0.095,0.230
2929,-0.070,0.235
2930,-0.035,0.240
2931,0.015,0.240
2932,0.050,0.240
2933,0.050,0.245
2934,0.050,0.250
2935,0.060,0.250
2936,0.075,0.250
2937,0.095,0.240
2938,0.120,0.230
2939,0.140,0.235
2940,0.165,0.240
2941,0.195,0.240
2942,0.230,0.240
2943,0.275,0.235
2944,0.295,0.230
2945,0.305,0.225
2946,0.310,0.220
2947,0.310,0.220
2948,0.310,0.210
2949,0.310,0.195
2950,0.295,0.190
2951,0.275,0.185
2952,0.245,0.175
2953,0.215,0.165
2954,0.180,0.155
2955,0.145,0.145
2956,0.095,0.135
2957,0.045,0.125
2958,0.030,0.115
2959,0.010,0.100
2960,0.000,0.090
2961,-0.010,0.080
2962,-0.055,0.075
2963,-0.100,0.070
2964,-0.120,0.060
2965,-0.140,0.050
2966,-0.125,0.040
2967,-0.110,0.030
2968,-0.125,0.030
2969,-0.140,0.030
2970,-0.130,0.030
2971,-0.125,0.030
2972,-0.145,0.040
2973,-0.165,0.045
2974,-0.180,0.030
2975,-0.180,0.020
2976,-0.150,0.020
2977,-0.130,0.020
2978,-0.130,0.020
2979,-0.140,0.020
2980,-0.165,0.015
2981,-0.180,0.010
2982,-0.175,0.010
2983,-0.170,0.010
2984,-0.165,0.010
2985,-0.155,0.010
2986,-0.145,0.015
2987,-0.150,0.020
2988,-0.165,0.025
2989,-0.150,0.030
2990,-0.120,0.025
2991,-0.130,0.020
2992,-0.160,0.025
2993,-0.170,0.030
2994,-0.170,0.030
2995,-0.170,0.030
2996,-0.170,0.035
2997,-0.180,0.040
2998,-0.195,0.040
2999,-0.190,0.040
3000,-0.200,0.040
3001,-0.160,0.045
3002,-0.150,0.050
3003,-0.170,0.050
3004,-0.190,0.050
3005,-0.195,0.045
3006,-0.200,0.040
3007,-0.195,0.045
3008,-0.190,0.050
3009,-0.210,0.040
3010,-0.230,0.030
3011,-0.235,0.025
3012,-0.235,0.020
3013,-0.205,0.025
3014,-0.185,0.030
3015,-0.205,0.020
3016,-0.225,0.010
3017,-0.255,0.010
3018,-0.265,0.010
3019,-0.245,0.000
3020,-0.230,-0.010
3021,-0.235,-0.010
3022,-0.240,-0.010
3023,-0.240,-0.005
3024,-0.250,-0.005
3025,-0.270,-0.015
3026,-0.280,-0.020
3027,-0.285,-0.015
3028,-0.290,-0.010
3029,-0.295,-0.015
3030,-0.265,-0.020
3031,-0.215,-0.015
3032,-0.250,-0.010
3033,-0.325,-0.015
3034,-0.340,-0.020
3035,-0.335,-0.025
3036,-0.315,-0.030
3037,-0.295,-0.025
3038,-0.290,-0.020
3039,-0.285,-0.020
3040,-0.295,-0.020
3041,-0.315,-0.015
3042,-0.325,-0.015
3043,-0.330,-0.020
3044,-0.330,-0.020
3045,-0.330,-0.020
3046,-0.305,-0.015
3047,-0.280,-0.010
3048,-0.290,-0.015
3049,-0.300,-0.020
3050,-0.330,-0.015
3051,-0.350,-0.010
3052,-0.335,-0.015
3053,-0.315,-0.020
3054,-0.290,-0.015
3055,-0.275,-0.010
3056,-0.295,-0.015
3057,-0.310,-0.020
3058,-0.315,-0.015
3059,-0.320,-0.010
3060,-0.315,-0.005
3061,-0.310,0.000
3062,-0.315,-0.005
3063,-0.325,-0.015
3064,-0.335,-0.025
3065,-0.330,-0.030
3066,-0.310,-0.025
3067,-0.305,-0.020
3068,-0.315,-0.025
3069,-0.310,-0.025
3070,-0.290,-0.015
3071,-0.280,0.000
3072,-0.275,0.015
3073,-0.270,0.020
3074,-0.265,0.015
3075,-0.290,0.010
3076,-0.330,0.015
3077,-0.340,0.025
3078,-0.340,0.035
3079,-0.345,0.040
3080,-0.355,0.035
3081,-0.360,0.030
3082,-0.355,0.025
3083,-0.315,0.020
3084,-0.270,0.020
3085,-0.325,-0.030
3086,-0.380,-0.080
3087,-0.380,-0.090
3088,-0.380,-0.100
3089,-0.380,-0.085
3090,-0.380,-0.070
3091,-0.365,-0.070
3092,-0.350,-0.070
3093,-0.350,-0.075
3094,-0.350,-0.075
3095,-0.355,-0.055
3096,-0.365,-0.045
3097,-0.395,-0.065
3098,-0.405,-0.080
3099,-0.360,-0.070
3100,-0.330,-0.060
3101,-0.320,-0.050
3102,-0.320,-0.040
3103,-0.345,-0.045
3104,-0.360,-0.050
3105,-0.365,-0.050
3106,-0.355,-0.050
3107,-0.325,-0.050
3108,-0.310,-0.045
3109,-0.310,-0.035
3110,-0.310,-0.030
3111,-0.310,-0.035
3112,-0.310,-0.040
3113,-0.305,-0.040
3114,-0.310,-0.040
3115,-0.335,-0.035
3116,-0.285,-0.025
3117,-0.205,-0.015
3118,0.050,0.040
3119,0.345,0.110
3120,0.665,0.035
3121,0.990,-0.070
3122,1.315,-0.295
3123,1.640,-0.535
3124,1.965,-0.735
3125,1.660,-0.550
3126,1.970,-0.880
3127,1.640,-0.830
3128,1.315,-0.915
3129,0.985,-0.990
3130,0.660,-0.965
3131,0.330,-0.925
3132,0.005,-0.790
3133,-0.300,-0.655
3134,-0.485,-0.500
3135,-0.610,-0.350
3136,-0.505,-0.200
3137,-0.430,-0.075
3138,-0.425,-0.020
3139,-0.415,0.025
3140,-0.400,0.045
3141,-0.390,0.060
3142,-0.390,0.055
3143,-0.390,0.055
3144,-0.385,0.070
3145,-0.380,0.080
3146,-0.380,0.080
3147,-0.380,0.080
3148,-0.380,0.085
3149,-0.385,0.090
3150,-0.395,0.090
3151,-0.400,0.095
3152,-0.400,0.105
3153,-0.390,0.110
3154,-0.370,0.105
3155,-0.380,0.100
3156,-0.410,0.105
3157,-0.420,0.110
3158,-0.420,0.115
3159,-0.415,0.120
3160,-0.405,0.125
3161,-0.385,0.130
3162,-0.365,0.135
3163,-0.360,0.140
3164,-0.360,0.145
3165,-0.365,0.150
3166,-0.375,0.155
3167,-0.370,0.170
3168,-0.360,0.180
3169,-0.340,0.180
3170,-0.320,0.180
3171,-0.290,0.180
3172,-0.260,0.180
3173,-0.265,0.185
3174,-0.270,0.190
3175,-0.275,0.195
3176,-0.275,0.200
3177,-0.245,0.200
3178,-0.210,0.200
3179,-0.165,0.205
3180,-0.125,0.210
3181,-0.100,0.215
3182,-0.075,0.220
3183,-0.060,0.220
3184,-0.050,0.220
3185,-0.040,0.215
3186,-0.020,0.210
3187,0.010,0.210
3188,0.045,0.210
3189,0.080,0.210
3190,0.105,0.210
3191,0.115,0.210
3192,0.135,0.210
3193,0.160,0.210
3194,0.175,0.205
3195,0.195,0.185
3196,0.205,0.180
3197,0.215,0.180
3198,0.235,0.180
3199,0.255,0.180
3200,0.240,0.180
3201,0.210,0.175
3202,0.205,0.160
3203,0.215,0.145
3204,0.180,0.135
3205,0.135,0.125
3206,0.100,0.120
3207,0.065,0.115
3208,0.025,0.100
3209,-0.020,0.080
3210,-0.055,0.075
3211,-0.090,0.070
3212,-0.105,0.055
3213,-0.120,0.040
3214,-0.130,0.040
3215,-0.145,0.040
3216,-0.180,0.035
3217,-0.210,0.030
3218,-0.225,0.025
3219,-0.235,0.020
3220,-0.215,0.015
3221,-0.200,0.010
3222,-0.205,0.015
3223,-0.210,0.020
3224,-0.205,0.020
3225,-0.200,0.020
3226,-0.205,0.015
3227,-0.210,0.010
3228,-0.215,0.015
3229,-0.220,0.020
3230,-0.215,0.020
3231,-0.210,0.020
3232,-0.210,0.015
3233,-0.205,0.010
3234,-0.195,0.015
3235,-0.195,0.020
3236,-0.210,0.020
3237,-0.215,0.020
3238,-0.205,0.020
3239,-0.200,0.020
3240,-0.205,0.020
3241,-0.200,0.020
3242,-0.185,0.015
3243,-0.180,0.010
3244,-0.185,0.015
3245,-0.190,0.020
3246,-0.190,0.025
3247,-0.205,0.030
3248,-0.225,0.025
3249,-0.215,0.020
3250,-0.230,0.020
3251,-0.190,0.020
3252,-0.190,0.020
3253,-0.190,0.025
3254,-0.190,0.030
3255,-0.190,0.030
3256,-0.190,0.030
3257,-0.195,0.020
3258,-0.200,0.010
3259,-0.190,0.015
3260,-0.180,0.020
3261,-0.195,0.020
3262,-0.210,0.020
3263,-0.220,0.020
3264,-0.230,0.020
3265,-0.235,0.015
3266,-0.225,0.010
3267,-0.185,0.010
3268,-0.175,0.010
3269,-0.215,0.015
3270,-0.240,0.020
3271,-0.245,0.015
3272,-0.240,0.010
3273,-0.220,0.010
3274,-0.215,0.010
3275,-0.225,0.010
3276,-0.230,0.010
3277,-0.230,0.010
3278,-0.230,0.010
3279,-0.235,0.010
3280,-0.245,0.010
3281,-0.255,0.005
3282,-0.260,0.000
3283,-0.260,0.000
3284,-0.255,0.000
3285,-0.245,0.000
3286,-0.250,0.000
3287,-0.265,0.005
3288,-0.270,0.010
3289,-0.275,0.010
3290,-0.265,0.010
3291,-0.245,0.005
3292,-0.245,-0.005
3293,-0.250,-0.010
3294,-0.245,-0.010
3295,-0.240,-0.010
3296,-0.235,-0.005
3297,-0.230,0.000
3298,-0.240,0.000
3299,-0.250,0.000
3300,-0.260,0.000
3301,-0.270,0.000
3302,-0.270,-0.010
3303,-0.270,-0.020
3304,-0.255,-0.015
3305,-0.245,-0.010
3306,-0.265,-0.010
3307,-0.280,-0.010
3308,-0.275,-0.005
3309,-0.275,0.000
3310,-0.290,-0.005
3311,-0.295,-0.010
3312,-0.275,-0.005
3313,-0.260,0.000
3314,-0.260,-0.005
3315,-0.265,-0.010
3316,-0.280,-0.005
3317,-0.290,0.000
3318,-0.285,-0.005
3319,-0.275,-0.010
3320,-0.265,-0.010
3321,-0.255,-0.010
3322,-0.245,-0.015
3323,-0.250,-0.005
3324,-0.265,0.020
3325,-0.260,0.030
3326,-0.245,0.030
3327,-0.240,0.030
3328,-0.240,0.035
3329,-0.240,0.040
3330,-0.245,0.045
3331,-0.275,0.050
3332,-0.305,0.050
3333,-0.310,0.050
3334,-0.300,0.040
3335,-0.290,0.035
3336,-0.280,0.030
3337,-0.270,-0.015
3338,-0.260,-0.060
3339,-0.270,-0.080
3340,-0.280,-0.100
3341,-0.295,-0.095
3342,-0.310,-0.090
3343,-0.295,-0.075
3344,-0.280,-0.060
3345,-0.280,-0.075
3346,-0.280,-0.090
3347,-0.285,-0.085
3348,-0.290,-0.080
3349,-0.280,-0.080
3350,-0.265,-0.080
3351,-0.245,-0.085
3352,-0.240,-0.080
3353,-0.265,-0.050
3354,-0.275,-0.035
3355,-0.260,-0.050
3356,-0.250,-0.060
3357,-0.245,-0.065
3358,-0.235,-0.070
3359,-0.220,-0.065
3360,-0.205,-0.060
3361,-0.195,-0.055
3362,-0.195,-0.055
3363,-0.205,-0.065
3364,-0.200,-0.070
3365,-0.185,-0.065
3366,-0.190,-0.060
3367,-0.205,-0.055
3368,-0.195,-0.045
3369,-0.175,-0.035
3370,0.045,0.020
3371,0.295,0.080
3372,0.610,0.030
3373,0.935,-0.035
3374,1.260,-0.265
3375,0.955,-0.040
3376,1.915,-0.755
3377,2.230,-0.990
3378,2.425,-0.900
3379,2.570,-0.830
3380,2.245,-0.980
3381,1.915,-1.100
3382,1.590,-1.025
3383,1.260,-0.955
3384,0.935,-0.900
3385,0.605,-0.815
3386,0.280,-0.605
3387,-0.010,-0.410
3388,-0.200,-0.260
3389,-0.315,-0.140
3390,-0.270,-0.080
3391,-0.240,-0.030
3392,-0.245,0.005
3393,-0.255,0.030
3394,-0.275,0.035
3395,-0.285,0.040
3396,-0.270,0.045
3397,-0.260,0.055
3398,-0.265,0.065
3399,-0.265,0.070
3400,-0.255,0.070
3401,-0.240,0.070
3402,-0.220,0.075
3403,-0.220,0.080
3404,-0.240,0.085
3405,-0.250,0.090
3406,-0.255,0.095
3407,-0.245,0.100
3408,-0.220,0.100
3409,-0.215,0.105
3410,-0.225,0.115
3411,-0.240,0.120
3412,-0.255,0.120
3413,-0.250,0.125
3414,-0.235,0.135
3415,-0.230,0.140
3416,-0.230,0.145
3417,-0.225,0.155
3418,-0.220,0.160
3419,-0.200,0.160
3420,-0.180,0.160
3421,-0.170,0.170
3422,-0.160,0.180
3423,-0.170,0.180
3424,-0.175,0.180
3425,-0.130,0.175
3426,-0.090,0.170
3427,-0.070,0.175
3428,-0.050,0.180
3429,-0.035,0.185
3430,-0.020,0.190
3431,0.000,0.190
3432,0.015,0.190
3433,0.035,0.185
3434,0.060,0.180
3435,0.090,0.180
3436,0.120,0.180
3437,0.145,0.185
3438,0.165,0.190
3439,0.175,0.190
3440,0.190,0.190
3441,0.210,0.185
3442,0.240,0.180
3443,0.285,0.175
3444,0.315,0.170
3445,0.350,0.175
3446,0.360,0.180
3447,0.355,0.175
3448,0.370,0.170
3449,0.400,0.170
3450,0.430,0.170
3451,0.455,0.165
3452,0.440,0.160
3453,0.415,0.155
3454,0.405,0.140
3455,0.395,0.125
3456,0.360,0.120
3457,0.325,0.115
3458,0.275,0.105
3459,0.220,0.090
3460,0.210,0.080
3461,0.200,0.070
3462,0.175,0.060
3463,0.145,0.050
3464,0.100,0.035
3465,0.060,0.020
3466,0.050,0.025
3467,0.040,0.030
3468,0.025,0.020
3469,0.010,0.010
3470,0.010,0.000
3471,0.010,-0.010
3472,0.010,-0.010
3473,0.005,-0.010
3474,-0.010,-0.005
3475,-0.020,0.000
3476,-0.015,-0.005
3477,-0.010,-0.010
3478,-0.015,-0.015
3479,-0.020,-0.020
3480,-0.005,-0.025
3481,-0.010,-0.025
3482,-0.030,-0.015
3483,-0.040,-0.010
3484,-0.040,-0.010
3485,-0.040,-0.010
3486,-0.035,-0.015
3487,-0.035,-0.020
3488,-0.045,-0.020
3489,-0.040,-0.020
3490,-0.025,-0.015
3491,-0.025,-0.010
3492,-0.035,-0.010
3493,-0.040,-0.010
3494,-0.040,-0.010
3495,-0.040,-0.015
3496,-0.040,-0.025
3497,-0.025,-0.025
3498,-0.005,-0.015
3499,-0.020,-0.010
3500,0.000,-0.010
3501,-0.030,-0.010
3502,-0.010,-0.010
3503,-0.020,-0.015
3504,-0.030,-0.020
3505,-0.020,-0.020
3506,-0.010,-0.020
3507,0.000,-0.020
3508,0.010,-0.020
3509,-0.020,-0.020
3510,-0.040,-0.020
3511,-0.045,-0.025
3512,-0.050,-0.030
3513,-0.035,-0.030
3514,-0.020,-0.030
3515,-0.030,-0.025
3516,-0.045,-0.020
3517,-0.065,-0.025
3518,-0.080,-0.030
3519,-0.080,-0.025
3520,-0.080,-0.020
3521,-0.075,-0.025
3522,-0.070,-0.030
3523,-0.065,-0.025
3524,-0.070,-0.020
3525,-0.090,-0.020
3526,-0.100,-0.020
3527,-0.105,-0.025
3528,-0.110,-0.030
3529,-0.110,-0.025
3530,-0.110,-0.020
3531,-0.105,-0.025
3532,-0.100,-0.030
3533,-0.100,-0.030
3534,-0.105,-0.030
3535,-0.115,-0.030
3536,-0.120,-0.030
3537,-0.120,-0.025
3538,-0.120,-0.025
3539,-0.120,-0.035
3540,-0.120,-0.040
3541,-0.125,-0.035
3542,-0.110,-0.030
3543,-0.090,-0.030
3544,-0.115,-0.030
3545,-0.140,-0.030
3546,-0.140,-0.030
3547,-0.140,-0.030
3548,-0.135,-0.040
3549,-0.130,-0.050
3550,-0.115,-0.040
3551,-0.105,-0.030
3552,-0.130,-0.030
3553,-0.150,-0.030
3554,-0.140,-0.030
3555,-0.130,-0.030
3556,-0.130,-0.030
3557,-0.130,-0.030
3558,-0.125,-0.025
3559,-0.120,-0.020
3560,-0.120,-0.025
3561,-0.125,-0.030
3562,-0.140,-0.030
3563,-0.155,-0.030
3564,-0.170,-0.030
3565,-0.170,-0.030
3566,-0.145,-0.030
3567,-0.125,-0.030
3568,-0.115,-0.025
3569,-0.125,-0.020
3570,-0.160,-0.025
3571,-0.170,-0.030
3572,-0.170,-0.030
3573,-0.165,-0.035
3574,-0.155,-0.045
3575,-0.135,-0.045
3576,-0.115,-0.035
3577,-0.110,-0.030
3578,-0.110,-0.030
3579,-0.100,-0.010
3580,-0.085,0.015
3581,-0.075,0.020
3582,-0.065,0.025
3583,-0.085,0.030
3584,-0.120,0.030
3585,-0.135,0.040
3586,-0.150,0.050
3587,-0.160,0.035
3588,-0.170,0.020
3589,-0.150,0.015
3590,-0.130,0.010
3591,-0.125,-0.010
3592,-0.120,-0.035
3593,-0.135,-0.070
3594,-0.150,-0.100
3595,-0.150,-0.115
3596,-0.150,-0.125
3597,-0.160,-0.105
3598,-0.170,-0.090
3599,-0.170,-0.090
3600,-0.160,-0.090
3601,-0.130,-0.090
3602,-0.115,-0.090
3603,-0.135,-0.085
3604,-0.155,-0.085
3605,-0.180,-0.100
3606,-0.175,-0.105
3607,-0.140,-0.095
3608,-0.120,-0.085
3609,-0.120,-0.070
3610,-0.120,-0.060
3611,-0.125,-0.065
3612,-0.120,-0.070
3613,-0.105,-0.070
3614,-0.100,-0.065
3615,-0.105,-0.055
3616,-0.110,-0.050
3617,-0.115,-0.055
3618,-0.100,-0.060
3619,-0.075,-0.065
3620,-0.070,-0.070
3621,-0.070,-0.070
3622,-0.110,-0.070
3623,-0.155,-0.065
3624,-0.050,-0.035
3625,-0.160,-0.060
3626,0.395,0.050
3627,0.720,0.095
3628,1.045,-0.055
3629,1.370,-0.210
3630,1.695,-0.460
3631,2.020,-0.695
3632,2.345,-0.835
3633,2.550,-0.950
3634,2.225,-0.970
3635,1.895,-1.000
3636,1.570,-1.045
3637,1.240,-1.075
3638,0.915,-1.050
3639,0.585,-0.965
3640,0.255,-0.755
3641,-0.015,-0.560
3642,-0.200,-0.395
3643,-0.295,-0.255
3644,-0.245,-0.135
3645,-0.210,-0.045
3646,-0.185,0.010
3647,-0.170,0.040
3648,-0.175,0.045
3649,-0.185,0.055
3650,-0.195,0.065
3651,-0.200,0.070
3652,-0.200,0.075
3653,-0.180,0.080
3654,-0.150,0.085
3655,-0.140,0.090
3656,-0.145,0.095
3657,-0.165,0.100
3658,-0.185,0.100
3659,-0.190,0.100
3660,-0.185,0.100
3661,-0.175,0.100
3662,-0.165,0.100
3663,-0.155,0.105
3664,-0.145,0.115
3665,-0.140,0.120
3666,-0.145,0.120
3667,-0.145,0.125
3668,-0.140,0.130
3669,-0.145,0.130
3670,-0.150,0.130
3671,-0.140,0.125
3672,-0.130,0.120
3673,-0.115,0.130
3674,-0.100,0.140
3675,-0.100,0.140
3676,-0.100,0.140
3677,-0.080,0.150
3678,-0.055,0.160
3679,-0.035,0.155
3680,-0.020,0.150
3681,-0.015,0.155
3682,-0.005,0.160
3683,0.020,0.160
3684,0.050,0.160
3685,0.075,0.165
3686,0.090,0.170
3687,0.090,0.170
3688,0.110,0.165
3689,0.155,0.155
3690,0.190,0.150
3691,0.215,0.150
3692,0.230,0.150
3693,0.230,0.145
3694,0.245,0.140
3695,0.280,0.140
3696,0.305,0.135
3697,0.330,0.125
3698,0.355,0.125
3699,0.380,0.135
3700,0.410,0.140
3701,0.440,0.135
3702,0.455,0.130
3703,0.465,0.125
3704,0.475,0.120
3705,0.485,0.120
3706,0.495,0.115
3707,0.505,0.105
3708,0.505,0.100
3709,0.490,0.100
3710,0.435,0.090
3711,0.380,0.080
3712,0.350,0.070
3713,0.320,0.060
3714,0.295,0.045
3715,0.265,0.030
3716,0.225,0.025
3717,0.185,0.020
3718,0.145,0.010
3719,0.105,0.000
3720,0.085,-0.005
3721,0.065,-0.010
3722,0.040,-0.010
3723,0.020,-0.010
3724,0.015,-0.020
3725,0.015,-0.030
3726,0.030,-0.025
3727,0.030,-0.020
3728,0.000,-0.025
3729,-0.015,-0.030
3730,0.010,-0.025
3731,0.020,-0.020
3732,0.020,-0.020
3733,0.020,-0.020
3734,0.015,-0.020
3735,0.010,-0.020
3736,0.005,-0.020
3737,0.000,-0.020
3738,0.000,-0.020
3739,0.000,-0.020
3740,-0.005,-0.020
3741,-0.005,-0.020
3742,0.005,-0.015
3743,0.015,-0.010
3744,0.025,-0.015
3745,0.010,-0.020
3746,-0.015,-0.015
3747,-0.015,-0.010
3748,-0.005,-0.005
3749,0.000,0.000
3750,0.000,0.000
3751,0.000,-0.005
3752,0.000,0.000
3753,0.010,-0.005
3754,0.020,-0.010
3755,0.020,0.000
3756,0.020,0.010
3757,0.000,0.005
3758,-0.020,0.000
3759,0.000,-0.005
3760,0.025,-0.010
3761,0.050,0.000
3762,0.060,0.010
3763,0.020,0.010
3764,-0.010,0.010
3765,-0.005,0.010
3766,0.000,0.010
3767,0.010,0.000
3768,0.020,-0.010
3769,0.015,-0.010
3770,0.010,-0.010
3771,-0.005,-0.015
3772,-0.015,-0.015
3773,-0.025,-0.005
3774,-0.035,-0.005
3775,-0.045,-0.015
3776,-0.045,-0.020
3777,-0.030,-0.020
3778,-0.025,-0.020
3779,-0.035,-0.020
3780,-0.050,-0.020
3781,-0.070,-0.025
3782,-0.080,-0.030
3783,-0.085,-0.025
3784,-0.070,-0.020
3785,-0.045,-0.020
3786,-0.065,-0.020
3787,-0.095,-0.025
3788,-0.090,-0.030
3789,-0.075,-0.025
3790,-0.080,-0.020
3791,-0.095,-0.025
3792,-0.105,-0.030
3793,-0.110,-0.030
3794,-0.100,-0.035
3795,-0.090,-0.040
3796,-0.100,-0.035
3797,-0.110,-0.030
3798,-0.120,-0.035
3799,-0.130,-0.040
3800,-0.115,-0.045
3801,-0.100,-0.050
3802,-0.110,-0.055
3803,-0.120,-0.060
3804,-0.130,-0.055
3805,-0.135,-0.050
3806,-0.110,-0.050
3807,-0.095,-0.050
3808,-0.110,-0.055
3809,-0.120,-0.060
3810,-0.130,-0.060
3811,-0.140,-0.060
3812,-0.140,-0.065
3813,-0.130,-0.070
3814,-0.110,-0.070
3815,-0.105,-0.070
3816,-0.120,-0.065
3817,-0.130,-0.060
3818,-0.135,-0.065
3819,-0.135,-0.070
3820,-0.125,-0.065
3821,-0.120,-0.060
3822,-0.120,-0.065
3823,-0.115,-0.070
3824,-0.105,-0.070
3825,-0.120,-0.070
3826,-0.145,-0.065
3827,-0.150,-0.065
3828,-0.150,-0.075
3829,-0.145,-0.085
3830,-0.135,-0.095
3831,-0.115,-0.100
3832,-0.095,-0.095
3833,-0.100,-0.095
3834,-0.120,-0.110
3835,-0.110,-0.085
3836,-0.100,-0.060
3837,-0.075,-0.055
3838,-0.050,-0.050
3839,-0.050,-0.045
3840,-0.055,-0.040
3841,-0.100,-0.040
3842,-0.140,-0.040
3843,-0.155,-0.040
3844,-0.170,-0.040
3845,-0.175,-0.045
3846,-0.170,-0.050
3847,-0.135,-0.060
3848,-0.115,-0.080
3849,-0.130,-0.125
3850,-0.150,-0.155
3851,-0.180,-0.170
3852,-0.200,-0.175
3853,-0.200,-0.160
3854,-0.200,-0.150
3855,-0.185,-0.150
3856,-0.185,-0.150
3857,-0.195,-0.155
3858,-0.200,-0.160
3859,-0.200,-0.155
3860,-0.200,-0.150
3861,-0.200,-0.145
3862,-0.190,-0.145
3863,-0.170,-0.155
3864,-0.175,-0.140
3865,-0.200,-0.110
3866,-0.205,-0.100
3867,-0.195,-0.105
3868,-0.190,-0.110
3869,-0.190,-0.105
3870,-0.185,-0.100
3871,-0.175,-0.100
3872,-0.170,-0.100
3873,-0.175,-0.105
3874,-0.155,-0.110
3875,-0.180,-0.110
3876,-0.120,-0.095
3877,-0.120,-0.090
3878,-0.145,-0.090
3879,-0.170,-0.090
3880,-0.190,-0.095
3881,-0.185,-0.095
3882,0.025,-0.050
3883,0.260,-0.010
3884,0.585,0.000
3885,0.910,-0.040
3886,1.235,-0.255
3887,1.560,-0.480
3888,1.885,-0.740
3889,2.210,-0.910
3890,2.535,-0.880
3891,2.620,-0.905
3892,2.290,-1.035
3893,1.965,-1.095
3894,1.635,-1.045
3895,1.310,-1.020
3896,0.980,-1.015
3897,0.655,-0.895
3898,0.325,-0.665
3899,0.055,-0.475
3900,-0.180,-0.315
3901,-0.250,-0.200
3902,-0.215,-0.110
3903,-0.200,-0.055
3904,-0.195,-0.015
3905,-0.190,0.005
3906,-0.185,0.015
3907,-0.180,0.020
3908,-0.180,0.020
3909,-0.180,0.020
3910,-0.175,0.025
3911,-0.170,0.030
3912,-0.170,0.035
3913,-0.175,0.040
3914,-0.185,0.045
3915,-0.190,0.050
3916,-0.185,0.055
3917,-0.185,0.055
3918,-0.190,0.050
3919,-0.175,0.060
3920,-0.160,0.070
3921,-0.170,0.070
3922,-0.180,0.070
3923,-0.185,0.075
3924,-0.190,0.080
3925,-0.185,0.090
3926,-0.180,0.100
3927,-0.170,0.100
3928,-0.160,0.100
3929,-0.155,0.105
3930,-0.150,0.110
3931,-0.160,0.120
3932,-0.165,0.130
3933,-0.145,0.130
3934,-0.130,0.130
3935,-0.125,0.130
3936,-0.110,0.130
3937,-0.085,0.135
3938,-0.060,0.145
3939,-0.040,0.155
3940,-0.030,0.160
3941,-0.035,0.165
3942,-0.025,0.170
3943,0.000,0.165
3944,0.035,0.160
3945,0.075,0.165
3946,0.100,0.175
3947,0.115,0.185
3948,0.135,0.190
3949,0.160,0.185
3950,0.170,0.180
3951,0.175,0.180
3952,0.205,0.180
3953,0.245,0.175
3954,0.275,0.170
3955,0.305,0.165
3956,0.315,0.160
3957,0.325,0.165
3958,0.345,0.170
3959,0.370,0.170
3960,0.395,0.165
3961,0.420,0.160
3962,0.440,0.160
3963,0.460,0.160
3964,0.450,0.155
3965,0.440,0.150
3966,0.405,0.135
3967,0.380,0.120
3968,0.360,0.125
3969,0.330,0.130
3970,0.290,0.115
3971,0.255,0.100
3972,0.225,0.090
3973,0.190,0.080
3974,0.145,0.075
3975,0.110,0.070
3976,0.085,0.065
3977,0.060,0.055
3978,0.035,0.040
3979,0.020,0.030
3980,0.015,0.025
3981,0.000,0.020
3982,-0.025,0.015
3983,-0.045,0.010
3984,-0.060,0.005
3985,-0.060,0.005
3986,-0.040,0.020
3987,-0.040,0.025
3988,-0.055,0.015
3989,-0.050,0.010
3990,-0.035,0.005
3991,-0.030,0.005
3992,-0.035,0.015
3993,-0.050,0.020
3994,-0.065,0.015
3995,-0.070,0.010
3996,-0.065,0.010
3997,-0.060,0.005
3998,-0.055,-0.005
3999,-0.055,0.000
4000,-0.050,-0.010
4001,-0.070,0.020
4002,-0.070,0.020
4003,-0.075,0.015
4004,-0.080,0.010
4005,-0.080,0.010
4006,-0.080,0.010
4007,-0.065,0.005
4008,-0.050,0.000
4009,-0.070,0.000
4010,-0.090,0.000
4011,-0.095,0.005
4012,-0.100,0.010
4013,-0.090,0.010
4014,-0.075,0.010
4015,-0.050,0.010
4016,-0.035,0.010
4017,-0.055,0.010
4018,-0.070,0.010
4019,-0.080,0.005
4020,-0.090,0.000
4021,-0.075,0.005
4022,-0.070,0.010
4023,-0.070,0.010
4024,-0.070,0.010
4025,-0.070,0.005
4026,-0.075,0.000
4027,-0.090,0.000
4028,-0.105,0.000
4029,-0.115,-0.005
4030,-0.120,-0.010
4031,-0.115,-0.010
4032,-0.110,-0.010
4033,-0.110,-0.015
4034,-0.115,-0.020
4035,-0.125,-0.020
4036,-0.145,-0.020
4037,-0.165,-0.020
4038,-0.160,-0.020
4039,-0.145,-0.015
4040,-0.155,-0.015
4041,-0.175,-0.025
4042,-0.155,-0.030
4043,-0.130,-0.030
4044,-0.140,-0.025
4045,-0.150,-0.020
4046,-0.170,-0.025
4047,-0.190,-0.030
4048,-0.195,-0.025
4049,-0.200,-0.020
4050,-0.190,-0.030
4051,-0.180,-0.040
4052,-0.170,-0.035
4053,-0.160,-0.030
4054,-0.175,-0.025
4055,-0.190,-0.020
4056,-0.190,-0.025
4057,-0.195,-0.030
4058,-0.210,-0.030
4059,-0.210,-0.030
4060,-0.185,-0.025
4061,-0.170,-0.020
4062,-0.175,-0.025
4063,-0.190,-0.030
4064,-0.210,-0.025
4065,-0.215,-0.020
4066,-0.200,-0.025
4067,-0.190,-0.030
4068,-0.185,-0.035
4069,-0.180,-0.035
4070,-0.180,-0.025
4071,-0.190,-0.020
4072,-0.210,-0.015
4073,-0.220,-0.010
4074,-0.215,-0.015
4075,-0.210,-0.020
4076,-0.210,-0.015
4077,-0.200,-0.010
4078,-0.185,-0.010
4079,-0.195,-0.010
4080,-0.215,-0.010
4081,-0.220,-0.015
4082,-0.225,-0.025
4083,-0.225,-0.030
4084,-0.210,-0.020
4085,-0.190,-0.025
4086,-0.170,-0.030
4087,-0.155,0.000
4088,-0.140,0.030
4089,-0.155,0.030
4090,-0.170,0.030
4091,-0.180,0.035
4092,-0.195,0.040
4093,-0.220,0.040
4094,-0.240,0.040
4095,-0.230,0.040
4096,-0.220,0.040
4097,-0.220,0.040
4098,-0.220,0.040
4099,-0.225,0.035
4100,-0.230,0.020
4101,-0.235,-0.015
4102,-0.240,-0.050
4103,-0.240,-0.080
4104,-0.240,-0.090
4105,-0.255,-0.065
4106,-0.260,-0.050
4107,-0.265,-0.050
4108,-0.270,-0.050
4109,-0.275,-0.045
4110,-0.280,-0.040
4111,-0.280,-0.040
4112,-0.280,-0.040
4113,-0.275,-0.040
4114,-0.260,-0.040
4115,-0.235,-0.045
4116,-0.245,-0.030
4117,-0.275,0.000
4118,-0.280,0.000
4119,-0.280,-0.015
4120,-0.260,-0.020
4121,-0.235,-0.015
4122,-0.215,-0.010
4123,-0.195,-0.015
4124,-0.215,-0.020
4125,-0.190,-0.020
4126,-0.230,-0.005
4127,-0.210,0.000
4128,-0.215,0.000
4129,-0.220,0.000
4130,-0.225,0.000
4131,-0.230,0.000
4132,-0.235,0.005
4133,-0.205,0.020
4134,0.005,0.075
4135,0.245,0.120
4136,0.570,0.110
4137,0.895,0.040
4138,1.220,-0.185
4139,1.545,-0.420
4140,1.870,-0.665
4141,2.195,-0.805
4142,2.520,-0.760
4143,2.575,-0.780
4144,2.245,-0.910
4145,1.920,-0.960
4146,1.590,-0.915
4147,1.265,-0.885
4148,0.935,-0.875
4149,0.610,-0.750
4150,0.280,-0.530
4151,-0.005,-0.350
4152,-0.260,-0.205
4153,-0.325,-0.100
4154,-0.285,-0.025
4155,-0.265,0.025
4156,-0.255,0.065
4157,-0.250,0.080
4158,-0.255,0.085
4159,-0.270,0.090
4160,-0.285,0.095
4161,-0.270,0.100
4162,-0.245,0.100
4163,-0.255,0.100
4164,-0.275,0.105
4165,-0.280,0.110
4166,-0.280,0.115
4167,-0.280,0.115
4168,-0.280,0.110
4169,-0.290,0.115
4170,-0.300,0.120
4171,-0.300,0.125
4172,-0.300,0.130
4173,-0.280,0.135
4174,-0.260,0.140
4175,-0.270,0.145
4176,-0.280,0.150
4177,-0.290,0.160
4178,-0.295,0.170
4179,-0.275,0.170
4180,-0.260,0.170
4181,-0.280,0.175
4182,-0.280,0.180
4183,-0.250,0.180
4184,-0.225,0.180
4185,-0.205,0.185
4186,-0.190,0.190
4187,-0.195,0.200
4188,-0.200,0.210
4189,-0.200,0.210
4190,-0.175,0.210
4191,-0.130,0.205
4192,-0.095,0.200
4193,-0.070,0.205
4194,-0.060,0.215
4195,-0.055,0.225
4196,-0.045,0.230
4197,-0.035,0.230
4198,-0.010,0.225
4199,0.020,0.215
4200,0.070,0.210
4201,0.120,0.215
4202,0.130,0.220
4203,0.135,0.220
4204,0.145,0.220
4205,0.155,0.225
4206,0.175,0.230
4207,0.195,0.225
4208,0.250,0.220
4209,0.310,0.210
4210,0.315,0.215
4211,0.320,0.220
4212,0.320,0.210
4213,0.320,0.200
4214,0.330,0.195
4215,0.340,0.190
4216,0.345,0.180
4217,0.350,0.170
4218,0.335,0.165
4219,0.310,0.160
4220,0.265,0.150
4221,0.220,0.140
4222,0.180,0.130
4223,0.145,0.115
4224,0.120,0.100
4225,0.090,0.085
4226,0.065,0.070
4227,0.035,0.060
4228,0.000,0.055
4229,-0.030,0.050
4230,-0.055,0.035
4231,-0.075,0.030
4232,-0.090,0.025
4233,-0.105,0.020
4234,-0.115,0.015
4235,-0.115,0.010
4236,-0.105,0.005
4237,-0.100,0.000
4238,-0.100,0.000
4239,-0.100,0.000
4240,-0.105,0.000
4241,-0.115,0.000
4242,-0.125,-0.005
4243,-0.130,-0.020
4244,-0.125,-0.035
4245,-0.120,-0.030
4246,-0.120,-0.015
4247,-0.125,-0.015
4248,-0.135,-0.025
4249,-0.140,-0.030
4250,-0.140,-0.030
4251,-0.145,-0.030
4252,-0.150,-0.040
4253,-0.140,-0.035
4254,-0.130,-0.030
4255,-0.130,-0.030
4256,-0.130,-0.030
4257,-0.140,-0.030
4258,-0.150,-0.030
4259,-0.140,-0.035
4260,-0.125,-0.040
4261,-0.100,-0.040
4262,-0.085,-0.040
4263,-0.110,-0.045
4264,-0.130,-0.050
4265,-0.140,-0.050
4266,-0.150,-0.050
4267,-0.155,-0.050
4268,-0.160,-0.055
4269,-0.160,-0.070
4270,-0.160,-0.080
4271,-0.145,-0.065
4272,-0.145,-0.060
4273,-0.155,-0.060
4274,-0.165,-0.065
4275,-0.175,-0.075
4276,-0.185,-0.080
4277,-0.195,-0.085
4278,-0.190,-0.090
4279,-0.170,-0.095
4280,-0.170,-0.100
4281,-0.185,-0.100
4282,-0.205,-0.100
4283,-0.225,-0.100
4284,-0.225,-0.105
4285,-0.215,-0.115
4286,-0.210,-0.120
4287,-0.205,-0.115
4288,-0.200,-0.110
4289,-0.205,-0.110
4290,-0.215,-0.110
4291,-0.225,-0.110
4292,-0.230,-0.110
4293,-0.230,-0.110
4294,-0.225,-0.115
4295,-0.220,-0.120
4296,-0.210,-0.120
4297,-0.200,-0.120
4298,-0.215,-0.110
4299,-0.230,-0.100
4300,-0.240,-0.090
4301,-0.245,-0.080
4302,-0.220,-0.075
4303,-0.205,-0.070
4304,-0.235,-0.075
4305,-0.260,-0.080
4306,-0.260,-0.080
4307,-0.255,-0.080
4308,-0.230,-0.070
4309,-0.210,-0.060
4310,-0.220,-0.060
4311,-0.235,-0.060
4312,-0.250,-0.060
4313,-0.255,-0.060
4314,-0.240,-0.060
4315,-0.225,-0.060
4316,-0.215,-0.060
4317,-0.215,-0.060
4318,-0.225,-0.060
4319,-0.230,-0.060
4320,-0.235,-0.060
4321,-0.240,-0.060
4322,-0.235,-0.065
4323,-0.230,-0.070
4324,-0.225,-0.075
4325,-0.215,-0.080
4326,-0.205,-0.075
4327,-0.230,-0.070
4328,-0.270,-0.075
4329,-0.270,-0.085
4330,-0.255,-0.095
4331,-0.235,-0.100
4332,-0.215,-0.100
4333,-0.215,-0.100
4334,-0.230,-0.110
4335,-0.255,-0.110
4336,-0.280,-0.110
4337,-0.260,-0.120
4338,-0.240,-0.130
4339,-0.225,-0.115
4340,-0.210,-0.100
4341,-0.200,-0.080
4342,-0.190,-0.060
4343,-0.200,-0.065
4344,-0.220,-0.070
4345,-0.265,-0.065
4346,-0.300,-0.060
4347,-0.300,-0.055
4348,-0.290,-0.050
4349,-0.260,-0.045
4350,-0.240,-0.045
4351,-0.250,-0.060
4352,-0.275,-0.085
4353,-0.315,-0.125
4354,-0.330,-0.155
4355,-0.295,-0.170
4356,-0.285,-0.180
4357,-0.295,-0.180
4358,-0.300,-0.175
4359,-0.300,-0.165
4360,-0.305,-0.160
4361,-0.320,-0.160
4362,-0.320,-0.155
4363,-0.300,-0.145
4364,-0.305,-0.150
4365,-0.330,-0.165
4366,-0.325,-0.175
4367,-0.295,-0.185
4368,-0.280,-0.160
4369,-0.265,-0.120
4370,-0.270,-0.115
4371,-0.285,-0.125
4372,-0.275,-0.130
4373,-0.255,-0.130
4374,-0.250,-0.130
4375,-0.250,-0.130
4376,-0.235,-0.125
4377,-0.220,-0.110
4378,-0.200,-0.110
4379,-0.180,-0.110
4380,-0.195,-0.110
4381,-0.210,-0.110
4382,-0.230,-0.110
4383,-0.250,-0.110
4384,-0.250,-0.115
4385,-0.215,-0.115
4386,-0.050,-0.070
4387,0.160,-0.025
4388,0.485,0.035
4389,0.810,0.025
4390,1.135,-0.155
4391,1.460,-0.365
4392,1.785,-0.625
4393,2.110,-0.815
4394,2.435,-0.900
4395,2.460,-0.970
4396,2.130,-1.015
4397,1.805,-1.040
4398,1.475,-1.045
4399,1.150,-1.045
4400,0.820,-1.035
4401,0.495,-0.915
4402,0.165,-0.720
4403,-0.100,-0.550
4404,-0.340,-0.390
4405,-0.380,-0.250
4406,-0.335,-0.115
4407,-0.305,-0.035
4408,-0.280,0.025
4409,-0.270,0.040
4410,-0.270,0.045
4411,-0.270,0.055
4412,-0.270,0.065
4413,-0.265,0.075
4414,-0.255,0.085
4415,-0.255,0.090
4416,-0.265,0.095
4417,-0.270,0.105
4418,-0.270,0.110
4419,-0.255,0.110
4420,-0.240,0.110
4421,-0.245,0.120
4422,-0.250,0.130
4423,-0.260,0.135
4424,-0.270,0.140
4425,-0.260,0.145
4426,-0.250,0.150
4427,-0.255,0.150
4428,-0.260,0.150
4429,-0.250,0.155
4430,-0.240,0.160
4431,-0.230,0.170
4432,-0.220,0.180
4433,-0.220,0.185
4434,-0.225,0.190
4435,-0.240,0.195
4436,-0.240,0.200
4437,-0.215,0.200
4438,-0.185,0.200
4439,-0.155,0.205
4440,-0.150,0.210
4441,-0.170,0.215
4442,-0.175,0.220
4443,-0.160,0.225
4444,-0.135,0.230
4445,-0.110,0.230
4446,-0.090,0.235
4447,-0.070,0.245
4448,-0.040,0.250
4449,-0.010,0.245
4450,0.000,0.240
4451,0.000,0.240
4452,0.020,0.240
4453,0.045,0.245
4454,0.080,0.250
4455,0.115,0.245
4456,0.145,0.240
4457,0.175,0.240
4458,0.180,0.240
4459,0.190,0.230
4460,0.210,0.230
4461,0.230,0.230
4462,0.270,0.225
4463,0.310,0.220
4464,0.335,0.225
4465,0.360,0.230
4466,0.370,0.225
4467,0.380,0.220
4468,0.390,0.210
4469,0.395,0.200
4470,0.360,0.195
4471,0.330,0.190
4472,0.335,0.180
4473,0.335,0.170
4474,0.310,0.160
4475,0.270,0.150
4476,0.220,0.140
4477,0.180,0.130
4478,0.150,0.125
4479,0.115,0.115
4480,0.080,0.090
4481,0.050,0.080
4482,0.030,0.080
4483,0.015,0.075
4484,0.005,0.065
4485,-0.005,0.060
4486,-0.020,0.065
4487,-0.040,0.070
4488,-0.060,0.065
4489,-0.065,0.060
4490,-0.055,0.055
4491,-0.045,0.050
4492,-0.035,0.045
4493,-0.030,0.040
4494,-0.035,0.040
4495,-0.060,0.040
4496,-0.085,0.045
4497,-0.080,0.045
4498,-0.065,0.035
4499,-0.060,0.030
4500,-0.060,0.030
4501,-0.060,0.040
4502,-0.060,0.040
4503,-0.075,0.040
4504,-0.090,0.040
4505,-0.080,0.040
4506,-0.070,0.040
4507,-0.065,0.040
4508,-0.060,0.040
4509,-0.045,0.050
4510,-0.035,0.060
4511,-0.060,0.050
4512,-0.080,0.040
4513,-0.080,0.045
4514,-0.075,0.050
4515,-0.060,0.050
4516,-0.050,0.050
4517,-0.060,0.050
4518,-0.070,0.050
4519,-0.060,0.050
4520,-0.050,0.050
4521,-0.065,0.045
4522,-0.070,0.040
4523,-0.075,0.045
4524,-0.075,0.045
4525,-0.065,0.035
4526,-0.060,0.030
4527,-0.055,0.035
4528,-0.070,0.040
4529,-0.100,0.035
4530,-0.110,0.030
4531,-0.105,0.035
4532,-0.100,0.040
4533,-0.095,0.035
4534,-0.100,0.030
4535,-0.115,0.025
4536,-0.120,0.020
4537,-0.115,0.025
4538,-0.115,0.030
4539,-0.125,0.030
4540,-0.140,0.030
4541,-0.155,0.025
4542,-0.160,0.015
4543,-0.160,0.010
4544,-0.150,0.010
4545,-0.140,0.010
4546,-0.155,0.015
4547,-0.170,0.020
4548,-0.170,0.020
4549,-0.170,0.020
4550,-0.180,0.015
4551,-0.190,0.010
4552,-0.170,0.010
4553,-0.150,0.010
4554,-0.160,0.010
4555,-0.170,0.010
4556,-0.190,0.010
4557,-0.205,0.010
4558,-0.225,0.005
4559,-0.235,0.000
4560,-0.220,0.000
4561,-0.200,0.000
4562,-0.170,0.000
4563,-0.165,0.000
4564,-0.195,0.005
4565,-0.215,0.010
4566,-0.230,0.005
4567,-0.235,0.000
4568,-0.225,0.000
4569,-0.215,0.000
4570,-0.195,-0.005
4571,-0.190,-0.010
4572,-0.195,-0.005
4573,-0.200,0.000
4574,-0.205,0.005
4575,-0.210,0.010
4576,-0.210,0.010
4577,-0.210,0.010
4578,-0.205,0.005
4579,-0.200,0.000
4580,-0.200,-0.005
4581,-0.210,-0.005
4582,-0.225,0.005
4583,-0.225,0.010
4584,-0.210,0.010
4585,-0.195,0.005
4586,-0.180,0.000
4587,-0.185,0.000
4588,-0.190,0.000
4589,-0.195,0.000
4590,-0.200,0.000
4591,-0.210,0.000
4592,-0.220,0.000
4593,-0.200,0.000
4594,-0.185,0.000
4595,-0.205,-0.005
4596,-0.215,-0.010
4597,-0.190,-0.015
4598,-0.165,-0.015
4599,-0.150,0.005
4600,-0.140,0.025
4601,-0.140,0.040
4602,-0.140,0.050
4603,-0.130,0.050
4604,-0.140,0.050
4605,-0.195,0.050
4606,-0.210,0.050
4607,-0.190,0.055
4608,-0.185,0.060
4609,-0.195,0.055
4610,-0.200,0.045
4611,-0.195,0.030
4612,-0.190,-0.005
4613,-0.195,-0.045
4614,-0.190,-0.070
4615,-0.175,-0.095
4616,-0.170,-0.085
4617,-0.175,-0.065
4618,-0.195,-0.060
4619,-0.215,-0.060
4620,-0.220,-0.060
4621,-0.225,-0.065
4622,-0.210,-0.070
4623,-0.185,-0.075
4624,-0.180,-0.080
4625,-0.180,-0.080
4626,-0.180,-0.090
4627,-0.170,-0.090
4628,-0.195,-0.050
4629,-0.220,-0.010
4630,-0.210,-0.035
4631,-0.200,-0.060
4632,-0.180,-0.055
4633,-0.160,-0.050
4634,-0.180,-0.055
4635,-0.200,-0.060
4636,-0.190,-0.055
4637,-0.180,-0.050
4638,-0.170,-0.045
4639,-0.160,-0.040
4640,-0.155,-0.045
4641,-0.160,-0.050
4642,-0.190,-0.050
4643,-0.220,-0.050
4644,-0.250,-0.050
4645,-0.180,-0.030
4646,0.015,0.015
4647,0.275,0.050
4648,0.600,0.070
4649,0.925,-0.040
4650,1.250,-0.255
4651,1.575,-0.490
4652,1.900,-0.740
4653,2.225,-0.820
4654,2.550,-0.805
4655,2.420,-0.900
4656,2.095,-1.050
4657,1.765,-1.060
4658,1.440,-1.010
4659,1.110,-0.985
4660,0.785,-0.965
4661,0.455,-0.770
4662,0.130,-0.540
4663,-0.090,-0.365
4664,-0.295,-0.205
4665,-0.305,-0.125
4666,-0.295,-0.055
4667,-0.265,0.000
4668,-0.240,0.050
4669,-0.245,0.050
4670,-0.250,0.050
4671,-0.255,0.060
4672,-0.260,0.070
4673,-0.245,0.065
4674,-0.230,0.060
4675,-0.240,0.070
4676,-0.250,0.080
4677,-0.235,0.085
4678,-0.220,0.090
4679,-0.225,0.095
4680,-0.230,0.100
4681,-0.240,0.105
4682,-0.250,0.110
4683,-0.240,0.115
4684,-0.220,0.120
4685,-0.190,0.125
4686,-0.180,0.130
4687,-0.205,0.135
4688,-0.220,0.140
4689,-0.225,0.145
4690,-0.225,0.150
4691,-0.210,0.150
4692,-0.190,0.155
4693,-0.170,0.170
4694,-0.160,0.180
4695,-0.155,0.175
4696,-0.150,0.170
4697,-0.155,0.170
4698,-0.155,0.175
4699,-0.145,0.185
4700,-0.120,0.190
4701,-0.095,0.190
4702,-0.065,0.190
4703,-0.035,0.195
4704,-0.030,0.200
4705,-0.030,0.205
4706,-0.015,0.215
4707,0.005,0.225
4708,0.020,0.230
4709,0.040,0.220
4710,0.080,0.220
4711,0.120,0.220
4712,0.140,0.220
4713,0.160,0.220
4714,0.155,0.225
4715,0.150,0.230
4716,0.175,0.225
4717,0.205,0.220
4718,0.255,0.220
4719,0.295,0.220
4720,0.325,0.220
4721,0.350,0.220
4722,0.340,0.215
4723,0.340,0.210
4724,0.375,0.210
4725,0.405,0.210
4726,0.425,0.205
4727,0.435,0.200
4728,0.420,0.190
4729,0.395,0.180
4730,0.360,0.175
4731,0.340,0.165
4732,0.335,0.155
4733,0.305,0.145
4734,0.260,0.135
4735,0.215,0.120
4736,0.170,0.100
4737,0.140,0.090
4738,0.125,0.090
4739,0.085,0.090
4740,0.035,0.085
4741,0.005,0.080
4742,-0.015,0.075
4743,-0.025,0.070
4744,-0.035,0.065
4745,-0.045,0.060
4746,-0.055,0.055
4747,-0.060,0.050
4748,-0.065,0.050
4749,-0.070,0.050
4750,-0.070,0.050
4751,-0.100,0.040
4752,-0.120,0.040
4753,-0.115,0.040
4754,-0.110,0.040
4755,-0.085,0.045
4756,-0.060,0.050
4757,-0.095,0.055
4758,-0.120,0.060
4759,-0.130,0.060
4760,-0.140,0.060
4761,-0.140,0.060
4762,-0.135,0.060
4763,-0.115,0.055
4764,-0.095,0.050
4765,-0.080,0.055
4766,-0.080,0.060
4767,-0.110,0.060
4768,-0.130,0.060
4769,-0.135,0.060
4770,-0.140,0.060
4771,-0.125,0.045
4772,-0.105,0.040
4773,-0.075,0.045
4774,-0.080,0.050
4775,-0.120,0.050
4776,-0.140,0.050
4777,-0.135,0.045
4778,-0.120,0.040
4779,-0.100,0.045
4780,-0.090,0.050
4781,-0.090,0.045
4782,-0.105,0.040
4783,-0.130,0.035
4784,-0.130,0.030
4785,-0.115,0.030
4786,-0.110,0.030
4787,-0.110,0.030
4788,-0.115,0.030
4789,-0.125,0.025
4790,-0.125,0.020
4791,-0.115,0.015
4792,-0.135,0.015
4793,-0.160,0.020
4794,-0.165,0.015
4795,-0.170,0.010
4796,-0.160,0.010
4797,-0.150,0.010
4798,-0.150,0.005
4799,-0.150,0.000
4800,-0.170,0.005
4801,-0.190,0.010
4802,-0.180,0.005
4803,-0.170,0.000
4804,-0.185,0.005
4805,-0.200,0.010
4806,-0.205,0.005
4807,-0.205,0.000
4808,-0.190,0.000
4809,-0.180,0.000
4810,-0.175,0.005
4811,-0.175,0.010
4812,-0.195,0.010
4813,-0.210,0.005
4814,-0.205,-0.005
4815,-0.200,-0.010
4816,-0.195,-0.005
4817,-0.190,0.000
4818,-0.195,0.000
4819,-0.195,0.000
4820,-0.175,-0.005
4821,-0.180,-0.010
4822,-0.200,-0.005
4823,-0.210,0.000
4824,-0.205,0.000
4825,-0.180,0.000
4826,-0.155,0.000
4827,-0.170,0.000
4828,-0.195,0.000
4829,-0.210,0.000
4830,-0.225,0.000
4831,-0.225,0.000
4832,-0.215,0.000
4833,-0.200,0.000
4834,-0.180,0.000
4835,-0.200,0.005
4836,-0.220,0.010
4837,-0.225,0.010
4838,-0.230,0.010
4839,-0.235,0.010
4840,-0.240,0.010
4841,-0.215,0.010
4842,-0.190,0.010
4843,-0.190,0.010
4844,-0.195,0.010
4845,-0.225,0.010
4846,-0.250,0.010
4847,-0.255,0.010
4848,-0.260,0.005
4849,-0.250,-0.010
4850,-0.235,-0.020
4851,-0.220,-0.015
4852,-0.215,-0.010
4853,-0.235,-0.020
4854,-0.245,-0.020
4855,-0.230,0.015
4856,-0.210,0.030
4857,-0.190,0.035
4858,-0.180,0.040
4859,-0.180,0.040
4860,-0.195,0.040
4861,-0.225,0.035
4862,-0.260,0.040
4863,-0.290,0.055
4864,-0.290,0.060
4865,-0.275,0.055
4866,-0.255,0.045
4867,-0.235,0.035
4868,-0.250,0.005
4869,-0.275,-0.030
4870,-0.295,-0.060
4871,-0.315,-0.085
4872,-0.300,-0.085
4873,-0.275,-0.075
4874,-0.265,-0.070
4875,-0.270,-0.070
4876,-0.260,-0.065
4877,-0.270,-0.070
4878,-0.265,-0.065
4879,-0.260,-0.060
4880,-0.275,-0.065
4881,-0.290,-0.070
4882,-0.275,-0.075
4883,-0.260,-0.080
4884,-0.250,-0.050
4885,-0.240,-0.030
4886,-0.250,-0.035
4887,-0.260,-0.040
4888,-0.250,-0.045
4889,-0.240,-0.050
4890,-0.230,-0.040
4891,-0.225,-0.030
4892,-0.240,-0.040
4893,-0.245,-0.050
4894,-0.230,-0.050
4895,-0.215,-0.050
4896,-0.190,-0.045
4897,-0.190,-0.040
4898,-0.215,-0.040
4899,-0.245,-0.040
4900,-0.275,-0.040
4901,-0.205,-0.025
4902,-0.060,0.000
4903,0.200,0.050
4904,0.525,0.110
4905,0.850,0.015
4906,1.175,-0.145
4907,1.500,-0.370
4908,1.825,-0.610
4909,2.150,-0.770
4910,2.475,-0.915
4911,2.255,-0.940
4912,1.930,-0.945
4913,1.600,-0.985
4914,1.275,-1.025
4915,0.945,-1.030
4916,0.620,-1.030
4917,0.290,-0.825
4918,-0.035,-0.620
4919,-0.250,-0.465
4920,-0.450,-0.310
4921,-0.385,-0.185
4922,-0.330,-0.065
4923,-0.330,-0.015
4924,-0.330,0.030
4925,-0.340,0.030
4926,-0.345,0.030
4927,-0.320,0.040
4928,-0.300,0.050
4929,-0.300,0.055
4930,-0.300,0.060
4931,-0.295,0.070
4932,-0.290,0.080
4933,-0.290,0.085
4934,-0.290,0.090
4935,-0.285,0.090
4936,-0.280,0.090
4937,-0.280,0.085
4938,-0.280,0.080
4939,-0.285,0.085
4940,-0.290,0.090
4941,-0.295,0.090
4942,-0.300,0.095
4943,-0.300,0.110
4944,-0.300,0.115
4945,-0.305,0.105
4946,-0.305,0.100
4947,-0.295,0.100
4948,-0.285,0.105
4949,-0.275,0.115
4950,-0.270,0.120
4951,-0.270,0.120
4952,-0.270,0.120
4953,-0.275,0.120
4954,-0.265,0.120
4955,-0.245,0.120
4956,-0.215,0.120
4957,-0.185,0.125
4958,-0.180,0.130
4959,-0.190,0.130
4960,-0.185,0.135
4961,-0.180,0.140
4962,-0.150,0.135
4963,-0.120,0.130
4964,-0.095,0.135
4965,-0.070,0.140
4966,-0.045,0.145
4967,-0.020,0.150
4968,-0.015,0.150
4969,-0.005,0.150
4970,0.030,0.150
4971,0.060,0.150
4972,0.070,0.150
4973,0.095,0.150
4974,0.140,0.155
4975,0.170,0.160
4976,0.175,0.150
4977,0.190,0.140
4978,0.220,0.145
4979,0.250,0.150
4980,0.275,0.145
4981,0.300,0.140
4982,0.320,0.135
4983,0.335,0.130
4984,0.350,0.125
4985,0.355,0.120
4986,0.340,0.115
4987,0.295,0.110
4988,0.240,0.105
4989,0.215,0.090
4990,0.205,0.065
4991,0.185,0.060
4992,0.165,0.055
4993,0.130,0.045
4994,0.090,0.035
4995,0.055,0.030
4996,0.025,0.025
4997,-0.005,0.015
4998,-0.035,0.005
4999,-0.045,-0.005
5000,-0.040,0.000
5001,-0.060,-0.025
5002,-0.060,-0.030
5003,-0.080,-0.030
5004,-0.100,-0.030
5005,-0.125,-0.030
5006,-0.150,-0.030
5007,-0.135,-0.040
5008,-0.120,-0.050
5009,-0.105,-0.050
5010,-0.095,-0.050
5011,-0.120,-0.050
5012,-0.140,-0.050
5013,-0.150,-0.045
5014,-0.160,-0.040
5015,-0.155,-0.045
5016,-0.145,-0.050
5017,-0.130,-0.050
5018,-0.120,-0.050
5019,-0.115,-0.050
5020,-0.110,-0.050
5021,-0.125,-0.050
5022,-0.130,-0.050
5023,-0.135,-0.045
5024,-0.140,-0.045
5025,-0.140,-0.055
5026,-0.135,-0.055
5027,-0.125,-0.045
5028,-0.130,-0.040
5029,-0.145,-0.040
5030,-0.145,-0.040
5031,-0.135,-0.035
5032,-0.130,-0.030
5033,-0.125,-0.035
5034,-0.125,-0.040
5035,-0.135,-0.045
5036,-0.140,-0.045
5037,-0.140,-0.035
5038,-0.125,-0.030
5039,-0.105,-0.030
5040,-0.105,-0.030
5041,-0.115,-0.030
5042,-0.130,-0.040
5043,-0.140,-0.050
5044,-0.130,-0.055
5045,-0.120,-0.060
5046,-0.135,-0.060
5047,-0.150,-0.060
5048,-0.150,-0.065
5049,-0.150,-0.070
5050,-0.155,-0.070
5051,-0.160,-0.070
5052,-0.160,-0.070
5053,-0.160,-0.070
5054,-0.160,-0.070
5055,-0.160,-0.070
5056,-0.160,-0.075
5057,-0.165,-0.080
5058,-0.180,-0.080
5059,-0.195,-0.080
5060,-0.215,-0.080
5061,-0.220,-0.080
5062,-0.195,-0.085
5063,-0.175,-0.090
5064,-0.160,-0.090
5065,-0.175,-0.090
5066,-0.220,-0.090
5067,-0.240,-0.090
5068,-0.235,-0.090
5069,-0.230,-0.090
5070,-0.230,-0.095
5071,-0.220,-0.095
5072,-0.200,-0.085
5073,-0.205,-0.080
5074,-0.225,-0.085
5075,-0.240,-0.085
5076,-0.255,-0.075
5077,-0.260,-0.070
5078,-0.260,-0.075
5079,-0.230,-0.080
5080,-0.195,-0.080
5081,-0.215,-0.080
5082,-0.245,-0.075
5083,-0.260,-0.070
5084,-0.280,-0.070
5085,-0.265,-0.070
5086,-0.250,-0.070
5087,-0.245,-0.070
5088,-0.240,-0.070
5089,-0.245,-0.065
5090,-0.250,-0.060
5091,-0.250,-0.060
5092,-0.250,-0.060
5093,-0.260,-0.055
5094,-0.270,-0.050
5095,-0.255,-0.050
5096,-0.240,-0.050
5097,-0.235,-0.050
5098,-0.230,-0.050
5099,-0.240,-0.050
5100,-0.250,-0.050
5101,-0.260,-0.045
5102,-0.270,-0.040
5103,-0.270,-0.045
5104,-0.270,-0.050
5105,-0.270,-0.055
5106,-0.265,-0.060
5107,-0.255,-0.065
5108,-0.240,-0.060
5109,-0.210,-0.040
5110,-0.200,-0.025
5111,-0.200,-0.015
5112,-0.205,-0.010
5113,-0.215,-0.015
5114,-0.230,-0.020
5115,-0.245,-0.015
5116,-0.250,-0.010
5117,-0.250,-0.005
5118,-0.260,0.000
5119,-0.275,-0.005
5120,-0.265,-0.015
5121,-0.245,-0.025
5122,-0.245,-0.065
5123,-0.255,-0.105
5124,-0.260,-0.115
5125,-0.260,-0.110
5126,-0.255,-0.135
5127,-0.250,-0.140
5128,-0.275,-0.135
5129,-0.300,-0.130
5130,-0.295,-0.125
5131,-0.290,-0.120
5132,-0.280,-0.115
5133,-0.270,-0.110
5134,-0.270,-0.115
5135,-0.270,-0.120
5136,-0.275,-0.125
5137,-0.280,-0.125
5138,-0.275,-0.095
5139,-0.270,-0.070
5140,-0.275,-0.080
5141,-0.275,-0.090
5142,-0.255,-0.090
5143,-0.240,-0.090
5144,-0.240,-0.090
5145,-0.240,-0.090
5146,-0.245,-0.090
5147,-0.245,-0.090
5148,-0.230,-0.090
5149,-0.205,-0.090
5150,-0.175,-0.095
5151,-0.175,-0.100
5152,-0.205,-0.095
5153,-0.250,-0.090
5154,-0.295,-0.095
5155,-0.175,-0.070
5156,0.020,-0.025
5157,0.310,0.005
5158,0.635,0.030
5159,0.960,-0.105
5160,1.285,-0.290
5161,1.610,-0.535
5162,1.935,-0.790
5163,2.260,-0.860
5164,2.585,-0.905
5165,2.305,-0.980
5166,1.980,-1.055
5167,1.650,-1.060
5168,1.320,-1.060
5169,0.995,-1.070
5170,0.665,-1.065
5171,0.340,-0.860
5172,0.020,-0.665
5173,-0.255,-0.510
5174,-0.475,-0.365
5175,-0.435,-0.250
5176,-0.395,-0.150
5177,-0.360,-0.095
5178,-0.330,-0.050
5179,-0.320,-0.040
5180,-0.310,-0.030
5181,-0.330,-0.025
5182,-0.340,-0.020
5183,-0.335,-0.020
5184,-0.330,-0.020
5185,-0.320,-0.015
5186,-0.310,-0.010
5187,-0.300,-0.005
5188,-0.290,0.000
5189,-0.295,0.005
5190,-0.300,0.010
5191,-0.295,0.015
5192,-0.290,0.020
5193,-0.290,0.020
5194,-0.290,0.020
5195,-0.290,0.015
5196,-0.280,0.010
5197,-0.260,0.015
5198,-0.250,0.025
5199,-0.255,0.035
5200,-0.260,0.040
5201,-0.265,0.040
5202,-0.270,0.040
5203,-0.265,0.040
5204,-0.240,0.040
5205,-0.215,0.045
5206,-0.200,0.050
5207,-0.185,0.055
5208,-0.185,0.060
5209,-0.200,0.070
5210,-0.180,0.075
5211,-0.160,0.080
5212,-0.145,0.080
5213,-0.130,0.080
5214,-0.085,0.085
5215,-0.050,0.090
5216,-0.050,0.095
5217,-0.050,0.100
5218,-0.045,0.100
5219,-0.030,0.100
5220,0.015,0.100
5221,0.060,0.100
5222,0.095,0.110
5223,0.120,0.120
5224,0.125,0.115
5225,0.135,0.110
5226,0.150,0.115
5227,0.170,0.120
5228,0.195,0.115
5229,0.230,0.110
5230,0.285,0.115
5231,0.315,0.120
5232,0.330,0.115
5233,0.350,0.110
5234,0.370,0.115
5235,0.380,0.120
5236,0.375,0.125
5237,0.380,0.120
5238,0.395,0.105
5239,0.405,0.100
5240,0.415,0.100
5241,0.390,0.100
5242,0.350,0.095
5243,0.320,0.090
5244,0.285,0.090
5245,0.265,0.070
5246,0.245,0.045
5247,0.215,0.040
5248,0.185,0.035
5249,0.145,0.025
5250,0.180,0.030
5251,0.080,0.000
5252,0.060,-0.010
5253,0.050,-0.005
5254,0.040,0.000
5255,0.030,-0.010
5256,0.020,-0.020
5257,0.015,-0.020
5258,0.010,-0.020
5259,-0.020,-0.020
5260,-0.040,-0.020
5261,-0.015,-0.020
5262,0.000,-0.020
5263,-0.015,-0.020
5264,-0.030,-0.020
5265,-0.020,-0.015
5266,-0.010,-0.010
5267,-0.015,-0.010
5268,-0.020,-0.010
5269,-0.020,-0.005
5270,-0.025,0.000
5271,-0.040,0.000
5272,-0.050,0.000
5273,-0.045,0.000
5274,-0.030,0.000
5275,0.000,0.000
5276,0.005,0.000
5277,-0.005,0.005
5278,-0.025,0.010
5279,-0.050,0.010
5280,-0.050,0.010
5281,-0.030,0.005
5282,-0.020,0.000
5283,-0.025,0.000
5284,-0.010,0.000
5285,0.025,0.000
5286,0.000,0.000
5287,-0.035,0.000
5288,-0.045,0.000
5289,-0.055,0.000
5290,-0.060,0.000
5291,-0.055,-0.005
5292,-0.025,-0.010
5293,0.000,-0.010
5294,-0.035,-0.005
5295,-0.070,0.000
5296,-0.070,0.000
5297,-0.070,0.000
5298,-0.065,-0.005
5299,-0.060,-0.010
5300,-0.045,-0.005
5301,-0.030,0.000
5302,-0.040,-0.005
5303,-0.055,-0.010
5304,-0.085,-0.010
5305,-0.110,-0.010
5306,-0.100,-0.005
5307,-0.085,0.000
5308,-0.070,-0.005
5309,-0.060,-0.010
5310,-0.060,-0.010
5311,-0.070,-0.010
5312,-0.100,-0.010
5313,-0.115,-0.010
5314,-0.105,-0.005
5315,-0.100,0.000
5316,-0.095,-0.005
5317,-0.095,-0.010
5318,-0.105,-0.010
5319,-0.110,-0.010
5320,-0.110,-0.010
5321,-0.110,-0.010
5322,-0.110,-0.015
5323,-0.110,-0.020
5324,-0.115,-0.020
5325,-0.120,-0.025
5326,-0.120,-0.035
5327,-0.100,-0.035
5328,-0.075,-0.025
5329,-0.090,-0.020
5330,-0.115,-0.020
5331,-0.120,-0.020
5332,-0.115,-0.020
5333,-0.115,-0.025
5334,-0.130,-0.040
5335,-0.135,-0.040
5336,-0.140,-0.040
5337,-0.130,-0.040
5338,-0.120,-0.040
5339,-0.115,-0.040
5340,-0.110,-0.040
5341,-0.145,-0.035
5342,-0.170,-0.030
5343,-0.165,-0.040
5344,-0.155,-0.050
5345,-0.125,-0.050
5346,-0.100,-0.050
5347,-0.110,-0.040
5348,-0.130,-0.030
5349,-0.160,-0.035
5350,-0.180,-0.040
5351,-0.170,-0.035
5352,-0.155,-0.030
5353,-0.135,-0.035
5354,-0.120,-0.040
5355,-0.120,-0.040
5356,-0.125,-0.040
5357,-0.140,-0.045
5358,-0.150,-0.050
5359,-0.150,-0.045
5360,-0.150,-0.040
5361,-0.145,-0.035
5362,-0.135,-0.030
5363,-0.125,-0.030
5364,-0.130,-0.030
5365,-0.145,-0.035
5366,-0.160,-0.040
5367,-0.175,-0.035
5368,-0.160,-0.030
5369,-0.125,-0.025
5370,-0.085,-0.005
5371,-0.045,0.015
5372,-0.055,0.020
5373,-0.075,0.025
5374,-0.110,0.040
5375,-0.080,0.030
5376,-0.160,0.070
5377,-0.170,0.080
5378,-0.165,0.065
5379,-0.160,0.050
5380,-0.150,0.045
5381,-0.140,0.040
5382,-0.145,0.035
5383,-0.150,0.025
5384,-0.160,-0.015
5385,-0.170,-0.050
5386,-0.170,-0.060
5387,-0.170,-0.070
5388,-0.175,-0.060
5389,-0.180,-0.050
5390,-0.185,-0.045
5391,-0.185,-0.040
5392,-0.170,-0.050
5393,-0.165,-0.050
5394,-0.180,-0.025
5395,-0.195,-0.020
5396,-0.220,-0.045
5397,-0.205,-0.060
5398,-0.145,-0.055
5399,-0.125,-0.040
5400,-0.140,-0.010
5401,-0.155,0.000
5402,-0.165,-0.005
5403,-0.170,-0.015
5404,-0.165,-0.025
5405,-0.150,-0.030
5406,-0.135,-0.030
5407,-0.125,-0.030
5408,-0.115,-0.025
5409,-0.110,-0.020
5410,-0.115,-0.020
5411,-0.105,-0.020
5412,-0.085,-0.020
5413,-0.125,-0.020
5414,-0.175,-0.025
5415,-0.095,-0.010
5416,-0.005,0.015
5417,0.270,0.085
5418,0.550,0.150
5419,0.875,0.030
5420,1.200,-0.095
5421,1.525,-0.340
5422,1.850,-0.585
5423,2.175,-0.800
5424,2.390,-0.975
5425,2.065,-0.915
5426,1.735,-0.890
5427,1.410,-0.990
5428,1.080,-1.060
5429,0.755,-1.020
5430,0.425,-0.950
5431,0.095,-0.805
5432,-0.160,-0.650
5433,-0.290,-0.475
5434,-0.340,-0.310
5435,-0.255,-0.165
5436,-0.210,-0.050
5437,-0.205,0.015
5438,-0.200,0.055
5439,-0.195,0.065
5440,-0.180,0.070
5441,-0.160,0.075
5442,-0.155,0.080
5443,-0.165,0.085
5444,-0.170,0.095
5445,-0.175,0.105
5446,-0.180,0.110
5447,-0.175,0.110
5448,-0.170,0.110
5449,-0.170,0.115
5450,-0.155,0.120
5451,-0.135,0.120
5452,-0.130,0.130
5453,-0.135,0.145
5454,-0.155,0.150
5455,-0.175,0.150
5456,-0.180,0.150
5457,-0.180,0.155
5458,-0.160,0.160
5459,-0.130,0.160
5460,-0.135,0.170
5461,-0.140,0.180
5462,-0.135,0.185
5463,-0.130,0.190
5464,-0.130,0.195
5465,-0.130,0.200
5466,-0.120,0.200
5467,-0.105,0.200
5468,-0.080,0.205
5469,-0.055,0.210
5470,-0.025,0.215
5471,0.000,0.220
5472,-0.015,0.225
5473,-0.025,0.230
5474,-0.005,0.225
5475,0.020,0.220
5476,0.055,0.225
5477,0.085,0.230
5478,0.100,0.240
5479,0.110,0.250
5480,0.115,0.235
5481,0.140,0.230
5482,0.180,0.235
5483,0.205,0.240
5484,0.220,0.235
5485,0.250,0.230
5486,0.285,0.230
5487,0.310,0.230
5488,0.325,0.225
5489,0.340,0.220
5490,0.355,0.220
5491,0.380,0.220
5492,0.410,0.225
5493,0.435,0.225
5494,0.455,0.215
5495,0.475,0.210
5496,0.495,0.210
5497,0.505,0.210
5498,0.515,0.205
5499,0.520,0.200
5500,0.520,0.200
5501,0.480,0.180
5502,0.450,0.170
5503,0.435,0.160
5504,0.420,0.150
5505,0.385,0.130
5506,0.345,0.110
5507,0.295,0.110
5508,0.250,0.110
5509,0.220,0.100
5510,0.200,0.090
5511,0.175,0.065
5512,0.155,0.050
5513,0.135,0.050
5514,0.115,0.050
5515,0.090,0.050
5516,0.065,0.050
5517,0.050,0.045
5518,0.030,0.040
5519,0.005,0.030
5520,-0.005,0.020
5521,0.020,0.020
5522,0.030,0.020
5523,0.030,0.020
5524,0.020,0.020
5525,-0.010,0.020
5526,-0.015,0.020
5527,0.000,0.020
5528,0.025,0.020
5529,0.050,0.020
5530,0.045,0.020
5531,0.020,0.025
5532,0.005,0.030
5533,-0.005,0.030
5534,-0.005,0.030
5535,0.005,0.035
5536,0.010,0.040
5537,0.010,0.045
5538,0.010,0.050
5539,0.010,0.050
5540,0.015,0.050
5541,0.025,0.055
5542,0.005,0.060
5543,-0.020,0.060
5544,-0.010,0.065
5545,0.000,0.070
5546,0.010,0.065
5547,0.020,0.060
5548,0.025,0.065
5549,0.030,0.070
5550,0.015,0.070
5551,0.000,0.070
5552,0.020,0.070
5553,0.040,0.070
5554,0.025,0.070
5555,0.010,0.070
5556,0.000,0.065
5557,-0.005,0.060
5558,0.020,0.060
5559,0.030,0.060
5560,0.005,0.055
5561,-0.010,0.050
5562,-0.020,0.055
5563,-0.030,0.060
5564,-0.030,0.055
5565,-0.030,0.050
5566,-0.025,0.055
5567,-0.025,0.060
5568,-0.035,0.055
5569,-0.040,0.050
5570,-0.040,0.050
5571,-0.055,0.050
5572,-0.080,0.045
5573,-0.075,0.040
5574,-0.055,0.035
5575,-0.045,0.030
5576,-0.035,0.030
5577,-0.055,0.030
5578,-0.085,0.030
5579,-0.095,0.030
5580,-0.105,0.030
5581,-0.085,0.025
5582,-0.055,0.015
5583,-0.050,0.010
5584,-0.050,0.010
5585,-0.060,0.010
5586,-0.070,0.010
5587,-0.080,0.005
5588,-0.090,0.000
5589,-0.085,0.000
5590,-0.080,0.000
5591,-0.070,0.005
5592,-0.060,0.010
5593,-0.065,0.005
5594,-0.075,0.000
5595,-0.095,0.005
5596,-0.110,0.010
5597,-0.095,0.010
5598,-0.075,0.010
5599,-0.060,0.005
5600,-0.055,0.000
5601,-0.070,0.000
5602,-0.080,0.000
5603,-0.080,0.000
5604,-0.080,0.000
5605,-0.065,0.005
5606,-0.065,0.010
5607,-0.080,0.010
5608,-0.090,0.005
5609,-0.095,-0.005
5610,-0.090,-0.010
5611,-0.070,-0.005
5612,-0.060,0.000
5613,-0.065,0.000
5614,-0.080,0.000
5615,-0.095,0.000
5616,-0.100,-0.005
5617,-0.095,-0.015
5618,-0.090,-0.020
5619,-0.090,-0.015
5620,-0.090,-0.010
5621,-0.095,-0.010
5622,-0.105,-0.015
5623,-0.115,-0.025
5624,-0.120,-0.030
5625,-0.120,-0.030
5626,-0.110,-0.030
5627,-0.090,-0.040
5628,-0.050,0.000
5629,-0.010,0.040
5630,-0.020,0.045
5631,-0.030,0.050
5632,-0.040,0.070
5633,-0.055,0.090
5634,-0.100,0.070
5635,-0.140,0.050
5636,-0.125,0.050
5637,-0.115,0.045
5638,-0.135,0.020
5639,-0.150,0.000
5640,-0.145,-0.005
5641,-0.145,-0.020
5642,-0.165,-0.050
5643,-0.180,-0.080
5644,-0.170,-0.105
5645,-0.155,-0.120
5646,-0.130,-0.105
5647,-0.135,-0.100
5648,-0.165,-0.105
5649,-0.180,-0.110
5650,-0.185,-0.105
5651,-0.180,-0.100
5652,-0.160,-0.100
5653,-0.150,-0.100
5654,-0.150,-0.105
5655,-0.145,-0.110
5656,-0.135,-0.110
5657,-0.145,-0.095
5658,-0.165,-0.075
5659,-0.170,-0.070
5660,-0.170,-0.070
5661,-0.170,-0.075
5662,-0.165,-0.085
5663,-0.145,-0.090
5664,-0.125,-0.085
5665,-0.125,-0.080
5666,-0.135,-0.075
5667,-0.120,-0.065
5668,-0.100,-0.060
5669,-0.105,-0.060
5670,-0.110,-0.060
5671,-0.085,-0.055
5672,-0.060,-0.050
5673,-0.100,-0.055
5674,-0.120,-0.055
5675,-0.050,-0.025
5676,0.065,0.010
5677,0.330,0.060
5678,0.615,0.070
5679,0.940,-0.045
5680,1.265,-0.200
5681,1.590,-0.435
5682,1.915,-0.665
5683,2.240,-0.875
5684,2.305,-0.975
5685,1.975,-0.910
5686,1.650,-0.915
5687,1.320,-1.015
5688,0.995,-1.055
5689,0.665,-1.025
5690,0.340,-0.930
5691,0.010,-0.775
5692,-0.210,-0.605
5693,-0.365,-0.425
5694,-0.365,-0.265
5695,-0.280,-0.120
5696,-0.230,-0.035
5697,-0.200,0.015
5698,-0.195,0.035
5699,-0.205,0.045
5700,-0.200,0.055
5701,-0.185,0.065
5702,-0.180,0.075
5703,-0.185,0.085
5704,-0.195,0.090
5705,-0.205,0.090
5706,-0.195,0.090
5707,-0.175,0.095
5708,-0.170,0.100
5709,-0.160,0.110
5710,-0.180,0.115
5711,-0.200,0.120
5712,-0.185,0.130
5713,-0.170,0.140
5714,-0.195,0.130
5715,-0.220,0.120
5716,-0.185,0.125
5717,-0.160,0.130
5718,-0.150,0.135
5719,-0.145,0.140
5720,-0.165,0.145
5721,-0.180,0.150
5722,-0.180,0.150
5723,-0.170,0.150
5724,-0.125,0.145
5725,-0.100,0.145
5726,-0.095,0.160
5727,-0.090,0.170
5728,-0.100,0.165
5729,-0.105,0.160
5730,-0.080,0.175
5731,-0.060,0.180
5732,-0.040,0.180
5733,-0.020,0.180
5734,0.010,0.185
5735,0.030,0.190
5736,0.050,0.190
5737,0.060,0.190
5738,0.065,0.195
5739,0.080,0.200
5740,0.105,0.205
5741,0.145,0.205
5742,0.190,0.195
5743,0.200,0.195
5744,0.200,0.205
5745,0.210,0.210
5746,0.225,0.205
5747,0.250,0.200
5748,0.275,0.205
5749,0.310,0.210
5750,0.280,0.210
5751,0.380,0.215
5752,0.410,0.210
5753,0.430,0.210
5754,0.450,0.210
5755,0.455,0.210
5756,0.460,0.210
5757,0.460,0.200
5758,0.460,0.190
5759,0.465,0.180
5760,0.465,0.170
5761,0.435,0.170
5762,0.400,0.170
5763,0.365,0.155
5764,0.335,0.140
5765,0.315,0.140
5766,0.285,0.135
5767,0.230,0.115
5768,0.185,0.100
5769,0.150,0.095
5770,0.130,0.090
5771,0.115,0.085
5772,0.095,0.080
5773,0.060,0.075
5774,0.025,0.065
5775,-0.005,0.055
5776,-0.020,0.050
5777,-0.015,0.045
5778,-0.010,0.040
5779,-0.015,0.040
5780,-0.025,0.040
5781,-0.035,0.035
5782,-0.040,0.030
5783,-0.040,0.030
5784,-0.050,0.030
5785,-0.065,0.030
5786,-0.065,0.030
5787,-0.055,0.025
5788,-0.035,0.020
5789,-0.015,0.015
5790,-0.015,0.010
5791,-0.025,0.010
5792,-0.055,0.010
5793,-0.080,0.010
5794,-0.060,0.000
5795,-0.040,-0.010
5796,-0.040,-0.005
5797,-0.040,0.000
5798,-0.060,-0.005
5799,-0.080,-0.010
5800,-0.080,-0.005
5801,-0.080,0.000
5802,-0.080,-0.010
5803,-0.080,-0.020
5804,-0.065,-0.020
5805,-0.050,-0.020
5806,-0.050,-0.025
5807,-0.055,-0.030
5808,-0.070,-0.030
5809,-0.080,-0.030
5810,-0.080,-0.035
5811,-0.075,-0.045
5812,-0.060,-0.060
5813,-0.055,-0.070
5814,-0.065,-0.065
5815,-0.080,-0.060
5816,-0.100,-0.065
5817,-0.110,-0.070
5818,-0.105,-0.070
5819,-0.100,-0.075
5820,-0.105,-0.085
5821,-0.115,-0.090
5822,-0.125,-0.095
5823,-0.125,-0.100
5824,-0.115,-0.100
5825,-0.130,-0.100
5826,-0.155,-0.100
5827,-0.160,-0.100
5828,-0.160,-0.105
5829,-0.160,-0.115
5830,-0.165,-0.125
5831,-0.170,-0.130
5832,-0.165,-0.125
5833,-0.170,-0.120
5834,-0.190,-0.120
5835,-0.185,-0.120
5836,-0.180,-0.120
5837,-0.180,-0.125
5838,-0.180,-0.130
5839,-0.180,-0.130
5840,-0.180,-0.130
5841,-0.160,-0.130
5842,-0.140,-0.130
5843,-0.160,-0.130
5844,-0.180,-0.130
5845,-0.190,-0.130
5846,-0.195,-0.130
5847,-0.175,-0.140
5848,-0.155,-0.150
5849,-0.140,-0.140
5850,-0.130,-0.130
5851,-0.135,-0.130
5852,-0.145,-0.130
5853,-0.165,-0.130
5854,-0.180,-0.130
5855,-0.180,-0.130
5856,-0.170,-0.130
5857,-0.150,-0.130
5858,-0.140,-0.130
5859,-0.135,-0.125
5860,-0.140,-0.120
5861,-0.160,-0.120
5862,-0.170,-0.115
5863,-0.175,-0.105
5864,-0.180,-0.100
5865,-0.175,-0.105
5866,-0.165,-0.110
5867,-0.155,-0.105
5868,-0.160,-0.100
5869,-0.175,-0.105
5870,-0.180,-0.095
5871,-0.175,-0.075
5872,-0.160,-0.070
5873,-0.145,-0.070
5874,-0.155,-0.070
5875,-0.140,-0.070
5876,-0.175,-0.075
5877,-0.170,-0.070
5878,-0.145,-0.065
5879,-0.120,-0.060
5880,-0.110,-0.040
5881,-0.100,-0.020
5882,-0.065,0.000
5883,-0.040,0.020
5884,-0.045,0.030
5885,-0.050,0.040
5886,-0.060,0.045
5887,-0.075,0.050
5888,-0.105,0.045
5889,-0.135,0.035
5890,-0.155,0.015
5891,-0.170,-0.005
5892,-0.170,-0.020
5893,-0.170,-0.040
5894,-0.180,-0.070
5895,-0.200,-0.090
5896,-0.225,-0.105
5897,-0.240,-0.105
5898,-0.235,-0.095
5899,-0.225,-0.095
5900,-0.210,-0.105
5901,-0.215,-0.105
5902,-0.240,-0.095
5903,-0.250,-0.090
5904,-0.250,-0.090
5905,-0.240,-0.090
5906,-0.225,-0.090
5907,-0.220,-0.075
5908,-0.220,-0.055
5909,-0.240,-0.050
5910,-0.265,-0.045
5911,-0.250,-0.040
5912,-0.225,-0.045
5913,-0.220,-0.045
5914,-0.225,-0.035
5915,-0.235,-0.030
5916,-0.245,-0.030
5917,-0.225,-0.030
5918,-0.200,-0.030
5919,-0.190,-0.030
5920,-0.180,-0.030
5921,-0.200,-0.025
5922,-0.220,-0.020
5923,-0.180,-0.020
5924,-0.155,-0.020
5925,-0.210,-0.015
5926,-0.250,-0.010
5927,-0.250,-0.015
5928,-0.195,-0.010
5929,0.015,0.030
5930,0.260,0.060
5931,0.585,0.080
5932,0.910,0.020
5933,1.235,-0.185
5934,1.560,-0.410
5935,1.885,-0.660
5936,2.210,-0.800
5937,2.535,-0.805
5938,2.540,-0.865
5939,2.210,-0.975
5940,1.885,-1.015
5941,1.555,-0.975
5942,1.230,-0.965
5943,0.900,-0.975
5944,0.575,-0.835
5945,0.245,-0.605
5946,-0.045,-0.435
5947,-0.315,-0.290
5948,-0.380,-0.180
5949,-0.365,-0.085
5950,-0.355,-0.030
5951,-0.345,0.010
5952,-0.340,0.020
5953,-0.340,0.025
5954,-0.340,0.030
5955,-0.335,0.035
5956,-0.330,0.045
5957,-0.335,0.055
5958,-0.340,0.060
5959,-0.350,0.060
5960,-0.345,0.060
5961,-0.340,0.060
5962,-0.335,0.055
5963,-0.330,0.050
5964,-0.310,0.060
5965,-0.290,0.070
5966,-0.310,0.070
5967,-0.330,0.070
5968,-0.350,0.080
5969,-0.365,0.090
5970,-0.335,0.085
5971,-0.305,0.080
5972,-0.285,0.085
5973,-0.280,0.090
5974,-0.310,0.100
5975,-0.325,0.110
5976,-0.310,0.105
5977,-0.295,0.100
5978,-0.280,0.110
5979,-0.265,0.120
5980,-0.250,0.125
5981,-0.235,0.130
5982,-0.220,0.130
5983,-0.210,0.130
5984,-0.205,0.135
5985,-0.195,0.140
5986,-0.185,0.140
5987,-0.165,0.145
5988,-0.140,0.155
5989,-0.100,0.160
5990,-0.055,0.160
5991,-0.040,0.160
5992,-0.040,0.165
5993,-0.020,0.170
5994,0.005,0.170
5995,0.025,0.170
5996,0.045,0.175
5997,0.055,0.180
5998,0.065,0.175
5999,0.105,0.170
6000,0.070,0.170
6001,0.160,0.180
6002,0.170,0.190
6003,0.205,0.180
6004,0.240,0.170
6005,0.255,0.165
6006,0.270,0.160
6007,0.295,0.160
6008,0.320,0.160
6009,0.320,0.160
6010,0.320,0.160
6011,0.330,0.160
6012,0.335,0.160
6013,0.305,0.150
6014,0.280,0.140
6015,0.275,0.130
6016,0.255,0.120
6017,0.210,0.110
6018,0.165,0.100
6019,0.115,0.090
6020,0.070,0.080
6021,0.015,0.075
6022,-0.010,0.065
6023,-0.005,0.050
6024,0.000,0.040
6025,0.005,0.035
6026,-0.020,0.030
6027,-0.080,0.030
6028,-0.100,0.030
6029,-0.105,0.030
6030,-0.110,0.030
6031,-0.115,0.025
6032,-0.115,0.020
6033,-0.105,0.020
6034,-0.100,0.020
6035,-0.100,0.020
6036,-0.105,0.020
6037,-0.115,0.020
6038,-0.130,0.020
6039,-0.145,0.025
6040,-0.140,0.025
6041,-0.125,0.015
6042,-0.115,0.025
6043,-0.110,0.040
6044,-0.110,0.040
6045,-0.110,0.040
6046,-0.125,0.040
6047,-0.140,0.040
6048,-0.115,0.040
6049,-0.090,0.040
6050,-0.105,0.040
6051,-0.120,0.040
6052,-0.115,0.045
6053,-0.110,0.050
6054,-0.115,0.050
6055,-0.120,0.050
6056,-0.125,0.050
6057,-0.130,0.050
6058,-0.125,0.045
6059,-0.120,0.040
6060,-0.115,0.040
6061,-0.115,0.040
6062,-0.135,0.040
6063,-0.140,0.040
6064,-0.115,0.045
6065,-0.100,0.050
6066,-0.095,0.045
6067,-0.105,0.040
6068,-0.130,0.040
6069,-0.135,0.040
6070,-0.125,0.035
6071,-0.120,0.030
6072,-0.120,0.030
6073,-0.130,0.030
6074,-0.145,0.030
6075,-0.150,0.025
6076,-0.145,0.015
6077,-0.135,0.010
6078,-0.125,0.015
6079,-0.130,0.015
6080,-0.145,0.005
6081,-0.155,0.000
6082,-0.165,0.005
6083,-0.170,0.010
6084,-0.160,0.000
6085,-0.170,0.000
6086,-0.180,0.000
6087,-0.165,-0.005
6088,-0.150,-0.010
6089,-0.170,-0.005
6090,-0.190,0.000
6091,-0.200,-0.005
6092,-0.210,-0.010
6093,-0.200,-0.015
6094,-0.185,-0.020
6095,-0.160,-0.020
6096,-0.145,-0.020
6097,-0.175,-0.020
6098,-0.205,-0.020
6099,-0.220,-0.015
6100,-0.225,-0.010
6101,-0.210,-0.020
6102,-0.200,-0.030
6103,-0.190,-0.025
6104,-0.180,-0.020
6105,-0.185,-0.020
6106,-0.195,-0.020
6107,-0.205,-0.025
6108,-0.215,-0.030
6109,-0.230,-0.025
6110,-0.230,-0.020
6111,-0.210,-0.020
6112,-0.195,-0.020
6113,-0.185,-0.020
6114,-0.205,-0.020
6115,-0.250,-0.025
6116,-0.245,-0.025
6117,-0.225,-0.015
6118,-0.220,-0.010
6119,-0.215,-0.015
6120,-0.215,-0.020
6121,-0.225,-0.020
6122,-0.230,-0.020
6123,-0.230,-0.025
6124,-0.225,-0.030
6125,-0.230,-0.030
6126,-0.215,-0.020
6127,-0.220,-0.020
6128,-0.200,-0.020
6129,-0.180,-0.020
6130,-0.140,-0.005
6131,-0.100,0.010
6132,-0.100,0.030
6133,-0.100,0.050
6134,-0.095,0.080
6135,-0.090,0.100
6136,-0.065,0.095
6137,-0.055,0.090
6138,-0.085,0.090
6139,-0.105,0.090
6140,-0.090,0.080
6141,-0.080,0.065
6142,-0.080,0.050
6143,-0.105,0.035
6144,-0.170,0.020
6145,-0.210,-0.005
6146,-0.195,-0.050
6147,-0.180,-0.075
6148,-0.160,-0.090
6149,-0.160,-0.090
6150,-0.190,-0.070
6151,-0.205,-0.070
6152,-0.215,-0.090
6153,-0.220,-0.100
6154,-0.225,-0.095
6155,-0.220,-0.095
6156,-0.205,-0.105
6157,-0.190,-0.110
6158,-0.175,-0.105
6159,-0.200,-0.085
6160,-0.240,-0.065
6161,-0.255,-0.070
6162,-0.265,-0.085
6163,-0.250,-0.090
6164,-0.225,-0.090
6165,-0.205,-0.090
6166,-0.185,-0.085
6167,-0.200,-0.080
6168,-0.220,-0.080
6169,-0.230,-0.075
6170,-0.240,-0.070
6171,-0.220,-0.070
6172,-0.200,-0.070
6173,-0.175,-0.070
6174,-0.150,-0.070
6175,-0.165,-0.070
6176,-0.185,-0.070
6177,-0.220,-0.070
6178,-0.250,-0.070
6179,-0.240,-0.060
6180,-0.145,-0.035
6181,0.130,0.020
6182,0.425,0.040
6183,0.750,-0.015
6184,1.075,-0.145
6185,1.400,-0.395
6186,1.725,-0.640
6187,2.050,-0.890
6188,2.265,-0.980
6189,2.370,-0.890
6190,2.245,-0.920
6191,1.915,-1.055
6192,1.590,-1.075
6193,1.260,-1.015
6194,0.935,-0.945
6195,0.605,-0.865
6196,0.275,-0.710
6197,-0.050,-0.515
6198,-0.215,-0.355
6199,-0.315,-0.205
6200,-0.320,-0.125
6201,-0.295,-0.065
6202,-0.290,-0.025
6203,-0.295,0.015
6204,-0.295,0.020
6205,-0.285,0.020
6206,-0.285,0.020
6207,-0.295,0.015
6208,-0.300,0.010
6209,-0.290,0.020
6210,-0.270,0.030
6211,-0.250,0.040
6212,-0.270,0.040
6213,-0.290,0.040
6214,-0.290,0.040
6215,-0.290,0.040
6216,-0.290,0.040
6217,-0.285,0.040
6218,-0.260,0.050
6219,-0.240,0.060
6220,-0.255,0.065
6221,-0.270,0.070
6222,-0.280,0.070
6223,-0.290,0.070
6224,-0.285,0.070
6225,-0.265,0.075
6226,-0.225,0.090
6227,-0.205,0.100
6228,-0.225,0.105
6229,-0.240,0.110
6230,-0.240,0.105
6231,-0.230,0.105
6232,-0.210,0.115
6233,-0.200,0.120
6234,-0.200,0.125
6235,-0.185,0.130
6236,-0.155,0.130
6237,-0.135,0.130
6238,-0.125,0.135
6239,-0.120,0.140
6240,-0.120,0.140
6241,-0.100,0.140
6242,-0.070,0.145
6243,-0.040,0.150
6244,-0.015,0.145
6245,0.020,0.140
6246,0.055,0.140
6247,0.060,0.140
6248,0.060,0.140
6249,0.070,0.140
6250,0.060,0.140
6251,0.110,0.130
6252,0.130,0.120
6253,0.150,0.120
6254,0.170,0.120
6255,0.200,0.115
6256,0.230,0.110
6257,0.250,0.120
6258,0.270,0.130
6259,0.285,0.120
6260,0.305,0.110
6261,0.330,0.095
6262,0.350,0.080
6263,0.345,0.085
6264,0.335,0.085
6265,0.310,0.070
6266,0.285,0.060
6267,0.270,0.050
6268,0.245,0.035
6269,0.205,0.020
6270,0.175,0.005
6271,0.160,-0.010
6272,0.140,-0.020
6273,0.115,-0.025
6274,0.075,-0.035
6275,0.020,-0.050
6276,-0.005,-0.065
6277,-0.015,-0.075
6278,-0.020,-0.085
6279,-0.020,-0.095
6280,-0.020,-0.100
6281,-0.015,-0.095
6282,-0.020,-0.095
6283,-0.035,-0.105
6284,-0.040,-0.110
6285,-0.045,-0.115
6286,-0.060,-0.120
6287,-0.075,-0.120
6288,-0.065,-0.115
6289,-0.045,-0.105
6290,-0.050,-0.100
6291,-0.065,-0.100
6292,-0.080,-0.090
6293,-0.090,-0.080
6294,-0.080,-0.075
6295,-0.070,-0.070
6296,-0.055,-0.065
6297,-0.040,-0.060
6298,-0.055,-0.060
6299,-0.070,-0.060
6300,-0.065,-0.050
6301,-0.060,-0.040
6302,-0.060,-0.035
6303,-0.060,-0.030
6304,-0.055,-0.035
6305,-0.050,-0.040
6306,-0.050,-0.040
6307,-0.050,-0.040
6308,-0.050,-0.040
6309,-0.055,-0.040
6310,-0.070,-0.040
6311,-0.080,-0.040
6312,-0.075,-0.040
6313,-0.065,-0.040
6314,-0.055,-0.045
6315,-0.050,-0.050
6316,-0.055,-0.050
6317,-0.065,-0.050
6318,-0.075,-0.055
6319,-0.080,-0.060
6320,-0.085,-0.060
6321,-0.090,-0.060
6322,-0.090,-0.065
6323,-0.090,-0.070
6324,-0.090,-0.070
6325,-0.090,-0.070
6326,-0.090,-0.070
6327,-0.100,-0.070
6328,-0.115,-0.065
6329,-0.120,-0.060
6330,-0.125,-0.065
6331,-0.125,-0.070
6332,-0.115,-0.070
6333,-0.120,-0.070
6334,-0.140,-0.060
6335,-0.165,-0.060
6336,-0.190,-0.060
6337,-0.165,-0.055
6338,-0.140,-0.050
6339,-0.155,-0.050
6340,-0.170,-0.050
6341,-0.155,-0.055
6342,-0.140,-0.060
6343,-0.145,-0.050
6344,-0.155,-0.040
6345,-0.180,-0.040
6346,-0.200,-0.040
6347,-0.190,-0.045
6348,-0.180,-0.050
6349,-0.170,-0.050
6350,-0.160,-0.050
6351,-0.160,-0.040
6352,-0.165,-0.030
6353,-0.185,-0.040
6354,-0.195,-0.045
6355,-0.170,-0.030
6356,-0.165,-0.020
6357,-0.180,-0.025
6358,-0.185,-0.030
6359,-0.170,-0.030
6360,-0.160,-0.030
6361,-0.160,-0.030
6362,-0.165,-0.025
6363,-0.175,-0.015
6364,-0.180,-0.010
6365,-0.175,-0.015
6366,-0.165,-0.020
6367,-0.155,-0.015
6368,-0.150,-0.010
6369,-0.155,-0.005
6370,-0.160,0.000
6371,-0.160,0.000
6372,-0.155,0.000
6373,-0.145,0.000
6374,-0.165,0.000
6375,-0.140,0.000
6376,-0.170,-0.005
6377,-0.140,0.000
6378,-0.130,0.000
6379,-0.120,0.000
6380,-0.155,0.005
6381,-0.190,0.010
6382,-0.190,0.010
6383,-0.185,0.010
6384,-0.145,0.000
6385,-0.110,-0.010
6386,-0.100,0.015
6387,-0.090,0.035
6388,-0.075,0.055
6389,-0.060,0.075
6390,-0.050,0.100
6391,-0.040,0.120
6392,-0.050,0.110
6393,-0.055,0.100
6394,-0.040,0.110
6395,-0.025,0.115
6396,-0.010,0.100
6397,-0.025,0.085
6398,-0.075,0.075
6399,-0.120,0.065
6400,-0.155,0.055
6401,-0.165,0.025
6402,-0.150,-0.020
6403,-0.150,-0.045
6404,-0.165,-0.055
6405,-0.180,-0.055
6406,-0.195,-0.045
6407,-0.200,-0.045
6408,-0.195,-0.055
6409,-0.190,-0.060
6410,-0.190,-0.060
6411,-0.200,-0.065
6412,-0.215,-0.075
6413,-0.200,-0.080
6414,-0.175,-0.085
6415,-0.195,-0.070
6416,-0.225,-0.045
6417,-0.235,-0.050
6418,-0.240,-0.060
6419,-0.225,-0.070
6420,-0.210,-0.080
6421,-0.210,-0.070
6422,-0.210,-0.060
6423,-0.210,-0.065
6424,-0.210,-0.070
6425,-0.190,-0.070
6426,-0.170,-0.070
6427,-0.190,-0.070
6428,-0.205,-0.070
6429,-0.185,-0.070
6430,-0.160,-0.070
6431,-0.125,-0.070
6432,-0.115,-0.070
6433,-0.165,-0.065
6434,-0.195,-0.060
6435,-0.180,-0.050
6436,-0.055,-0.020
6437,0.205,0.030
6438,0.500,0.035
6439,0.825,-0.020
6440,1.150,-0.180
6441,1.475,-0.420
6442,1.800,-0.665
6443,2.125,-0.910
6444,2.185,-0.945
6445,2.090,-0.850
6446,1.835,-0.915
6447,1.510,-1.060
6448,1.180,-1.065
6449,0.855,-1.015
6450,0.525,-0.900
6451,0.200,-0.765
6452,-0.130,-0.590
6453,-0.455,-0.405
6454,-0.395,-0.255
6455,-0.270,-0.105
6456,-0.225,-0.045
6457,-0.185,0.005
6458,-0.215,0.020
6459,-0.260,0.040
6460,-0.250,0.045
6461,-0.240,0.050
6462,-0.240,0.055
6463,-0.240,0.060
6464,-0.220,0.065
6465,-0.200,0.070
6466,-0.200,0.085
6467,-0.200,0.100
6468,-0.210,0.105
6469,-0.220,0.110
6470,-0.235,0.105
6471,-0.240,0.100
6472,-0.205,0.105
6473,-0.180,0.110
6474,-0.185,0.120
6475,-0.200,0.130
6476,-0.225,0.135
6477,-0.235,0.140
6478,-0.215,0.140
6479,-0.195,0.140
6480,-0.180,0.145
6481,-0.170,0.150
6482,-0.170,0.155
6483,-0.165,0.165
6484,-0.150,0.175
6485,-0.140,0.180
6486,-0.140,0.175
6487,-0.125,0.175
6488,-0.100,0.185
6489,-0.085,0.190
6490,-0.075,0.190
6491,-0.055,0.190
6492,-0.035,0.190
6493,-0.030,0.195
6494,-0.025,0.205
6495,0.010,0.210
6496,0.045,0.215
6497,0.060,0.220
6498,0.075,0.220
6499,0.085,0.220
6500,0.080,0.220
6501,0.140,0.220
6502,0.180,0.220
6503,0.205,0.225
6504,0.230,0.230
6505,0.220,0.235
6506,0.215,0.240
6507,0.255,0.230
6508,0.295,0.220
6509,0.325,0.230
6510,0.350,0.240
6511,0.375,0.235
6512,0.395,0.230
6513,0.420,0.230
6514,0.440,0.230
6515,0.445,0.225
6516,0.455,0.220
6517,0.475,0.220
6518,0.495,0.220
6519,0.510,0.210
6520,0.490,0.200
6521,0.425,0.185
6522,0.380,0.175
6523,0.360,0.165
6524,0.340,0.150
6525,0.310,0.130
6526,0.295,0.120
6527,0.285,0.120
6528,0.230,0.115
6529,0.155,0.105
6530,0.120,0.100
6531,0.105,0.095
6532,0.090,0.085
6533,0.075,0.075
6534,0.070,0.070
6535,0.070,0.070
6536,0.065,0.065
6537,0.055,0.055
6538,0.030,0.050
6539,0.005,0.055
6540,0.000,0.060
6541,0.005,0.060
6542,0.025,0.055
6543,0.040,0.050
6544,0.030,0.055
6545,0.020,0.060
6546,-0.020,0.055
6547,-0.055,0.050
6548,0.000,0.055
6549,0.050,0.060
6550,0.045,0.065
6551,0.040,0.070
6552,0.020,0.075
6553,0.000,0.080
6554,0.000,0.080
6555,0.000,0.080
6556,0.000,0.080
6557,0.000,0.080
6558,-0.005,0.080
6559,-0.005,0.080
6560,0.010,0.075
6561,0.020,0.070
6562,0.010,0.080
6563,0.000,0.090
6564,-0.005,0.085
6565,-0.005,0.080
6566,0.005,0.075
6567,0.005,0.070
6568,-0.005,0.070
6569,-0.010,0.070
6570,-0.005,0.070
6571,0.000,0.070
6572,0.005,0.075
6573,0.000,0.080
6574,-0.015,0.085
6575,-0.035,0.085
6576,-0.055,0.075
6577,-0.040,0.070
6578,-0.015,0.065
6579,-0.020,0.060
6580,-0.035,0.065
6581,-0.050,0.070
6582,-0.065,0.070
6583,-0.070,0.070
6584,-0.060,0.060
6585,-0.075,0.060
6586,-0.090,0.060
6587,-0.085,0.060
6588,-0.080,0.060
6589,-0.080,0.050
6590,-0.080,0.040
6591,-0.085,0.045
6592,-0.090,0.050
6593,-0.105,0.055
6594,-0.120,0.060
6595,-0.105,0.055
6596,-0.090,0.050
6597,-0.085,0.050
6598,-0.090,0.050
6599,-0.120,0.045
6600,-0.140,0.040
6601,-0.130,0.045
6602,-0.120,0.050
6603,-0.115,0.045
6604,-0.110,0.040
6605,-0.110,0.045
6606,-0.110,0.050
6607,-0.110,0.045
6608,-0.115,0.040
6609,-0.130,0.035
6610,-0.140,0.030
6611,-0.145,0.030
6612,-0.130,0.030
6613,-0.100,0.035
6614,-0.090,0.040
6615,-0.090,0.035
6616,-0.110,0.030
6617,-0.140,0.030
6618,-0.135,0.030
6619,-0.115,0.035
6620,-0.110,0.040
6621,-0.115,0.035
6622,-0.120,0.030
6623,-0.125,0.025
6624,-0.130,0.020
6625,-0.130,0.020
6626,-0.140,0.030
6627,-0.140,0.030
6628,-0.140,0.030
6629,-0.140,0.030
6630,-0.140,0.025
6631,-0.140,0.020
6632,-0.145,0.020
6633,-0.150,0.020
6634,-0.165,0.025
6635,-0.175,0.030
6636,-0.140,0.030
6637,-0.110,0.030
6638,-0.125,0.025
6639,-0.135,0.025
6640,-0.115,0.040
6641,-0.085,0.055
6642,-0.045,0.070
6643,-0.020,0.090
6644,-0.020,0.115
6645,-0.025,0.130
6646,-0.050,0.115
6647,-0.050,0.115
6648,-0.030,0.125
6649,-0.020,0.125
6650,-0.020,0.115
6651,-0.030,0.105
6652,-0.050,0.090
6653,-0.080,0.070
6654,-0.115,0.055
6655,-0.135,0.025
