'sample interval','ECG1','ECG2'
'0.004 sec','mV','mV'
0,-0.265,-0.055
1,-0.320,-0.060
2,-0.335,-0.065
3,-0.335,-0.065
4,-0.335,-0.065
5,-0.340,-0.070
6,-0.345,-0.075
7,-0.330,-0.070
8,-0.315,-0.065
9,-0.310,-0.065
10,-0.305,-0.065
11,-0.300,-0.070
12,-0.295,-0.075
13,-0.295,-0.080
14,-0.295,-0.085
15,-0.285,-0.085
16,-0.275,-0.085
17,-0.270,-0.085
18,-0.265,-0.085
19,-0.260,-0.095
20,-0.255,-0.105
21,-0.255,-0.110
22,-0.250,-0.115
23,-0.240,-0.115
24,-0.230,-0.115
25,-0.220,-0.120
26,-0.215,-0.130
27,-0.210,-0.140
28,-0.205,-0.150
29,-0.200,-0.160
30,-0.190,-0.165
31,-0.180,-0.165
32,-0.170,-0.165
33,-0.160,-0.170
34,-0.155,-0.180
35,-0.150,-0.190
36,-0.135,-0.205
37,-0.120,-0.220
38,-0.110,-0.225
39,-0.100,-0.225
40,-0.085,-0.230
41,-0.070,-0.240
42,-0.050,-0.255
43,-0.035,-0.265
44,-0.020,-0.275
45,-0.005,-0.285
46,0.010,-0.285
47,0.025,-0.285
48,0.040,-0.285
49,0.055,-0.285
50,0.065,-0.290
51,0.075,-0.295
52,0.085,-0.290
53,0.095,-0.285
54,0.095,-0.275
55,0.095,-0.265
56,0.105,-0.245
57,0.110,-0.230
58,0.095,-0.215
59,0.080,-0.200
60,0.060,-0.185
61,0.040,-0.170
62,0.020,-0.150
63,-0.005,-0.120
64,-0.030,-0.090
65,-0.055,-0.075
66,-0.080,-0.070
67,-0.105,-0.060
68,-0.125,-0.050
69,-0.140,-0.040
70,-0.160,-0.030
71,-0.170,-0.020
72,-0.180,-0.010
73,-0.185,-0.005
74,-0.185,-0.010
75,-0.185,-0.015
76,-0.190,-0.010
77,-0.195,-0.005
78,-0.200,-0.010
79,-0.205,-0.010
80,-0.200,0.000
81,-0.195,0.005
82,-0.195,0.000
83,-0.195,-0.005
84,-0.205,-0.005
85,-0.200,0.000
86,-0.195,0.005
87,-0.195,0.005
88,-0.195,0.005
89,-0.200,0.005
90,-0.205,0.005
91,-0.205,0.000
92,-0.205,-0.005
93,-0.200,0.000
94,-0.195,0.005
95,-0.195,0.005
96,-0.195,0.005
97,-0.195,0.000
98,-0.195,-0.005
99,-0.200,-0.005
100,-0.205,-0.005
101,-0.200,-0.005
102,-0.195,-0.005
103,-0.200,0.000
104,-0.205,0.005
105,-0.205,0.000
106,-0.205,-0.005
107,-0.200,-0.005
108,-0.195,-0.005
109,-0.200,-0.005
110,-0.205,-0.005
111,-0.200,-0.005
112,-0.195,-0.005
113,-0.200,-0.010
114,-0.205,-0.015
115,-0.210,-0.015
116,-0.210,-0.015
117,-0.200,-0.015
118,-0.195,-0.015
119,-0.195,-0.010
120,-0.195,-0.005
121,-0.195,-0.005
122,-0.195,-0.005
123,-0.195,-0.010
124,-0.195,-0.015
125,-0.195,-0.015
126,-0.190,-0.015
127,-0.185,-0.015
128,-0.190,-0.015
129,-0.195,-0.015
130,-0.195,-0.020
131,-0.195,-0.025
132,-0.195,-0.020
133,-0.195,-0.015
134,-0.190,-0.010
135,-0.185,-0.005
136,-0.190,-0.010
137,-0.195,-0.015
138,-0.195,-0.020
139,-0.195,-0.025
140,-0.195,-0.025
141,-0.195,-0.025
142,-0.195,-0.025
143,-0.195,-0.025
144,-0.190,-0.025
145,-0.185,-0.025
146,-0.190,-0.030
147,-0.195,-0.035
148,-0.190,-0.030
149,-0.185,-0.025
150,-0.185,-0.020
151,-0.185,-0.015
152,-0.180,-0.020
153,-0.175,-0.025
154,-0.180,-0.025
155,-0.185,-0.025
156,-0.180,-0.025
157,-0.175,-0.025
158,-0.170,-0.020
159,-0.165,-0.015
160,-0.165,-0.020
161,-0.165,-0.025
162,-0.170,-0.030
163,-0.170,-0.035
164,-0.160,-0.030
165,-0.155,-0.025
166,-0.150,-0.020
167,-0.160,-0.025
168,-0.175,-0.035
169,-0.180,-0.040
170,-0.185,-0.045
171,-0.165,-0.035
172,-0.145,-0.025
173,-0.115,-0.010
174,-0.085,0.005
175,-0.090,0.000
176,-0.095,-0.010
177,-0.085,-0.040
178,-0.075,-0.065
179,-0.060,-0.055
180,-0.050,-0.045
181,-0.075,-0.050
182,-0.100,-0.055
183,-0.120,-0.055
184,-0.135,-0.055
185,-0.135,-0.050
186,-0.135,-0.045
187,-0.125,-0.045
188,-0.120,-0.040
189,-0.130,-0.025
190,-0.140,-0.015
191,-0.155,-0.020
192,-0.165,-0.030
193,-0.170,-0.040
194,-0.175,-0.045
195,-0.175,-0.040
196,-0.175,-0.035
197,-0.170,-0.030
198,-0.165,-0.025
199,-0.170,-0.025
200,-0.175,-0.025
201,-0.170,-0.030
202,-0.155,-0.035
203,-0.140,-0.030
204,-0.140,-0.025
205,-0.150,-0.020
206,-0.395,0.055
207,-0.655,0.130
208,-0.885,0.120
209,-1.115,0.095
210,-0.855,-0.060
211,-0.550,-0.210
212,0.490,-0.360
213,1.505,-0.475
214,2.255,-0.260
215,2.910,-0.045
216,3.005,0.145
217,3.065,0.325
218,2.960,0.450
219,2.645,0.455
220,1.725,0.085
221,0.880,-0.245
222,0.210,-0.490
223,-0.240,-0.590
224,-0.265,-0.390
225,-0.275,-0.225
226,-0.240,-0.120
227,-0.225,-0.050
228,-0.255,-0.030
229,-0.285,-0.020
230,-0.310,-0.035
231,-0.330,-0.045
232,-0.340,-0.050
233,-0.345,-0.055
234,-0.345,-0.055
235,-0.345,-0.055
236,-0.340,-0.050
237,-0.335,-0.045
238,-0.330,-0.050
239,-0.325,-0.055
240,-0.325,-0.060
241,-0.325,-0.065
242,-0.320,-0.060
243,-0.310,-0.055
244,-0.300,-0.055
245,-0.295,-0.055
246,-0.290,-0.060
247,-0.280,-0.065
248,-0.270,-0.070
249,-0.265,-0.075
250,-0.265,-0.075
251,-0.250,-0.075
252,-0.245,-0.075
253,-0.240,-0.085
254,-0.235,-0.095
255,-0.230,-0.105
256,-0.225,-0.115
257,-0.220,-0.120
258,-0.215,-0.125
259,-0.200,-0.125
260,-0.185,-0.125
261,-0.180,-0.140
262,-0.175,-0.155
263,-0.165,-0.165
264,-0.155,-0.175
265,-0.145,-0.185
266,-0.135,-0.195
267,-0.125,-0.200
268,-0.115,-0.210
269,-0.105,-0.225
270,-0.095,-0.235
271,-0.080,-0.250
272,-0.070,-0.255
273,-0.055,-0.260
274,-0.035,-0.265
275,-0.005,-0.265
276,0.010,-0.270
277,0.020,-0.280
278,0.035,-0.285
279,0.050,-0.290
280,0.065,-0.295
281,0.080,-0.290
282,0.095,-0.285
283,0.110,-0.280
284,0.115,-0.270
285,0.115,-0.260
286,0.120,-0.255
287,0.130,-0.250
288,0.130,-0.225
289,0.120,-0.200
290,0.100,-0.175
291,0.080,-0.150
292,0.050,-0.130
293,0.025,-0.115
294,0.000,-0.100
295,-0.025,-0.085
296,-0.045,-0.075
297,-0.065,-0.065
298,-0.085,-0.050
299,-0.105,-0.035
300,-0.115,-0.035
301,-0.125,-0.035
302,-0.140,-0.035
303,-0.155,-0.035
304,-0.160,-0.030
305,-0.165,-0.025
306,-0.165,-0.020
307,-0.165,-0.015
308,-0.170,-0.015
309,-0.175,-0.015
310,-0.170,-0.015
311,-0.165,-0.015
312,-0.165,-0.015
313,-0.165,-0.015
314,-0.170,-0.010
315,-0.175,-0.005
316,-0.175,-0.005
317,-0.175,-0.005
318,-0.180,-0.010
319,-0.185,-0.010
320,-0.185,0.000
321,-0.185,0.005
322,-0.180,0.005
323,-0.175,0.005
324,-0.175,0.000
325,-0.175,-0.005
326,-0.175,-0.010
327,-0.175,-0.015
328,-0.175,-0.010
329,-0.175,-0.005
330,-0.170,0.000
331,-0.170,0.005
332,-0.180,0.000
333,-0.185,-0.005
334,-0.195,-0.005
335,-0.195,-0.005
336,-0.195,-0.005
337,-0.190,-0.005
338,-0.185,-0.005
339,-0.190,-0.005
340,-0.195,-0.005
341,-0.195,-0.010
342,-0.195,-0.015
343,-0.185,-0.015
344,-0.175,-0.015
345,-0.170,-0.010
346,-0.165,-0.005
347,-0.175,-0.010
348,-0.185,-0.015
349,-0.185,-0.020
350,-0.185,-0.025
351,-0.185,-0.020
352,-0.185,-0.015
353,-0.175,-0.015
354,-0.165,-0.015
355,-0.180,-0.020
356,-0.185,-0.025
357,-0.185,-0.025
358,-0.185,-0.025
359,-0.180,-0.025
360,-0.170,-0.020
361,-0.160,-0.010
362,-0.155,-0.010
363,-0.160,-0.020
364,-0.165,-0.025
365,-0.170,-0.025
366,-0.175,-0.025
367,-0.170,-0.025
368,-0.165,-0.025
369,-0.160,-0.025
370,-0.155,-0.025
371,-0.155,-0.030
372,-0.155,-0.035
373,-0.160,-0.035
374,-0.160,-0.035
375,-0.165,-0.035
376,-0.150,-0.030
377,-0.155,-0.025
378,-0.155,-0.025
379,-0.155,-0.025
380,-0.155,-0.025
381,-0.155,-0.025
382,-0.160,-0.030
383,-0.165,-0.035
384,-0.150,-0.035
385,-0.135,-0.035
386,-0.135,-0.030
387,-0.135,-0.025
388,-0.140,-0.030
389,-0.145,-0.035
390,-0.140,-0.035
391,-0.135,-0.035
392,-0.135,-0.030
393,-0.135,-0.025
394,-0.135,-0.030
395,-0.135,-0.035
396,-0.130,-0.040
397,-0.125,-0.045
398,-0.130,-0.045
399,-0.135,-0.040
400,-0.135,-0.030
401,-0.135,-0.025
402,-0.135,-0.030
403,-0.135,-0.035
404,-0.130,-0.040
405,-0.125,-0.045
406,-0.125,-0.045
407,-0.125,-0.045
408,-0.120,-0.040
409,-0.115,-0.035
410,-0.120,-0.035
411,-0.125,-0.035
412,-0.130,-0.040
413,-0.130,-0.045
414,-0.120,-0.050
415,-0.115,-0.050
416,-0.110,-0.040
417,-0.115,-0.040
418,-0.125,-0.045
419,-0.120,-0.050
420,-0.115,-0.055
421,-0.115,-0.055
422,-0.115,-0.055
423,-0.100,-0.045
424,-0.080,-0.035
425,-0.050,-0.040
426,-0.025,-0.045
427,-0.035,-0.030
428,-0.045,-0.020
429,-0.035,-0.050
430,-0.020,-0.075
431,0.015,-0.070
432,0.025,-0.065
433,-0.010,-0.065
434,-0.045,-0.065
435,-0.070,-0.065
436,-0.085,-0.065
437,-0.075,-0.065
438,-0.060,-0.065
439,-0.050,-0.060
440,-0.055,-0.050
441,-0.080,-0.035
442,-0.100,-0.030
443,-0.110,-0.040
444,-0.115,-0.045
445,-0.110,-0.050
446,-0.105,-0.055
447,-0.110,-0.050
448,-0.115,-0.045
449,-0.110,-0.040
450,-0.105,-0.035
451,-0.110,-0.040
452,-0.115,-0.045
453,-0.110,-0.045
454,-0.085,-0.045
455,-0.060,-0.045
456,-0.065,-0.045
457,-0.080,-0.045
458,-0.365,0.010
459,-0.655,0.075
460,-0.895,0.035
461,-1.110,-0.010
462,-0.790,-0.120
463,-0.405,-0.240
464,0.550,-0.410
465,1.470,-0.525
466,2.235,-0.305
467,2.865,-0.080
468,2.965,0.155
469,3.025,0.380
470,2.925,0.575
471,2.635,0.700
472,1.895,0.630
473,1.140,0.385
474,0.360,-0.205
475,-0.150,-0.535
476,-0.250,-0.460
477,-0.275,-0.360
478,-0.205,-0.225
479,-0.180,-0.140
480,-0.215,-0.095
481,-0.245,-0.075
482,-0.265,-0.080
483,-0.275,-0.090
484,-0.275,-0.100
485,-0.275,-0.100
486,-0.270,-0.090
487,-0.265,-0.085
488,-0.270,-0.080
489,-0.270,-0.085
490,-0.260,-0.100
491,-0.255,-0.105
492,-0.250,-0.100
493,-0.245,-0.095
494,-0.245,-0.100
495,-0.245,-0.105
496,-0.245,-0.110
497,-0.240,-0.120
498,-0.230,-0.130
499,-0.225,-0.135
500,-0.225,-0.135
501,-0.215,-0.135
502,-0.205,-0.145
503,-0.190,-0.150
504,-0.175,-0.155
505,-0.170,-0.160
506,-0.165,-0.165
507,-0.155,-0.170
508,-0.145,-0.175
509,-0.135,-0.175
510,-0.125,-0.175
511,-0.125,-0.190
512,-0.125,-0.205
513,-0.120,-0.215
514,-0.110,-0.225
515,-0.090,-0.230
516,-0.075,-0.235
517,-0.070,-0.235
518,-0.060,-0.235
519,-0.045,-0.245
520,-0.025,-0.255
521,0.000,-0.270
522,0.015,-0.280
523,0.020,-0.295
524,0.030,-0.305
525,0.040,-0.305
526,0.050,-0.305
527,0.065,-0.310
528,0.080,-0.315
529,0.090,-0.320
530,0.105,-0.325
531,0.120,-0.330
532,0.125,-0.330
533,0.130,-0.320
534,0.140,-0.320
535,0.150,-0.330
536,0.155,-0.330
537,0.160,-0.320
538,0.170,-0.310
539,0.180,-0.300
540,0.175,-0.270
541,0.160,-0.240
542,0.140,-0.220
543,0.125,-0.205
544,0.110,-0.180
545,0.095,-0.155
546,0.075,-0.135
547,0.055,-0.115
548,0.025,-0.095
549,-0.005,-0.075
550,-0.015,-0.065
551,-0.025,-0.055
552,-0.040,-0.045
553,-0.060,-0.035
554,-0.080,-0.025
555,-0.095,-0.015
556,-0.100,-0.005
557,-0.105,0.005
558,-0.115,0.000
559,-0.125,-0.005
560,-0.125,0.000
561,-0.125,0.005
562,-0.120,0.005
563,-0.115,0.005
564,-0.115,0.005
565,-0.120,0.005
566,-0.130,0.000
567,-0.135,-0.005
568,-0.130,-0.005
569,-0.125,-0.005
570,-0.130,0.000
571,-0.135,0.005
572,-0.130,0.010
573,-0.130,0.015
574,-0.140,0.015
575,-0.145,0.005
576,-0.140,-0.010
577,-0.135,-0.015
578,-0.135,-0.020
579,-0.135,-0.015
580,-0.135,0.000
581,-0.135,0.005
582,-0.140,0.005
583,-0.145,0.000
584,-0.155,-0.015
585,-0.145,-0.015
586,-0.135,-0.015
587,-0.135,-0.005
588,-0.135,0.005
589,-0.150,0.000
590,-0.165,-0.005
591,-0.160,-0.010
592,-0.155,-0.015
593,-0.160,-0.015
594,-0.165,-0.015
595,-0.160,-0.005
596,-0.155,0.005
597,-0.155,-0.005
598,-0.155,-0.015
599,-0.160,-0.020
600,-0.165,-0.025
601,-0.170,-0.025
602,-0.175,-0.025
603,-0.165,-0.015
604,-0.155,-0.005
605,-0.150,-0.020
606,-0.145,-0.025
607,-0.150,-0.030
608,-0.155,-0.035
609,-0.150,-0.030
610,-0.145,-0.020
611,-0.145,-0.010
612,-0.150,-0.010
613,-0.160,-0.020
614,-0.165,-0.025
615,-0.160,-0.025
616,-0.155,-0.025
617,-0.155,-0.025
618,-0.155,-0.025
619,-0.155,-0.025
620,-0.155,-0.025
621,-0.160,-0.025
622,-0.165,-0.025
623,-0.160,-0.030
624,-0.155,-0.035
625,-0.155,-0.035
626,-0.145,-0.030
627,-0.145,-0.025
628,-0.145,-0.025
629,-0.145,-0.025
630,-0.140,-0.030
631,-0.135,-0.035
632,-0.135,-0.040
633,-0.135,-0.045
634,-0.135,-0.040
635,-0.135,-0.035
636,-0.135,-0.035
637,-0.135,-0.035
638,-0.135,-0.035
639,-0.135,-0.035
640,-0.130,-0.035
641,-0.125,-0.035
642,-0.125,-0.035
643,-0.125,-0.035
644,-0.130,-0.035
645,-0.135,-0.035
646,-0.130,-0.050
647,-0.125,-0.055
648,-0.125,-0.050
649,-0.125,-0.045
650,-0.120,-0.040
651,-0.115,-0.035
652,-0.120,-0.040
653,-0.125,-0.045
654,-0.125,-0.050
655,-0.125,-0.055
656,-0.125,-0.055
657,-0.125,-0.055
658,-0.130,-0.055
659,-0.130,-0.055
660,-0.120,-0.055
661,-0.090,-0.055
662,-0.060,-0.055
663,-0.055,-0.040
664,-0.055,-0.020
665,-0.045,-0.035
666,-0.030,-0.060
667,-0.015,-0.065
668,-0.005,-0.065
669,-0.035,-0.075
670,-0.065,-0.085
671,-0.075,-0.085
672,-0.085,-0.085
673,-0.085,-0.070
674,-0.085,-0.055
675,-0.085,-0.060
676,-0.085,-0.065
677,-0.095,-0.055
678,-0.105,-0.045
679,-0.115,-0.050
680,-0.125,-0.055
681,-0.125,-0.055
682,-0.125,-0.055
683,-0.130,-0.055
684,-0.135,-0.055
685,-0.135,-0.055
686,-0.135,-0.055
687,-0.135,-0.055
688,-0.130,-0.055
689,-0.120,-0.050
690,-0.110,-0.045
691,-0.095,-0.050
692,-0.090,-0.055
693,-0.100,-0.055
694,-0.225,-0.035
695,-0.420,0.000
696,-0.720,0.040
697,-1.070,0.080
698,-0.970,0.005
699,-0.695,-0.125
700,0.085,-0.290
701,1.005,-0.465
702,1.885,-0.400
703,2.755,-0.280
704,3.005,-0.035
705,3.170,0.230
706,3.070,0.420
707,2.940,0.595
708,2.185,0.575
709,1.405,0.530
710,0.600,-0.055
711,-0.160,-0.600
712,-0.255,-0.520
713,-0.340,-0.430
714,-0.280,-0.290
715,-0.225,-0.160
716,-0.240,-0.120
717,-0.260,-0.085
718,-0.285,-0.085
719,-0.305,-0.085
720,-0.310,-0.085
721,-0.315,-0.085
722,-0.315,-0.090
723,-0.315,-0.095
724,-0.315,-0.095
725,-0.315,-0.095
726,-0.310,-0.090
727,-0.300,-0.085
728,-0.285,-0.085
729,-0.275,-0.085
730,-0.280,-0.100
731,-0.285,-0.105
732,-0.280,-0.110
733,-0.270,-0.115
734,-0.260,-0.115
735,-0.255,-0.115
736,-0.250,-0.115
737,-0.245,-0.115
738,-0.245,-0.120
739,-0.235,-0.130
740,-0.220,-0.140
741,-0.215,-0.145
742,-0.210,-0.145
743,-0.205,-0.145
744,-0.200,-0.145
745,-0.190,-0.155
746,-0.180,-0.170
747,-0.175,-0.180
748,-0.170,-0.190
749,-0.160,-0.195
750,-0.165,-0.195
751,-0.135,-0.205
752,-0.125,-0.205
753,-0.125,-0.220
754,-0.125,-0.235
755,-0.110,-0.245
756,-0.095,-0.255
757,-0.085,-0.260
758,-0.075,-0.265
759,-0.060,-0.275
760,-0.045,-0.285
761,-0.020,-0.295
762,-0.005,-0.305
763,0.010,-0.310
764,0.030,-0.315
765,0.045,-0.320
766,0.055,-0.325
767,0.065,-0.325
768,0.075,-0.325
769,0.085,-0.325
770,0.095,-0.325
771,0.100,-0.325
772,0.110,-0.320
773,0.120,-0.310
774,0.125,-0.300
775,0.130,-0.285
776,0.130,-0.265
777,0.115,-0.245
778,0.095,-0.225
779,0.075,-0.210
780,0.050,-0.190
781,0.025,-0.165
782,0.000,-0.140
783,-0.020,-0.120
784,-0.045,-0.110
785,-0.080,-0.100
786,-0.105,-0.090
787,-0.130,-0.080
788,-0.140,-0.065
789,-0.150,-0.050
790,-0.160,-0.040
791,-0.170,-0.030
792,-0.180,-0.030
793,-0.185,-0.035
794,-0.185,-0.040
795,-0.185,-0.045
796,-0.185,-0.040
797,-0.185,-0.035
798,-0.190,-0.030
799,-0.195,-0.025
800,-0.195,-0.025
801,-0.195,-0.025
802,-0.200,-0.030
803,-0.205,-0.035
804,-0.200,-0.035
805,-0.195,-0.035
806,-0.195,-0.030
807,-0.195,-0.025
808,-0.195,-0.025
809,-0.195,-0.025
810,-0.190,-0.030
811,-0.185,-0.035
812,-0.190,-0.030
813,-0.195,-0.025
814,-0.190,-0.020
815,-0.185,-0.015
816,-0.190,-0.020
817,-0.195,-0.025
818,-0.195,-0.025
819,-0.195,-0.025
820,-0.195,-0.025
821,-0.195,-0.025
822,-0.195,-0.020
823,-0.195,-0.020
824,-0.195,-0.030
825,-0.200,-0.035
826,-0.210,-0.035
827,-0.210,-0.035
828,-0.200,-0.035
829,-0.195,-0.035
830,-0.200,-0.030
831,-0.205,-0.025
832,-0.205,-0.025
833,-0.205,-0.025
834,-0.205,-0.035
835,-0.205,-0.030
836,-0.205,-0.025
837,-0.200,-0.025
838,-0.195,-0.025
839,-0.200,-0.030
840,-0.205,-0.035
841,-0.205,-0.040
842,-0.205,-0.045
843,-0.205,-0.040
844,-0.205,-0.035
845,-0.200,-0.030
846,-0.195,-0.025
847,-0.200,-0.030
848,-0.205,-0.035
849,-0.205,-0.040
850,-0.205,-0.045
851,-0.195,-0.045
852,-0.185,-0.045
853,-0.190,-0.040
854,-0.195,-0.035
855,-0.195,-0.035
856,-0.195,-0.035
857,-0.195,-0.040
858,-0.195,-0.045
859,-0.195,-0.045
860,-0.195,-0.045
861,-0.190,-0.040
862,-0.185,-0.035
863,-0.185,-0.040
864,-0.185,-0.045
865,-0.185,-0.050
866,-0.185,-0.055
867,-0.180,-0.050
868,-0.175,-0.045
869,-0.175,-0.045
870,-0.175,-0.045
871,-0.175,-0.045
872,-0.175,-0.045
873,-0.180,-0.050
874,-0.185,-0.055
875,-0.185,-0.055
876,-0.170,-0.045
877,-0.165,-0.045
878,-0.170,-0.045
879,-0.175,-0.045
880,-0.175,-0.050
881,-0.175,-0.055
882,-0.175,-0.055
883,-0.175,-0.055
884,-0.170,-0.050
885,-0.165,-0.045
886,-0.165,-0.050
887,-0.165,-0.055
888,-0.165,-0.060
889,-0.165,-0.065
890,-0.165,-0.060
891,-0.165,-0.055
892,-0.155,-0.050
893,-0.145,-0.045
894,-0.150,-0.050
895,-0.155,-0.055
896,-0.160,-0.060
897,-0.165,-0.065
898,-0.165,-0.065
899,-0.165,-0.065
900,-0.160,-0.065
901,-0.145,-0.065
902,-0.125,-0.060
903,-0.105,-0.050
904,-0.085,-0.040
905,-0.080,-0.035
906,-0.090,-0.040
907,-0.070,-0.060
908,-0.035,-0.085
909,-0.035,-0.090
910,-0.050,-0.080
911,-0.080,-0.085
912,-0.110,-0.100
913,-0.115,-0.095
914,-0.120,-0.080
915,-0.120,-0.075
916,-0.110,-0.070
917,-0.110,-0.065
918,-0.115,-0.065
919,-0.130,-0.060
920,-0.145,-0.055
921,-0.150,-0.060
922,-0.155,-0.065
923,-0.155,-0.060
924,-0.155,-0.055
925,-0.155,-0.055
926,-0.155,-0.055
927,-0.160,-0.055
928,-0.165,-0.055
929,-0.160,-0.055
930,-0.155,-0.055
931,-0.145,-0.050
932,-0.135,-0.045
933,-0.130,-0.045
934,-0.145,-0.045
935,-0.210,-0.035
936,-0.400,0.015
937,-0.750,0.105
938,-0.940,0.105
939,-0.970,-0.005
940,-0.675,-0.160
941,-0.110,-0.355
942,0.750,-0.435
943,1.805,-0.430
944,2.470,-0.270
945,2.915,-0.025
946,3.050,0.190
947,3.040,0.390
948,2.750,0.445
949,2.355,0.450
950,1.465,0.055
951,0.445,-0.455
952,0.010,-0.530
953,-0.305,-0.510
954,-0.290,-0.350
955,-0.225,-0.170
956,-0.225,-0.110
957,-0.240,-0.060
958,-0.275,-0.060
959,-0.315,-0.075
960,-0.320,-0.075
961,-0.325,-0.075
962,-0.325,-0.075
963,-0.325,-0.075
964,-0.325,-0.080
965,-0.325,-0.085
966,-0.325,-0.085
967,-0.325,-0.085
968,-0.325,-0.085
969,-0.325,-0.085
970,-0.310,-0.080
971,-0.295,-0.075
972,-0.295,-0.085
973,-0.295,-0.095
974,-0.290,-0.100
975,-0.285,-0.105
976,-0.275,-0.100
977,-0.265,-0.095
978,-0.255,-0.095
979,-0.245,-0.095
980,-0.240,-0.110
981,-0.235,-0.115
982,-0.230,-0.120
983,-0.225,-0.125
984,-0.220,-0.130
985,-0.215,-0.135
986,-0.210,-0.135
987,-0.205,-0.145
988,-0.200,-0.160
989,-0.195,-0.165
990,-0.190,-0.170
991,-0.175,-0.175
992,-0.160,-0.180
993,-0.155,-0.190
994,-0.150,-0.200
995,-0.135,-0.210
996,-0.120,-0.220
997,-0.110,-0.235
998,-0.100,-0.250
999,-0.085,-0.255
1000,-0.095,-0.255
1001,-0.045,-0.270
1002,-0.025,-0.275
1003,-0.015,-0.285
1004,-0.005,-0.295
1005,0.015,-0.305
1006,0.035,-0.315
1007,0.055,-0.315
1008,0.075,-0.315
1009,0.090,-0.310
1010,0.105,-0.305
1011,0.120,-0.305
1012,0.135,-0.305
1013,0.145,-0.300
1014,0.155,-0.290
1015,0.155,-0.270
1016,0.155,-0.250
1017,0.150,-0.235
1018,0.140,-0.220
1019,0.120,-0.200
1020,0.095,-0.180
1021,0.070,-0.155
1022,0.045,-0.135
1023,0.025,-0.115
1024,0.005,-0.100
1025,-0.015,-0.085
1026,-0.035,-0.075
1027,-0.055,-0.075
1028,-0.075,-0.070
1029,-0.095,-0.060
1030,-0.115,-0.050
1031,-0.130,-0.040
1032,-0.135,-0.035
1033,-0.135,-0.030
1034,-0.140,-0.025
1035,-0.150,-0.030
1036,-0.155,-0.035
1037,-0.160,-0.035
1038,-0.165,-0.035
1039,-0.160,-0.030
1040,-0.155,-0.025
1041,-0.155,-0.025
1042,-0.155,-0.025
1043,-0.155,-0.025
1044,-0.160,-0.025
1045,-0.165,-0.025
1046,-0.160,-0.020
1047,-0.155,-0.015
1048,-0.150,-0.010
1049,-0.145,-0.005
1050,-0.150,-0.010
1051,-0.155,-0.015
1052,-0.155,-0.015
1053,-0.155,-0.015
1054,-0.155,-0.010
1055,-0.155,-0.005
1056,-0.155,-0.005
1057,-0.155,-0.005
1058,-0.160,-0.005
1059,-0.165,-0.005
1060,-0.165,-0.010
1061,-0.165,-0.015
1062,-0.170,-0.010
1063,-0.170,-0.005
1064,-0.160,-0.005
1065,-0.160,-0.005
1066,-0.170,-0.010
1067,-0.175,-0.015
1068,-0.175,-0.015
1069,-0.175,-0.015
1070,-0.175,-0.015
1071,-0.170,-0.015
1072,-0.160,-0.015
1073,-0.155,-0.015
1074,-0.150,-0.015
1075,-0.145,-0.015
1076,-0.150,-0.015
1077,-0.160,-0.015
1078,-0.170,-0.020
1079,-0.170,-0.020
1080,-0.160,-0.010
1081,-0.155,-0.010
1082,-0.155,-0.020
1083,-0.160,-0.025
1084,-0.175,-0.035
1085,-0.175,-0.025
1086,-0.175,-0.015
1087,-0.160,-0.010
1088,-0.145,-0.005
1089,-0.140,-0.010
1090,-0.135,-0.015
1091,-0.135,-0.020
1092,-0.135,-0.025
1093,-0.135,-0.030
1094,-0.135,-0.035
1095,-0.140,-0.030
1096,-0.145,-0.025
1097,-0.145,-0.025
1098,-0.145,-0.025
1099,-0.140,-0.025
1100,-0.135,-0.025
1101,-0.140,-0.025
1102,-0.145,-0.025
1103,-0.135,-0.020
1104,-0.125,-0.015
1105,-0.130,-0.015
1106,-0.135,-0.020
1107,-0.130,-0.030
1108,-0.125,-0.035
1109,-0.120,-0.030
1110,-0.115,-0.025
1111,-0.115,-0.020
1112,-0.115,-0.015
1113,-0.120,-0.015
1114,-0.125,-0.020
1115,-0.125,-0.030
1116,-0.125,-0.035
1117,-0.125,-0.030
1118,-0.120,-0.025
1119,-0.110,-0.025
1120,-0.105,-0.025
1121,-0.110,-0.030
1122,-0.115,-0.035
1123,-0.115,-0.040
1124,-0.115,-0.045
1125,-0.115,-0.045
1126,-0.100,-0.025
1127,-0.095,-0.015
1128,-0.100,-0.025
1129,-0.105,-0.035
1130,-0.110,-0.040
1131,-0.115,-0.045
1132,-0.105,-0.045
1133,-0.095,-0.045
1134,-0.090,-0.035
1135,-0.085,-0.025
1136,-0.090,-0.035
1137,-0.095,-0.045
1138,-0.095,-0.045
1139,-0.095,-0.045
1140,-0.095,-0.045
1141,-0.095,-0.045
1142,-0.100,-0.040
1143,-0.095,-0.035
1144,-0.065,-0.030
1145,-0.045,-0.025
1146,-0.030,-0.020
1147,-0.025,-0.015
1148,-0.025,-0.015
1149,-0.015,-0.025
1150,0.015,-0.055
1151,0.025,-0.065
1152,0.030,-0.060
1153,0.005,-0.055
1154,-0.040,-0.060
1155,-0.055,-0.065
1156,-0.060,-0.060
1157,-0.065,-0.055
1158,-0.060,-0.050
1159,-0.055,-0.045
1160,-0.050,-0.045
1161,-0.055,-0.045
1162,-0.070,-0.040
1163,-0.080,-0.035
1164,-0.090,-0.035
1165,-0.095,-0.035
1166,-0.090,-0.035
1167,-0.085,-0.040
1168,-0.085,-0.045
1169,-0.085,-0.035
1170,-0.085,-0.025
1171,-0.090,-0.025
1172,-0.095,-0.025
1173,-0.085,-0.025
1174,-0.075,-0.025
1175,-0.060,-0.025
1176,-0.055,-0.025
1177,-0.105,-0.030
1178,-0.235,-0.020
1179,-0.590,0.045
1180,-0.870,0.080
1181,-0.980,0.025
1182,-0.880,-0.060
1183,-0.380,-0.185
1184,0.345,-0.310
1185,1.410,-0.435
1186,2.250,-0.380
1187,2.825,-0.090
1188,3.080,0.140
1189,3.010,0.320
1190,2.835,0.515
1191,2.580,0.720
1192,1.890,0.590
1193,0.895,0.220
1194,0.250,-0.125
1195,-0.195,-0.460
1196,-0.300,-0.475
1197,-0.240,-0.345
1198,-0.200,-0.230
1199,-0.165,-0.130
1200,-0.175,-0.090
1201,-0.205,-0.070
1202,-0.230,-0.070
1203,-0.250,-0.080
1204,-0.255,-0.085
1205,-0.255,-0.085
1206,-0.255,-0.085
1207,-0.255,-0.085
1208,-0.255,-0.085
1209,-0.245,-0.085
1210,-0.240,-0.090
1211,-0.235,-0.095
1212,-0.240,-0.085
1213,-0.245,-0.075
1214,-0.240,-0.085
1215,-0.235,-0.095
1216,-0.215,-0.100
1217,-0.195,-0.105
1218,-0.195,-0.105
1219,-0.195,-0.105
1220,-0.195,-0.105
1221,-0.195,-0.105
1222,-0.185,-0.120
1223,-0.175,-0.135
1224,-0.170,-0.140
1225,-0.165,-0.145
1226,-0.155,-0.145
1227,-0.145,-0.145
1228,-0.140,-0.140
1229,-0.135,-0.135
1230,-0.135,-0.150
1231,-0.130,-0.160
1232,-0.115,-0.175
1233,-0.100,-0.190
1234,-0.085,-0.200
1235,-0.070,-0.205
1236,-0.060,-0.200
1237,-0.050,-0.205
1238,-0.040,-0.225
1239,-0.035,-0.240
1240,-0.030,-0.250
1241,-0.015,-0.260
1242,0.000,-0.270
1243,0.015,-0.275
1244,0.030,-0.275
1245,0.045,-0.285
1246,0.060,-0.300
1247,0.080,-0.305
1248,0.100,-0.305
1249,0.115,-0.305
1250,0.105,-0.305
1251,0.140,-0.315
1252,0.145,-0.315
1253,0.155,-0.320
1254,0.165,-0.325
1255,0.170,-0.320
1256,0.175,-0.315
1257,0.195,-0.300
1258,0.215,-0.285
1259,0.210,-0.265
1260,0.205,-0.245
1261,0.190,-0.230
1262,0.170,-0.210
1263,0.150,-0.190
1264,0.130,-0.170
1265,0.105,-0.145
1266,0.080,-0.120
1267,0.065,-0.090
1268,0.045,-0.075
1269,0.015,-0.065
1270,-0.015,-0.055
1271,-0.040,-0.040
1272,-0.060,-0.030
1273,-0.070,-0.015
1274,-0.080,0.000
1275,-0.090,0.010
1276,-0.100,0.015
1277,-0.110,0.015
1278,-0.115,0.015
1279,-0.120,0.015
1280,-0.125,0.015
1281,-0.125,0.010
1282,-0.125,0.015
1283,-0.130,0.030
1284,-0.135,0.035
1285,-0.135,0.030
1286,-0.130,0.020
1287,-0.120,0.010
1288,-0.115,0.010
1289,-0.120,0.020
1290,-0.125,0.025
1291,-0.130,0.025
1292,-0.140,0.020
1293,-0.145,0.015
1294,-0.145,0.010
1295,-0.145,0.005
1296,-0.135,0.010
1297,-0.125,0.015
1298,-0.135,0.015
1299,-0.145,0.015
1300,-0.150,0.010
1301,-0.155,0.005
1302,-0.155,0.005
1303,-0.155,0.005
1304,-0.150,0.005
1305,-0.145,0.005
1306,-0.140,0.010
1307,-0.135,0.015
1308,-0.140,0.015
1309,-0.145,0.015
1310,-0.150,0.005
1311,-0.155,-0.005
1312,-0.155,0.000
1313,-0.155,0.010
1314,-0.155,0.020
1315,-0.155,0.020
1316,-0.155,0.010
1317,-0.155,0.005
1318,-0.160,0.000
1319,-0.160,-0.005
1320,-0.150,0.000
1321,-0.145,0.005
1322,-0.145,0.010
1323,-0.145,0.015
1324,-0.140,0.010
1325,-0.135,0.000
1326,-0.140,-0.010
1327,-0.145,-0.010
1328,-0.140,0.000
1329,-0.135,0.005
1330,-0.135,0.010
1331,-0.135,0.010
1332,-0.140,0.000
1333,-0.145,-0.005
1334,-0.135,-0.015
1335,-0.135,-0.010
1336,-0.135,-0.005
1337,-0.130,0.000
1338,-0.125,0.005
1339,-0.125,0.005
1340,-0.125,0.005
1341,-0.135,-0.005
1342,-0.145,-0.015
1343,-0.135,-0.010
1344,-0.125,-0.005
1345,-0.120,-0.005
1346,-0.115,-0.005
1347,-0.120,-0.005
1348,-0.125,-0.005
1349,-0.125,-0.015
1350,-0.125,-0.025
1351,-0.125,-0.020
1352,-0.125,-0.015
1353,-0.120,-0.010
1354,-0.115,-0.005
1355,-0.120,-0.005
1356,-0.125,-0.005
1357,-0.125,-0.010
1358,-0.125,-0.015
1359,-0.120,-0.015
1360,-0.115,-0.015
1361,-0.115,-0.010
1362,-0.115,-0.005
1363,-0.120,-0.010
1364,-0.125,-0.015
1365,-0.125,-0.020
1366,-0.110,-0.020
1367,-0.080,-0.010
1368,-0.060,-0.005
1369,-0.040,-0.010
1370,-0.040,-0.020
1371,-0.050,-0.030
1372,-0.025,-0.050
1373,0.010,-0.070
1374,-0.005,-0.055
1375,0.015,-0.075
1376,-0.050,-0.030
1377,-0.065,-0.035
1378,-0.080,-0.040
1379,-0.095,-0.045
1380,-0.090,-0.045
1381,-0.085,-0.045
1382,-0.075,-0.045
1383,-0.065,-0.045
1384,-0.075,-0.025
1385,-0.085,-0.005
1386,-0.095,-0.015
1387,-0.105,-0.025
1388,-0.110,-0.030
1389,-0.115,-0.035
1390,-0.115,-0.030
1391,-0.115,-0.025
1392,-0.115,-0.020
1393,-0.115,-0.015
1394,-0.110,-0.015
1395,-0.105,-0.015
1396,-0.105,-0.020
1397,-0.100,-0.025
1398,-0.085,-0.020
1399,-0.075,-0.015
1400,-0.075,-0.015
1401,-0.215,0.000
1402,-0.450,0.025
1403,-0.735,0.065
1404,-1.050,0.110
1405,-0.965,0.045
1406,-0.710,-0.075
1407,-0.020,-0.220
1408,0.815,-0.370
1409,1.715,-0.370
1410,2.630,-0.325
1411,2.960,-0.085
1412,3.180,0.190
1413,3.100,0.350
1414,2.975,0.495
1415,2.380,0.600
1416,1.755,0.700
1417,0.910,0.170
1418,0.080,-0.365
1419,-0.145,-0.440
1420,-0.350,-0.505
1421,-0.275,-0.345
1422,-0.205,-0.200
1423,-0.205,-0.120
1424,-0.210,-0.055
1425,-0.245,-0.055
1426,-0.275,-0.055
1427,-0.285,-0.060
1428,-0.295,-0.065
1429,-0.290,-0.070
1430,-0.285,-0.075
1431,-0.285,-0.070
1432,-0.285,-0.065
1433,-0.280,-0.065
1434,-0.275,-0.065
1435,-0.275,-0.070
1436,-0.275,-0.075
1437,-0.270,-0.075
1438,-0.265,-0.075
1439,-0.260,-0.075
1440,-0.255,-0.075
1441,-0.250,-0.080
1442,-0.245,-0.090
1443,-0.240,-0.100
1444,-0.235,-0.105
1445,-0.230,-0.100
1446,-0.220,-0.095
1447,-0.210,-0.100
1448,-0.205,-0.105
1449,-0.200,-0.110
1450,-0.195,-0.115
1451,-0.195,-0.120
1452,-0.185,-0.125
1453,-0.170,-0.130
1454,-0.165,-0.135
1455,-0.160,-0.140
1456,-0.150,-0.150
1457,-0.140,-0.160
1458,-0.135,-0.175
1459,-0.125,-0.195
1460,-0.115,-0.200
1461,-0.105,-0.205
1462,-0.095,-0.210
1463,-0.085,-0.215
1464,-0.070,-0.225
1465,-0.055,-0.235
1466,-0.045,-0.250
1467,-0.035,-0.265
1468,-0.025,-0.265
1469,-0.010,-0.265
1470,0.010,-0.270
1471,0.025,-0.275
1472,0.035,-0.285
1473,0.050,-0.295
1474,0.070,-0.305
1475,0.085,-0.315
1476,0.095,-0.310
1477,0.105,-0.305
1478,0.115,-0.300
1479,0.125,-0.295
1480,0.140,-0.290
1481,0.145,-0.280
1482,0.145,-0.270
1483,0.140,-0.255
1484,0.130,-0.235
1485,0.120,-0.215
1486,0.110,-0.195
1487,0.090,-0.175
1488,0.065,-0.155
1489,0.035,-0.135
1490,0.005,-0.120
1491,-0.020,-0.100
1492,-0.050,-0.080
1493,-0.070,-0.070
1494,-0.090,-0.060
1495,-0.105,-0.055
1496,-0.120,-0.050
1497,-0.130,-0.045
1498,-0.140,-0.040
1499,-0.150,-0.035
1500,-0.145,-0.035
1501,-0.165,-0.015
1502,-0.165,-0.005
1503,-0.165,-0.010
1504,-0.165,-0.015
1505,-0.170,-0.015
1506,-0.175,-0.015
1507,-0.170,-0.010
1508,-0.165,-0.005
1509,-0.165,0.000
1510,-0.165,0.005
1511,-0.165,0.000
1512,-0.165,-0.005
1513,-0.170,-0.010
1514,-0.175,-0.015
1515,-0.170,-0.015
1516,-0.165,-0.015
1517,-0.160,-0.010
1518,-0.155,-0.005
1519,-0.165,-0.010
1520,-0.175,-0.015
1521,-0.175,-0.015
1522,-0.175,-0.015
1523,-0.170,-0.015
1524,-0.165,-0.015
1525,-0.170,-0.010
1526,-0.175,-0.005
1527,-0.170,-0.010
1528,-0.165,-0.015
1529,-0.170,-0.015
1530,-0.175,-0.015
1531,-0.175,-0.015
1532,-0.175,-0.015
1533,-0.175,-0.010
1534,-0.175,-0.005
1535,-0.175,-0.010
1536,-0.175,-0.015
1537,-0.180,-0.020
1538,-0.185,-0.025
1539,-0.185,-0.020
1540,-0.185,-0.015
1541,-0.180,-0.015
1542,-0.175,-0.020
1543,-0.175,-0.025
1544,-0.175,-0.025
1545,-0.175,-0.025
1546,-0.175,-0.025
1547,-0.175,-0.025
1548,-0.170,-0.020
1549,-0.165,-0.015
1550,-0.165,-0.020
1551,-0.165,-0.025
1552,-0.165,-0.030
1553,-0.165,-0.035
1554,-0.165,-0.030
1555,-0.165,-0.025
1556,-0.160,-0.020
1557,-0.155,-0.015
1558,-0.160,-0.020
1559,-0.165,-0.025
1560,-0.165,-0.030
1561,-0.165,-0.035
1562,-0.165,-0.030
1563,-0.165,-0.025
1564,-0.165,-0.025
1565,-0.165,-0.025
1566,-0.160,-0.025
1567,-0.155,-0.025
1568,-0.155,-0.030
1569,-0.155,-0.035
1570,-0.155,-0.035
1571,-0.155,-0.035
1572,-0.150,-0.030
1573,-0.145,-0.025
1574,-0.145,-0.030
1575,-0.145,-0.035
1576,-0.145,-0.035
1577,-0.145,-0.035
1578,-0.145,-0.035
1579,-0.145,-0.035
1580,-0.145,-0.030
1581,-0.145,-0.025
1582,-0.145,-0.030
1583,-0.145,-0.035
1584,-0.155,-0.035
1585,-0.150,-0.035
1586,-0.145,-0.035
1587,-0.130,-0.025
1588,-0.115,-0.015
1589,-0.100,-0.020
1590,-0.085,-0.025
1591,-0.070,-0.035
1592,-0.055,-0.045
1593,-0.040,-0.060
1594,-0.025,-0.075
1595,-0.040,-0.065
1596,-0.060,-0.055
1597,-0.080,-0.050
1598,-0.095,-0.045
1599,-0.100,-0.050
1600,-0.105,-0.055
1601,-0.115,-0.050
1602,-0.125,-0.045
1603,-0.120,-0.050
1604,-0.115,-0.055
1605,-0.110,-0.040
1606,-0.110,-0.035
1607,-0.120,-0.030
1608,-0.125,-0.025
1609,-0.130,-0.030
1610,-0.135,-0.035
1611,-0.140,-0.030
1612,-0.145,-0.025
1613,-0.145,-0.030
1614,-0.145,-0.035
1615,-0.145,-0.040
1616,-0.145,-0.045
1617,-0.140,-0.040
1618,-0.130,-0.030
1619,-0.120,-0.020
1620,-0.110,-0.015
1621,-0.100,-0.020
1622,-0.135,-0.025
1623,-0.180,-0.025
1624,-0.480,0.055
1625,-0.185,-0.025
1626,-0.900,0.110
1627,-0.990,0.070
1628,-0.640,-0.080
1629,-0.220,-0.230
1630,0.795,-0.390
1631,1.765,-0.505
1632,2.415,-0.290
1633,2.955,-0.075
1634,3.015,0.145
1635,3.025,0.345
1636,2.855,0.485
1637,2.450,0.495
1638,1.460,0.175
1639,0.620,-0.145
1640,0.070,-0.450
1641,-0.270,-0.575
1642,-0.240,-0.385
1643,-0.220,-0.230
1644,-0.205,-0.125
1645,-0.205,-0.060
1646,-0.240,-0.045
1647,-0.265,-0.040
1648,-0.285,-0.050
1649,-0.295,-0.055
1650,-0.295,-0.055
1651,-0.295,-0.055
1652,-0.295,-0.060
1653,-0.295,-0.065
1654,-0.300,-0.065
1655,-0.305,-0.065
1656,-0.300,-0.065
1657,-0.290,-0.065
1658,-0.280,-0.060
1659,-0.275,-0.060
1660,-0.275,-0.070
1661,-0.275,-0.075
1662,-0.270,-0.080
1663,-0.260,-0.085
1664,-0.250,-0.085
1665,-0.245,-0.085
1666,-0.240,-0.085
1667,-0.230,-0.090
1668,-0.225,-0.095
1669,-0.220,-0.105
1670,-0.215,-0.115
1671,-0.205,-0.115
1672,-0.195,-0.115
1673,-0.185,-0.115
1674,-0.175,-0.115
1675,-0.175,-0.125
1676,-0.175,-0.135
1677,-0.170,-0.145
1678,-0.165,-0.155
1679,-0.155,-0.160
1680,-0.145,-0.165
1681,-0.135,-0.170
1682,-0.125,-0.175
1683,-0.115,-0.185
1684,-0.105,-0.200
1685,-0.100,-0.215
1686,-0.090,-0.225
1687,-0.075,-0.235
1688,-0.055,-0.245
1689,-0.035,-0.245
1690,-0.020,-0.250
1691,-0.005,-0.260
1692,0.010,-0.270
1693,0.020,-0.285
1694,0.030,-0.295
1695,0.050,-0.295
1696,0.065,-0.295
1697,0.080,-0.295
1698,0.095,-0.295
1699,0.110,-0.295
1700,0.115,-0.295
1701,0.120,-0.295
1702,0.130,-0.290
1703,0.140,-0.280
1704,0.150,-0.260
1705,0.160,-0.240
1706,0.165,-0.225
1707,0.160,-0.210
1708,0.135,-0.190
1709,0.105,-0.165
1710,0.085,-0.145
1711,0.065,-0.125
1712,0.045,-0.105
1713,0.025,-0.085
1714,0.000,-0.075
1715,-0.025,-0.065
1716,-0.045,-0.055
1717,-0.065,-0.045
1718,-0.085,-0.035
1719,-0.105,-0.025
1720,-0.110,-0.015
1721,-0.115,-0.005
1722,-0.125,-0.005
1723,-0.135,-0.005
1724,-0.135,-0.010
1725,-0.135,-0.015
1726,-0.135,-0.010
1727,-0.135,-0.005
1728,-0.135,0.000
1729,-0.135,0.005
1730,-0.135,0.010
1731,-0.140,0.010
1732,-0.150,0.000
1733,-0.150,-0.005
1734,-0.140,0.000
1735,-0.135,0.005
1736,-0.140,0.010
1737,-0.145,0.015
1738,-0.145,0.015
1739,-0.145,0.015
1740,-0.145,0.010
1741,-0.145,0.005
1742,-0.140,0.005
1743,-0.135,0.010
1744,-0.140,0.020
1745,-0.145,0.025
1746,-0.145,0.020
1747,-0.150,0.015
1748,-0.160,0.010
1749,-0.165,0.005
1750,-0.165,0.005
1751,-0.155,0.020
1752,-0.155,0.025
1753,-0.155,0.020
1754,-0.155,0.015
1755,-0.155,0.015
1756,-0.155,0.015
1757,-0.150,0.010
1758,-0.145,0.005
1759,-0.145,0.015
1760,-0.145,0.025
1761,-0.155,0.020
1762,-0.165,0.015
1763,-0.165,0.015
1764,-0.165,0.015
1765,-0.160,0.015
1766,-0.155,0.015
1767,-0.155,0.020
1768,-0.155,0.025
1769,-0.150,0.015
1770,-0.145,0.005
1771,-0.145,0.010
1772,-0.145,0.015
1773,-0.145,0.015
1774,-0.145,0.015
1775,-0.140,0.020
1776,-0.135,0.025
1777,-0.140,0.020
1778,-0.145,0.015
1779,-0.140,0.010
1780,-0.135,0.005
1781,-0.135,0.010
1782,-0.135,0.015
1783,-0.130,0.020
1784,-0.125,0.025
1785,-0.130,0.020
1786,-0.135,0.015
1787,-0.130,0.010
1788,-0.125,0.005
1789,-0.125,0.005
1790,-0.125,0.005
1791,-0.125,0.010
1792,-0.125,0.015
1793,-0.125,0.015
1794,-0.115,0.015
1795,-0.105,0.015
1796,-0.110,0.010
1797,-0.115,0.005
1798,-0.110,0.010
1799,-0.105,0.015
1800,-0.110,0.010
1801,-0.115,0.005
1802,-0.115,0.005
1803,-0.115,0.005
1804,-0.110,0.005
1805,-0.105,0.005
1806,-0.100,0.010
1807,-0.095,0.015
1808,-0.095,0.010
1809,-0.095,0.005
1810,-0.105,0.010
1811,-0.115,0.015
1812,-0.105,0.010
1813,-0.090,0.005
1814,-0.080,0.010
1815,-0.070,0.020
1816,-0.055,0.030
1817,-0.040,0.025
1818,-0.030,0.005
1819,-0.015,-0.010
1820,0.005,-0.020
1821,0.015,-0.025
1822,0.020,-0.025
1823,0.000,-0.015
1824,-0.035,0.000
1825,-0.045,0.005
1826,-0.045,0.005
1827,-0.050,0.005
1828,-0.060,0.000
1829,-0.065,-0.005
1830,-0.065,-0.005
1831,-0.065,0.000
1832,-0.060,0.010
1833,-0.055,0.020
1834,-0.065,0.035
1835,-0.070,0.030
1836,-0.075,0.025
1837,-0.080,0.025
1838,-0.085,0.025
1839,-0.095,0.025
1840,-0.105,0.025
1841,-0.100,0.035
1842,-0.095,0.045
1843,-0.090,0.045
1844,-0.085,0.045
1845,-0.075,0.050
1846,-0.065,0.055
1847,-0.055,0.050
1848,-0.045,0.045
1849,-0.050,0.050
1850,-0.135,0.065
1851,-0.350,0.100
1852,-0.605,0.145
1853,-0.905,0.195
1854,-0.945,0.155
1855,-0.685,0.005
1856,-0.070,-0.170
1857,0.860,-0.370
1858,1.725,-0.380
1859,2.545,-0.245
1860,2.925,0.000
1861,3.035,0.310
1862,3.010,0.535
1863,2.915,0.720
1864,2.340,0.765
1865,1.575,0.750
1866,0.830,0.310
1867,0.085,-0.255
1868,-0.140,-0.360
1869,-0.245,-0.350
1870,-0.215,-0.235
1871,-0.155,-0.100
1872,-0.150,-0.035
1873,-0.160,0.020
1874,-0.190,0.030
1875,-0.165,0.025
1876,-0.240,0.040
1877,-0.255,0.035
1878,-0.250,0.020
1879,-0.245,0.005
1880,-0.250,0.010
1881,-0.255,0.015
1882,-0.240,0.020
1883,-0.225,0.025
1884,-0.220,0.035
1885,-0.215,0.045
1886,-0.215,0.030
1887,-0.215,0.015
1888,-0.220,0.010
1889,-0.220,0.005
1890,-0.205,0.005
1891,-0.190,0.005
1892,-0.175,0.010
1893,-0.165,0.010
1894,-0.165,-0.005
1895,-0.165,-0.015
1896,-0.165,-0.020
1897,-0.160,-0.025
1898,-0.150,-0.025
1899,-0.140,-0.025
1900,-0.125,-0.030
1901,-0.115,-0.035
1902,-0.115,-0.040
1903,-0.115,-0.045
1904,-0.115,-0.050
1905,-0.105,-0.060
1906,-0.085,-0.070
1907,-0.060,-0.080
1908,-0.035,-0.090
1909,-0.025,-0.100
1910,-0.020,-0.110
1911,-0.015,-0.115
1912,-0.015,-0.120
1913,-0.005,-0.130
1914,0.010,-0.140
1915,0.025,-0.145
1916,0.040,-0.145
1917,0.050,-0.160
1918,0.055,-0.175
1919,0.065,-0.175
1920,0.075,-0.175
1921,0.095,-0.180
1922,0.115,-0.185
1923,0.140,-0.190
1924,0.165,-0.195
1925,0.170,-0.195
1926,0.175,-0.195
1927,0.190,-0.195
1928,0.205,-0.195
1929,0.200,-0.180
1930,0.195,-0.165
1931,0.205,-0.145
1932,0.215,-0.135
1933,0.210,-0.130
1934,0.200,-0.120
1935,0.180,-0.100
1936,0.160,-0.075
1937,0.145,-0.045
1938,0.125,-0.010
1939,0.105,0.020
1940,0.085,0.035
1941,0.060,0.040
1942,0.030,0.050
1943,0.000,0.065
1944,-0.015,0.075
1945,-0.020,0.080
1946,-0.035,0.095
1947,-0.055,0.115
1948,-0.075,0.125
1949,-0.090,0.130
1950,-0.095,0.135
1951,-0.095,0.130
1952,-0.100,0.125
1953,-0.110,0.130
1954,-0.115,0.135
1955,-0.110,0.140
1956,-0.105,0.140
1957,-0.105,0.130
1958,-0.105,0.125
1959,-0.105,0.115
1960,-0.100,0.125
1961,-0.095,0.135
1962,-0.095,0.135
1963,-0.095,0.135
1964,-0.105,0.125
1965,-0.115,0.115
1966,-0.120,0.110
1967,-0.125,0.105
1968,-0.125,0.110
1969,-0.125,0.115
1970,-0.120,0.115
1971,-0.115,0.115
1972,-0.120,0.115
1973,-0.125,0.115
1974,-0.125,0.110
1975,-0.125,0.105
1976,-0.125,0.095
1977,-0.125,0.090
1978,-0.125,0.105
1979,-0.125,0.115
1980,-0.140,0.110
1981,-0.145,0.105
1982,-0.145,0.100
1983,-0.145,0.095
1984,-0.140,0.095
1985,-0.135,0.095
1986,-0.130,0.095
1987,-0.135,0.095
1988,-0.150,0.090
1989,-0.155,0.085
1990,-0.160,0.085
1991,-0.155,0.085
1992,-0.140,0.085
1993,-0.135,0.085
1994,-0.135,0.085
1995,-0.135,0.085
1996,-0.140,0.080
1997,-0.145,0.075
1998,-0.140,0.075
1999,-0.135,0.075
2000,-0.135,0.075
2001,-0.150,0.080
2002,-0.155,0.075
2003,-0.145,0.060
2004,-0.135,0.045
2005,-0.135,0.055
2006,-0.135,0.065
2007,-0.130,0.065
2008,-0.125,0.065
2009,-0.130,0.070
2010,-0.135,0.075
2011,-0.140,0.060
2012,-0.145,0.045
2013,-0.140,0.045
2014,-0.135,0.045
2015,-0.135,0.045
2016,-0.135,0.045
2017,-0.135,0.045
2018,-0.135,0.045
2019,-0.125,0.040
2020,-0.115,0.035
2021,-0.120,0.050
2022,-0.125,0.055
2023,-0.125,0.050
2024,-0.120,0.045
2025,-0.110,0.045
2026,-0.100,0.045
2027,-0.090,0.040
2028,-0.080,0.035
2029,-0.070,0.030
2030,-0.060,0.025
2031,-0.050,0.020
2032,-0.030,0.010
2033,-0.005,0.000
2034,-0.005,-0.005
2035,-0.020,-0.005
2036,-0.040,-0.005
2037,-0.060,-0.005
2038,-0.070,-0.005
2039,-0.080,-0.005
2040,-0.085,-0.005
2041,-0.085,-0.005
2042,-0.090,-0.005
2043,-0.095,-0.005
2044,-0.100,0.000
2045,-0.105,0.005
2046,-0.115,0.010
2047,-0.125,0.015
2048,-0.125,0.010
2049,-0.125,0.005
2050,-0.130,0.005
2051,-0.135,0.005
2052,-0.140,0.000
2053,-0.145,-0.005
2054,-0.150,-0.005
2055,-0.155,-0.005
2056,-0.135,0.000
2057,-0.125,0.005
2058,-0.115,0.000
2059,-0.105,-0.005
2060,-0.095,-0.005
2061,-0.110,-0.005
2062,-0.165,-0.005
2063,-0.385,0.025
2064,-0.775,0.090
2065,-0.975,0.095
2066,-1.015,0.030
2067,-0.645,-0.065
2068,0.015,-0.190
2069,0.950,-0.290
2070,2.035,-0.375
2071,2.640,-0.225
2072,3.030,0.040
2073,3.045,0.210
2074,2.915,0.345
2075,2.570,0.530
2076,2.165,0.730
2077,1.315,0.470
2078,0.365,0.110
2079,-0.035,-0.230
2080,-0.355,-0.565
2081,-0.335,-0.475
2082,-0.280,-0.340
2083,-0.245,-0.235
2084,-0.205,-0.125
2085,-0.235,-0.095
2086,-0.265,-0.065
2087,-0.275,-0.075
2088,-0.285,-0.085
2089,-0.295,-0.090
2090,-0.305,-0.095
2091,-0.300,-0.090
2092,-0.295,-0.085
2093,-0.285,-0.090
2094,-0.275,-0.095
2095,-0.275,-0.095
2096,-0.275,-0.095
2097,-0.270,-0.100
2098,-0.265,-0.105
2099,-0.260,-0.110
2100,-0.255,-0.115
2101,-0.250,-0.115
2102,-0.245,-0.115
2103,-0.240,-0.115
2104,-0.235,-0.115
2105,-0.230,-0.130
2106,-0.225,-0.135
2107,-0.220,-0.140
2108,-0.210,-0.145
2109,-0.200,-0.150
2110,-0.195,-0.155
2111,-0.190,-0.160
2112,-0.185,-0.165
2113,-0.180,-0.170
2114,-0.170,-0.180
2115,-0.160,-0.190
2116,-0.155,-0.195
2117,-0.150,-0.195
2118,-0.140,-0.200
2119,-0.130,-0.210
2120,-0.125,-0.220
2121,-0.120,-0.230
2122,-0.105,-0.240
2123,-0.090,-0.250
2124,-0.080,-0.255
2125,-0.085,-0.255
2126,-0.050,-0.270
2127,-0.035,-0.275
2128,-0.025,-0.285
2129,-0.015,-0.295
2130,-0.005,-0.310
2131,0.005,-0.325
2132,0.020,-0.325
2133,0.035,-0.325
2134,0.050,-0.330
2135,0.065,-0.335
2136,0.070,-0.340
2137,0.075,-0.345
2138,0.085,-0.345
2139,0.095,-0.345
2140,0.105,-0.335
2141,0.115,-0.320
2142,0.110,-0.305
2143,0.105,-0.295
2144,0.095,-0.285
2145,0.080,-0.270
2146,0.065,-0.255
2147,0.050,-0.235
2148,0.035,-0.210
2149,0.015,-0.185
2150,-0.005,-0.165
2151,-0.025,-0.150
2152,-0.045,-0.135
2153,-0.070,-0.120
2154,-0.095,-0.110
2155,-0.110,-0.100
2156,-0.120,-0.090
2157,-0.140,-0.075
2158,-0.160,-0.060
2159,-0.170,-0.055
2160,-0.180,-0.060
2161,-0.185,-0.065
2162,-0.185,-0.060
2163,-0.185,-0.055
2164,-0.190,-0.055
2165,-0.195,-0.050
2166,-0.190,-0.040
2167,-0.190,-0.040
2168,-0.195,-0.045
2169,-0.195,-0.050
2170,-0.195,-0.055
2171,-0.185,-0.055
2172,-0.175,-0.055
2173,-0.175,-0.055
2174,-0.175,-0.055
2175,-0.180,-0.055
2176,-0.185,-0.055
2177,-0.190,-0.060
2178,-0.195,-0.065
2179,-0.190,-0.060
2180,-0.185,-0.055
2181,-0.185,-0.055
2182,-0.185,-0.055
2183,-0.185,-0.060
2184,-0.185,-0.065
2185,-0.190,-0.070
2186,-0.195,-0.075
2187,-0.195,-0.070
2188,-0.195,-0.065
2189,-0.195,-0.065
2190,-0.200,-0.065
2191,-0.210,-0.065
2192,-0.215,-0.065
2193,-0.215,-0.070
2194,-0.215,-0.075
2195,-0.215,-0.070
2196,-0.210,-0.065
2197,-0.200,-0.065
2198,-0.195,-0.065
2199,-0.200,-0.065
2200,-0.205,-0.065
2201,-0.205,-0.070
2202,-0.205,-0.075
2203,-0.205,-0.080
2204,-0.205,-0.085
2205,-0.200,-0.080
2206,-0.195,-0.075
2207,-0.200,-0.080
2208,-0.205,-0.085
2209,-0.205,-0.085
2210,-0.205,-0.080
2211,-0.205,-0.075
2212,-0.200,-0.075
2213,-0.195,-0.075
2214,-0.195,-0.075
2215,-0.195,-0.075
2216,-0.200,-0.080
2217,-0.205,-0.085
2218,-0.205,-0.085
2219,-0.205,-0.085
2220,-0.200,-0.080
2221,-0.195,-0.075
2222,-0.200,-0.080
2223,-0.205,-0.085
2224,-0.200,-0.090
2225,-0.195,-0.095
2226,-0.195,-0.095
2227,-0.195,-0.095
2228,-0.190,-0.090
2229,-0.185,-0.085
2230,-0.190,-0.085
2231,-0.190,-0.085
2232,-0.175,-0.090
2233,-0.165,-0.095
2234,-0.165,-0.090
2235,-0.150,-0.085
2236,-0.125,-0.085
2237,-0.110,-0.090
2238,-0.100,-0.100
2239,-0.095,-0.110
2240,-0.090,-0.120
2241,-0.085,-0.125
2242,-0.090,-0.120
2243,-0.110,-0.110
2244,-0.130,-0.100
2245,-0.135,-0.100
2246,-0.140,-0.110
2247,-0.150,-0.115
2248,-0.160,-0.120
2249,-0.165,-0.125
2250,-0.165,-0.125
2251,-0.160,-0.105
2252,-0.165,-0.095
2253,-0.165,-0.095
2254,-0.165,-0.095
2255,-0.175,-0.100
2256,-0.185,-0.105
2257,-0.195,-0.100
2258,-0.205,-0.095
2259,-0.195,-0.090
2260,-0.185,-0.085
2261,-0.185,-0.090
2262,-0.185,-0.095
2263,-0.185,-0.095
2264,-0.185,-0.095
2265,-0.175,-0.090
2266,-0.160,-0.085
2267,-0.145,-0.085
2268,-0.175,-0.085
2269,-0.280,-0.080
2270,-0.495,-0.030
2271,-0.845,0.065
2272,-0.995,0.065
2273,-0.955,-0.040
2274,-0.580,-0.170
2275,0.055,-0.325
2276,0.955,-0.410
2277,2.025,-0.455
2278,2.630,-0.300
2279,2.985,-0.030
2280,3.060,0.175
2281,3.000,0.350
2282,2.635,0.425
2283,2.165,0.475
2284,1.290,0.090
2285,0.310,-0.405
2286,-0.080,-0.545
2287,-0.360,-0.615
2288,-0.335,-0.470
2289,-0.260,-0.290
2290,-0.255,-0.200
2291,-0.260,-0.120
2292,-0.295,-0.115
2293,-0.325,-0.115
2294,-0.340,-0.125
2295,-0.355,-0.135
2296,-0.360,-0.135
2297,-0.365,-0.135
2298,-0.355,-0.130
2299,-0.345,-0.125
2300,-0.345,-0.130
2301,-0.345,-0.135
2302,-0.340,-0.135
2303,-0.335,-0.135
2304,-0.330,-0.140
2305,-0.325,-0.145
2306,-0.315,-0.145
2307,-0.305,-0.145
2308,-0.305,-0.150
2309,-0.305,-0.155
2310,-0.300,-0.155
2311,-0.295,-0.155
2312,-0.290,-0.155
2313,-0.280,-0.155
2314,-0.270,-0.160
2315,-0.265,-0.165
2316,-0.260,-0.170
2317,-0.255,-0.175
2318,-0.255,-0.180
2319,-0.250,-0.185
2320,-0.240,-0.190
2321,-0.235,-0.195
2322,-0.230,-0.200
2323,-0.220,-0.210
2324,-0.210,-0.220
2325,-0.205,-0.230
2326,-0.200,-0.240
2327,-0.185,-0.245
2328,-0.170,-0.250
2329,-0.155,-0.255
2330,-0.140,-0.260
2331,-0.130,-0.280
2332,-0.120,-0.300
2333,-0.110,-0.305
2334,-0.095,-0.315
2335,-0.075,-0.320
2336,-0.055,-0.325
2337,-0.040,-0.330
2338,-0.025,-0.335
2339,-0.015,-0.340
2340,-0.005,-0.345
2341,0.010,-0.355
2342,0.025,-0.365
2343,0.040,-0.365
2344,0.055,-0.365
2345,0.070,-0.360
2346,0.085,-0.355
2347,0.090,-0.350
2348,0.095,-0.345
2349,0.100,-0.335
2350,0.105,-0.320
2351,0.105,-0.300
2352,0.105,-0.275
2353,0.095,-0.250
2354,0.075,-0.230
2355,0.050,-0.215
2356,0.020,-0.200
2357,-0.010,-0.185
2358,-0.035,-0.170
2359,-0.065,-0.155
2360,-0.080,-0.140
2361,-0.095,-0.125
2362,-0.115,-0.115
2363,-0.135,-0.110
2364,-0.155,-0.105
2365,-0.170,-0.105
2366,-0.175,-0.100
2367,-0.180,-0.090
2368,-0.185,-0.085
2369,-0.185,-0.080
2370,-0.185,-0.075
2371,-0.190,-0.075
2372,-0.195,-0.075
2373,-0.195,-0.080
2374,-0.195,-0.085
2375,-0.195,-0.085
2376,-0.190,-0.070
2377,-0.185,-0.065
2378,-0.190,-0.070
2379,-0.195,-0.075
2380,-0.195,-0.075
2381,-0.195,-0.075
2382,-0.190,-0.075
2383,-0.185,-0.075
2384,-0.185,-0.070
2385,-0.185,-0.065
2386,-0.190,-0.070
2387,-0.195,-0.075
2388,-0.200,-0.075
2389,-0.205,-0.075
2390,-0.200,-0.075
2391,-0.195,-0.075
2392,-0.195,-0.070
2393,-0.195,-0.065
2394,-0.195,-0.070
2395,-0.195,-0.075
2396,-0.200,-0.075
2397,-0.205,-0.075
2398,-0.205,-0.070
2399,-0.205,-0.065
2400,-0.200,-0.065
2401,-0.195,-0.065
2402,-0.195,-0.070
2403,-0.195,-0.075
2404,-0.200,-0.075
2405,-0.205,-0.075
2406,-0.200,-0.075
2407,-0.195,-0.075
2408,-0.195,-0.070
2409,-0.195,-0.065
2410,-0.195,-0.070
2411,-0.195,-0.075
2412,-0.195,-0.080
2413,-0.195,-0.085
2414,-0.195,-0.080
2415,-0.195,-0.075
2416,-0.190,-0.075
2417,-0.185,-0.075
2418,-0.185,-0.075
2419,-0.190,-0.075
2420,-0.195,-0.075
2421,-0.195,-0.080
2422,-0.195,-0.085
2423,-0.190,-0.080
2424,-0.185,-0.075
2425,-0.185,-0.075
2426,-0.185,-0.075
2427,-0.185,-0.080
2428,-0.185,-0.085
2429,-0.185,-0.085
2430,-0.185,-0.085
2431,-0.180,-0.080
2432,-0.175,-0.075
2433,-0.180,-0.080
2434,-0.185,-0.085
2435,-0.180,-0.085
2436,-0.175,-0.085
2437,-0.175,-0.090
2438,-0.175,-0.095
2439,-0.175,-0.095
2440,-0.175,-0.095
2441,-0.170,-0.090
2442,-0.165,-0.085
2443,-0.170,-0.090
2444,-0.175,-0.095
2445,-0.170,-0.095
2446,-0.165,-0.095
2447,-0.160,-0.090
2448,-0.155,-0.085
2449,-0.155,-0.085
2450,-0.155,-0.085
2451,-0.160,-0.090
2452,-0.165,-0.095
2453,-0.160,-0.095
2454,-0.155,-0.095
2455,-0.150,-0.090
2456,-0.150,-0.085
2457,-0.160,-0.085
2458,-0.165,-0.085
2459,-0.165,-0.095
2460,-0.150,-0.095
2461,-0.135,-0.095
2462,-0.115,-0.085
2463,-0.095,-0.075
2464,-0.085,-0.090
2465,-0.075,-0.105
2466,-0.060,-0.120
2467,-0.045,-0.135
2468,-0.050,-0.130
2469,-0.060,-0.125
2470,-0.080,-0.115
2471,-0.095,-0.105
2472,-0.105,-0.110
2473,-0.120,-0.115
2474,-0.135,-0.120
2475,-0.145,-0.125
2476,-0.135,-0.120
2477,-0.125,-0.115
2478,-0.120,-0.105
2479,-0.120,-0.095
2480,-0.135,-0.090
2481,-0.150,-0.085
2482,-0.160,-0.090
2483,-0.165,-0.095
2484,-0.165,-0.095
2485,-0.165,-0.095
2486,-0.160,-0.090
2487,-0.155,-0.085
2488,-0.155,-0.085
2489,-0.155,-0.085
2490,-0.155,-0.085
2491,-0.155,-0.085
2492,-0.150,-0.085
2493,-0.130,-0.085
2494,-0.110,-0.080
2495,-0.130,-0.075
2496,-0.160,-0.075
2497,-0.435,-0.015
2498,-0.740,0.060
2499,-0.890,0.045
2500,-0.755,0.065
2501,-0.700,-0.120
2502,-0.330,-0.260
2503,0.690,-0.445
2504,1.675,-0.595
2505,2.340,-0.365
2506,2.920,-0.135
2507,2.965,0.115
2508,2.985,0.340
2509,2.870,0.485
2510,2.550,0.520
2511,1.590,0.195
2512,0.730,-0.135
2513,0.135,-0.460
2514,-0.265,-0.625
2515,-0.260,-0.445
2516,-0.250,-0.285
2517,-0.230,-0.180
2518,-0.230,-0.115
2519,-0.265,-0.105
2520,-0.290,-0.095
2521,-0.305,-0.110
2522,-0.315,-0.115
2523,-0.320,-0.110
2524,-0.325,-0.105
2525,-0.325,-0.105
2526,-0.325,-0.105
2527,-0.320,-0.110
2528,-0.315,-0.115
2529,-0.315,-0.120
2530,-0.310,-0.125
2531,-0.300,-0.120
2532,-0.295,-0.115
2533,-0.295,-0.120
2534,-0.290,-0.125
2535,-0.280,-0.130
2536,-0.275,-0.135
2537,-0.270,-0.140
2538,-0.265,-0.145
2539,-0.265,-0.145
2540,-0.260,-0.145
2541,-0.250,-0.145
2542,-0.245,-0.150
2543,-0.245,-0.155
2544,-0.240,-0.165
2545,-0.235,-0.175
2546,-0.225,-0.180
2547,-0.215,-0.185
2548,-0.205,-0.185
2549,-0.195,-0.185
2550,-0.190,-0.195
2551,-0.185,-0.205
2552,-0.175,-0.220
2553,-0.165,-0.235
2554,-0.160,-0.240
2555,-0.155,-0.245
2556,-0.135,-0.250
2557,-0.125,-0.255
2558,-0.115,-0.265
2559,-0.105,-0.280
2560,-0.095,-0.295
2561,-0.080,-0.305
2562,-0.065,-0.310
2563,-0.050,-0.315
2564,-0.035,-0.320
2565,-0.020,-0.330
2566,-0.010,-0.340
2567,0.000,-0.345
2568,0.015,-0.350
2569,0.030,-0.355
2570,0.050,-0.355
2571,0.060,-0.355
2572,0.070,-0.350
2573,0.085,-0.345
2574,0.100,-0.345
2575,0.105,-0.340
2576,0.110,-0.330
2577,0.120,-0.310
2578,0.130,-0.290
2579,0.135,-0.265
2580,0.130,-0.240
2581,0.110,-0.225
2582,0.090,-0.210
2583,0.075,-0.200
2584,0.055,-0.185
2585,0.030,-0.165
2586,0.005,-0.145
2587,-0.015,-0.125
2588,-0.035,-0.105
2589,-0.055,-0.095
2590,-0.075,-0.085
2591,-0.085,-0.085
2592,-0.095,-0.085
2593,-0.105,-0.080
2594,-0.115,-0.075
2595,-0.120,-0.065
2596,-0.125,-0.055
2597,-0.130,-0.060
2598,-0.135,-0.065
2599,-0.140,-0.065
2600,-0.145,-0.065
2601,-0.145,-0.055
2602,-0.145,-0.045
2603,-0.145,-0.045
2604,-0.145,-0.045
2605,-0.150,-0.045
2606,-0.155,-0.045
2607,-0.150,-0.050
2608,-0.145,-0.055
2609,-0.150,-0.055
2610,-0.150,-0.055
2611,-0.140,-0.050
2612,-0.135,-0.045
2613,-0.140,-0.045
2614,-0.145,-0.045
2615,-0.150,-0.045
2616,-0.155,-0.045
2617,-0.155,-0.045
2618,-0.155,-0.045
2619,-0.155,-0.040
2620,-0.160,-0.035
2621,-0.170,-0.040
2622,-0.175,-0.045
2623,-0.180,-0.050
2624,-0.185,-0.055
2625,-0.185,-0.055
2626,-0.170,-0.045
2627,-0.165,-0.045
2628,-0.170,-0.050
2629,-0.175,-0.055
2630,-0.175,-0.055
2631,-0.175,-0.055
2632,-0.175,-0.055
2633,-0.175,-0.055
2634,-0.165,-0.050
2635,-0.155,-0.045
2636,-0.160,-0.045
2637,-0.165,-0.045
2638,-0.170,-0.050
2639,-0.175,-0.055
2640,-0.170,-0.055
2641,-0.165,-0.055
2642,-0.160,-0.050
2643,-0.155,-0.045
2644,-0.160,-0.050
2645,-0.165,-0.055
2646,-0.165,-0.060
2647,-0.165,-0.065
2648,-0.165,-0.065
2649,-0.160,-0.060
2650,-0.150,-0.050
2651,-0.145,-0.045
2652,-0.150,-0.050
2653,-0.155,-0.055
2654,-0.155,-0.060
2655,-0.155,-0.065
2656,-0.155,-0.060
2657,-0.155,-0.055
2658,-0.155,-0.055
2659,-0.155,-0.055
2660,-0.155,-0.055
2661,-0.155,-0.055
2662,-0.150,-0.060
2663,-0.145,-0.065
2664,-0.140,-0.065
2665,-0.135,-0.065
2666,-0.135,-0.060
2667,-0.135,-0.060
2668,-0.135,-0.065
2669,-0.135,-0.065
2670,-0.135,-0.065
2671,-0.135,-0.060
2672,-0.135,-0.055
2673,-0.130,-0.055
2674,-0.125,-0.055
2675,-0.130,-0.060
2676,-0.135,-0.065
2677,-0.135,-0.065
2678,-0.135,-0.065
2679,-0.130,-0.065
2680,-0.125,-0.065
2681,-0.125,-0.065
2682,-0.125,-0.065
2683,-0.120,-0.070
2684,-0.115,-0.075
2685,-0.120,-0.075
2686,-0.125,-0.075
2687,-0.120,-0.070
2688,-0.115,-0.065
2689,-0.115,-0.065
2690,-0.115,-0.065
2691,-0.115,-0.070
2692,-0.115,-0.075
2693,-0.120,-0.075
2694,-0.125,-0.075
2695,-0.120,-0.070
2696,-0.115,-0.065
2697,-0.110,-0.060
2698,-0.105,-0.060
2699,-0.105,-0.070
2700,-0.105,-0.075
2701,-0.110,-0.080
2702,-0.115,-0.085
2703,-0.115,-0.080
2704,-0.115,-0.075
2705,-0.115,-0.075
2706,-0.110,-0.075
2707,-0.100,-0.080
2708,-0.075,-0.085
2709,-0.045,-0.075
2710,-0.050,-0.085
2711,-0.055,-0.095
2712,-0.025,-0.105
2713,0.005,-0.115
2714,0.015,-0.115
2715,0.025,-0.115
2716,-0.010,-0.100
2717,-0.035,-0.085
2718,-0.055,-0.095
2719,-0.075,-0.105
2720,-0.080,-0.100
2721,-0.085,-0.095
2722,-0.085,-0.100
2723,-0.085,-0.105
2724,-0.075,-0.105
2725,-0.065,-0.100
2726,-0.070,-0.085
2727,-0.075,-0.075
2728,-0.085,-0.070
2729,-0.095,-0.065
2730,-0.095,-0.065
2731,-0.095,-0.065
2732,-0.095,-0.065
2733,-0.095,-0.065
2734,-0.095,-0.065
2735,-0.095,-0.065
2736,-0.100,-0.060
2737,-0.105,-0.055
2738,-0.100,-0.055
2739,-0.090,-0.055
2740,-0.080,-0.060
2741,-0.075,-0.065
2742,-0.070,-0.065
2743,-0.210,-0.045
2744,-0.395,-0.020
2745,-0.715,0.020
2746,-1.060,0.060
2747,-0.945,-0.045
2748,-0.775,-0.165
2749,-0.010,-0.335
2750,-0.765,-0.175
2751,1.745,-0.455
2752,2.675,-0.390
2753,2.890,-0.045
2754,3.080,0.290
2755,2.985,0.470
2756,2.810,0.630
2757,2.120,0.695
2758,1.405,0.635
2759,0.605,0.040
2760,-0.050,-0.425
2761,-0.215,-0.470
2762,-0.315,-0.470
2763,-0.235,-0.345
2764,-0.175,-0.235
2765,-0.180,-0.170
2766,-0.190,-0.120
2767,-0.220,-0.105
2768,-0.240,-0.100
2769,-0.255,-0.115
2770,-0.265,-0.125
2771,-0.280,-0.130
2772,-0.280,-0.135
2773,-0.270,-0.135
2774,-0.260,-0.135
2775,-0.250,-0.130
2776,-0.245,-0.130
2777,-0.245,-0.140
2778,-0.245,-0.150
2779,-0.240,-0.160
2780,-0.235,-0.160
2781,-0.230,-0.150
2782,-0.225,-0.145
2783,-0.225,-0.150
2784,-0.225,-0.155
2785,-0.220,-0.160
2786,-0.210,-0.170
2787,-0.200,-0.180
2788,-0.190,-0.185
2789,-0.180,-0.190
2790,-0.170,-0.195
2791,-0.160,-0.190
2792,-0.165,-0.190
2793,-0.175,-0.195
2794,-0.160,-0.205
2795,-0.145,-0.215
2796,-0.140,-0.225
2797,-0.135,-0.235
2798,-0.125,-0.240
2799,-0.115,-0.245
2800,-0.110,-0.255
2801,-0.105,-0.265
2802,-0.090,-0.275
2803,-0.075,-0.285
2804,-0.060,-0.295
2805,-0.045,-0.305
2806,-0.035,-0.305
2807,-0.025,-0.305
2808,-0.015,-0.315
2809,-0.005,-0.325
2810,0.000,-0.335
2811,0.005,-0.345
2812,0.010,-0.345
2813,0.025,-0.350
2814,0.045,-0.360
2815,0.055,-0.365
2816,0.055,-0.370
2817,0.060,-0.375
2818,0.075,-0.375
2819,0.090,-0.370
2820,0.100,-0.360
2821,0.105,-0.350
2822,0.105,-0.340
2823,0.110,-0.335
2824,0.120,-0.330
2825,0.125,-0.320
2826,0.125,-0.310
2827,0.125,-0.280
2828,0.120,-0.250
2829,0.095,-0.220
2830,0.070,-0.190
2831,0.060,-0.175
2832,0.050,-0.160
2833,0.030,-0.140
2834,0.005,-0.115
2835,-0.010,-0.095
2836,-0.025,-0.075
2837,-0.045,-0.060
2838,-0.065,-0.045
2839,-0.075,-0.045
2840,-0.085,-0.045
2841,-0.095,-0.045
2842,-0.105,-0.045
2843,-0.105,-0.040
2844,-0.105,-0.035
2845,-0.120,-0.020
2846,-0.135,-0.005
2847,-0.130,-0.010
2848,-0.125,-0.015
2849,-0.120,-0.015
2850,-0.115,-0.015
2851,-0.120,-0.020
2852,-0.125,-0.025
2853,-0.125,-0.020
2854,-0.125,-0.015
2855,-0.125,-0.020
2856,-0.125,-0.025
2857,-0.125,-0.030
2858,-0.130,-0.035
2859,-0.140,-0.030
2860,-0.140,-0.025
2861,-0.130,-0.025
2862,-0.125,-0.025
2863,-0.125,-0.030
2864,-0.130,-0.035
2865,-0.140,-0.035
2866,-0.150,-0.035
2867,-0.160,-0.030
2868,-0.160,-0.020
2869,-0.150,-0.010
2870,-0.150,-0.010
2871,-0.160,-0.020
2872,-0.165,-0.025
2873,-0.160,-0.030
2874,-0.155,-0.035
2875,-0.155,-0.035
2876,-0.155,-0.025
2877,-0.155,-0.025
2878,-0.160,-0.025
2879,-0.165,-0.025
2880,-0.165,-0.030
2881,-0.165,-0.035
2882,-0.165,-0.035
2883,-0.165,-0.035
2884,-0.160,-0.030
2885,-0.155,-0.025
2886,-0.155,-0.025
2887,-0.155,-0.025
2888,-0.160,-0.025
2889,-0.165,-0.025
2890,-0.165,-0.030
2891,-0.165,-0.035
2892,-0.165,-0.030
2893,-0.165,-0.025
2894,-0.165,-0.030
2895,-0.165,-0.035
2896,-0.160,-0.040
2897,-0.155,-0.040
2898,-0.150,-0.030
2899,-0.145,-0.025
2900,-0.145,-0.025
2901,-0.145,-0.025
2902,-0.140,-0.030
2903,-0.140,-0.035
2904,-0.150,-0.035
2905,-0.155,-0.035
2906,-0.155,-0.035
2907,-0.155,-0.035
2908,-0.150,-0.030
2909,-0.145,-0.025
2910,-0.145,-0.030
2911,-0.145,-0.035
2912,-0.150,-0.040
2913,-0.150,-0.045
2914,-0.140,-0.040
2915,-0.135,-0.035
2916,-0.130,-0.035
2917,-0.125,-0.035
2918,-0.125,-0.035
2919,-0.135,-0.040
2920,-0.145,-0.045
2921,-0.140,-0.040
2922,-0.135,-0.035
2923,-0.130,-0.035
2924,-0.125,-0.035
2925,-0.130,-0.035
2926,-0.135,-0.035
2927,-0.140,-0.040
2928,-0.145,-0.045
2929,-0.145,-0.045
2930,-0.140,-0.045
2931,-0.120,-0.035
2932,-0.100,-0.025
2933,-0.080,-0.030
2934,-0.065,-0.040
2935,-0.065,-0.055
2936,-0.050,-0.070
2937,-0.015,-0.085
2938,0.005,-0.090
2939,0.000,-0.075
2940,-0.025,-0.060
2941,-0.065,-0.050
2942,-0.090,-0.050
2943,-0.100,-0.060
2944,-0.110,-0.065
2945,-0.120,-0.060
2946,-0.115,-0.055
2947,-0.095,-0.060
2948,-0.085,-0.065
2949,-0.085,-0.060
2950,-0.095,-0.050
2951,-0.110,-0.040
2952,-0.115,-0.035
2953,-0.120,-0.040
2954,-0.125,-0.040
2955,-0.125,-0.030
2956,-0.125,-0.025
2957,-0.120,-0.030
2958,-0.115,-0.035
2959,-0.125,-0.035
2960,-0.120,-0.035
2961,-0.115,-0.035
2962,-0.115,-0.030
2963,-0.115,-0.025
2964,-0.100,-0.025
2965,-0.085,-0.025
2966,-0.090,-0.030
2967,-0.145,-0.030
2968,-0.395,0.020
2969,-0.660,0.060
2970,-0.960,0.080
2971,-1.095,0.060
2972,-0.810,-0.060
2973,-0.325,-0.195
2974,0.550,-0.350
2975,1.425,-0.415
2976,2.305,-0.340
2977,2.890,-0.170
2978,3.080,0.115
2979,3.120,0.325
2980,2.980,0.460
2981,2.620,0.590
2982,2.055,0.710
2983,1.315,0.450
2984,0.450,-0.095
2985,-0.030,-0.375
2986,-0.280,-0.495
2987,-0.310,-0.435
2988,-0.230,-0.280
2989,-0.205,-0.180
2990,-0.205,-0.105
2991,-0.225,-0.080
2992,-0.255,-0.070
2993,-0.265,-0.065
2994,-0.270,-0.070
2995,-0.275,-0.075
2996,-0.280,-0.075
2997,-0.285,-0.075
2998,-0.285,-0.080
2999,-0.285,-0.085
3000,-0.285,-0.085
3001,-0.270,-0.080
3002,-0.265,-0.075
3003,-0.260,-0.080
3004,-0.255,-0.085
3005,-0.260,-0.090
3006,-0.265,-0.095
3007,-0.255,-0.100
3008,-0.245,-0.105
3009,-0.235,-0.100
3010,-0.225,-0.095
3011,-0.220,-0.100
3012,-0.215,-0.105
3013,-0.210,-0.115
3014,-0.205,-0.125
3015,-0.195,-0.125
3016,-0.185,-0.125
3017,-0.175,-0.130
3018,-0.165,-0.135
3019,-0.160,-0.140
3020,-0.155,-0.145
3021,-0.155,-0.160
3022,-0.150,-0.165
3023,-0.140,-0.170
3024,-0.130,-0.175
3025,-0.115,-0.180
3026,-0.105,-0.190
3027,-0.105,-0.200
3028,-0.100,-0.215
3029,-0.090,-0.230
3030,-0.080,-0.235
3031,-0.070,-0.240
3032,-0.050,-0.245
3033,-0.030,-0.250
3034,-0.025,-0.260
3035,-0.020,-0.270
3036,-0.005,-0.275
3037,0.010,-0.280
3038,0.020,-0.285
3039,0.030,-0.290
3040,0.040,-0.295
3041,0.050,-0.300
3042,0.060,-0.305
3043,0.065,-0.305
3044,0.070,-0.305
3045,0.075,-0.305
3046,0.085,-0.295
3047,0.095,-0.285
3048,0.105,-0.270
3049,0.115,-0.255
3050,0.110,-0.240
3051,0.105,-0.225
3052,0.090,-0.210
3053,0.070,-0.190
3054,0.050,-0.165
3055,0.035,-0.140
3056,0.015,-0.115
3057,0.000,-0.090
3058,-0.020,-0.075
3059,-0.045,-0.065
3060,-0.070,-0.055
3061,-0.090,-0.045
3062,-0.105,-0.035
3063,-0.115,-0.020
3064,-0.115,-0.010
3065,-0.120,-0.005
3066,-0.130,0.000
3067,-0.135,0.005
3068,-0.140,0.000
3069,-0.145,0.000
3070,-0.145,0.010
3071,-0.145,0.015
3072,-0.145,0.015
3073,-0.145,0.015
3074,-0.150,0.015
3075,-0.155,0.015
3076,-0.155,0.010
3077,-0.155,0.005
3078,-0.150,0.005
3079,-0.145,0.010
3080,-0.145,0.020
3081,-0.145,0.025
3082,-0.145,0.020
3083,-0.145,0.015
3084,-0.145,0.005
3085,-0.140,0.005
3086,-0.135,0.005
3087,-0.135,0.015
3088,-0.135,0.025
3089,-0.145,0.020
3090,-0.155,0.015
3091,-0.155,0.010
3092,-0.155,0.005
3093,-0.155,0.005
3094,-0.155,0.005
3095,-0.155,0.015
3096,-0.155,0.025
3097,-0.160,0.020
3098,-0.165,0.015
3099,-0.165,0.015
3100,-0.165,0.015
3101,-0.160,0.010
3102,-0.155,0.005
3103,-0.150,0.010
3104,-0.145,0.015
3105,-0.150,0.015
3106,-0.155,0.015
3107,-0.155,0.010
3108,-0.155,0.005
3109,-0.155,0.010
3110,-0.150,0.015
3111,-0.140,0.020
3112,-0.140,0.025
3113,-0.150,0.020
3114,-0.155,0.015
3115,-0.155,0.010
3116,-0.155,0.005
3117,-0.150,0.010
3118,-0.145,0.015
3119,-0.140,0.015
3120,-0.135,0.015
3121,-0.135,0.015
3122,-0.135,0.015
3123,-0.140,0.010
3124,-0.145,0.005
3125,-0.145,0.005
3126,-0.135,0.015
3127,-0.135,0.015
3128,-0.135,0.010
3129,-0.135,0.005
3130,-0.135,0.000
3131,-0.135,-0.005
3132,-0.135,0.000
3133,-0.135,0.005
3134,-0.130,0.010
3135,-0.125,0.015
3136,-0.125,0.015
3137,-0.125,0.015
3138,-0.125,0.010
3139,-0.125,0.005
3140,-0.120,0.005
3141,-0.115,0.005
3142,-0.115,0.010
3143,-0.115,0.015
3144,-0.115,0.015
3145,-0.115,0.015
3146,-0.115,0.010
3147,-0.115,0.005
3148,-0.115,0.005
3149,-0.115,0.005
3150,-0.115,0.010
3151,-0.115,0.015
3152,-0.115,0.010
3153,-0.105,0.005
3154,-0.090,0.005
3155,-0.075,0.005
3156,-0.060,0.010
3157,-0.045,0.010
3158,-0.030,0.000
3159,-0.015,-0.020
3160,0.000,-0.040
3161,0.005,-0.040
3162,0.000,-0.030
3163,-0.025,-0.020
3164,-0.050,-0.010
3165,-0.055,-0.005
3166,-0.060,-0.005
3167,-0.080,-0.010
3168,-0.095,-0.015
3169,-0.085,-0.020
3170,-0.075,-0.025
3171,-0.080,-0.020
3172,-0.085,-0.015
3173,-0.085,0.005
3174,-0.085,0.025
3175,-0.100,0.020
3176,-0.115,0.015
3177,-0.115,0.010
3178,-0.115,0.005
3179,-0.115,0.010
3180,-0.115,0.015
3181,-0.105,0.020
3182,-0.095,0.025
3183,-0.095,0.025
3184,-0.095,0.025
3185,-0.095,0.020
3186,-0.090,0.015
3187,-0.075,0.020
3188,-0.065,0.025
3189,-0.065,0.025
3190,-0.150,0.050
3191,-0.310,0.100
3192,-0.560,0.145
3193,-0.870,0.190
3194,-0.930,0.120
3195,-0.835,-0.020
3196,-0.295,-0.195
3197,0.455,-0.380
3198,1.365,-0.375
3199,2.330,-0.295
3200,2.775,-0.065
3201,3.070,0.205
3202,3.080,0.395
3203,3.025,0.570
3204,2.645,0.580
3205,2.220,0.560
3206,1.300,0.080
3207,0.340,-0.435
3208,0.015,-0.455
3209,-0.285,-0.455
3210,-0.225,-0.280
3211,-0.165,-0.115
3212,-0.170,-0.045
3213,-0.175,0.015
3214,-0.210,0.005
3215,-0.245,-0.005
3216,-0.260,-0.010
3217,-0.275,-0.015
3218,-0.280,-0.015
3219,-0.285,-0.015
3220,-0.275,-0.015
3221,-0.265,-0.015
3222,-0.265,-0.015
3223,-0.265,-0.015
3224,-0.265,-0.020
3225,-0.265,-0.025
3226,-0.260,-0.030
3227,-0.255,-0.035
3228,-0.245,-0.030
3229,-0.235,-0.025
3230,-0.235,-0.030
3231,-0.230,-0.035
3232,-0.220,-0.040
3233,-0.215,-0.045
3234,-0.210,-0.045
3235,-0.200,-0.045
3236,-0.190,-0.050
3237,-0.185,-0.055
3238,-0.180,-0.060
3239,-0.175,-0.070
3240,-0.170,-0.080
3241,-0.165,-0.085
3242,-0.160,-0.085
3243,-0.150,-0.085
3244,-0.140,-0.090
3245,-0.135,-0.105
3246,-0.130,-0.120
3247,-0.120,-0.130
3248,-0.110,-0.140
3249,-0.105,-0.145
3250,-0.105,-0.145
3251,-0.075,-0.165
3252,-0.055,-0.175
3253,-0.050,-0.180
3254,-0.045,-0.185
3255,-0.035,-0.200
3256,-0.025,-0.215
3257,-0.015,-0.215
3258,-0.005,-0.215
3259,0.015,-0.220
3260,0.035,-0.225
3261,0.050,-0.230
3262,0.065,-0.235
3263,0.080,-0.240
3264,0.095,-0.245
3265,0.105,-0.245
3266,0.120,-0.240
3267,0.135,-0.225
3268,0.145,-0.215
3269,0.150,-0.210
3270,0.155,-0.205
3271,0.155,-0.190
3272,0.155,-0.180
3273,0.155,-0.165
3274,0.150,-0.145
3275,0.140,-0.115
3276,0.125,-0.100
3277,0.105,-0.085
3278,0.075,-0.065
3279,0.045,-0.050
3280,0.025,-0.035
3281,0.010,-0.015
3282,-0.005,0.005
3283,-0.020,0.020
3284,-0.040,0.025
3285,-0.060,0.025
3286,-0.080,0.025
3287,-0.100,0.030
3288,-0.105,0.035
3289,-0.110,0.040
3290,-0.115,0.050
3291,-0.110,0.060
3292,-0.110,0.060
3293,-0.115,0.055
3294,-0.120,0.050
3295,-0.125,0.045
3296,-0.125,0.050
3297,-0.125,0.055
3298,-0.125,0.065
3299,-0.125,0.075
3300,-0.125,0.070
3301,-0.125,0.065
3302,-0.130,0.065
3303,-0.135,0.065
3304,-0.130,0.065
3305,-0.125,0.065
3306,-0.125,0.070
3307,-0.125,0.075
3308,-0.130,0.070
3309,-0.135,0.065
3310,-0.140,0.065
3311,-0.145,0.065
3312,-0.140,0.065
3313,-0.135,0.065
3314,-0.135,0.070
3315,-0.135,0.075
3316,-0.135,0.075
3317,-0.140,0.075
3318,-0.150,0.070
3319,-0.155,0.065
3320,-0.150,0.065
3321,-0.145,0.065
3322,-0.140,0.070
3323,-0.140,0.075
3324,-0.150,0.070
3325,-0.155,0.065
3326,-0.155,0.060
3327,-0.155,0.055
3328,-0.155,0.060
3329,-0.150,0.065
3330,-0.140,0.070
3331,-0.135,0.075
3332,-0.140,0.070
3333,-0.145,0.065
3334,-0.155,0.055
3335,-0.150,0.055
3336,-0.145,0.055
3337,-0.140,0.060
3338,-0.135,0.065
3339,-0.140,0.065
3340,-0.145,0.065
3341,-0.145,0.055
3342,-0.145,0.045
3343,-0.145,0.050
3344,-0.145,0.055
3345,-0.140,0.055
3346,-0.135,0.055
3347,-0.135,0.050
3348,-0.135,0.045
3349,-0.140,0.050
3350,-0.145,0.055
3351,-0.140,0.055
3352,-0.135,0.055
3353,-0.130,0.055
3354,-0.125,0.055
3355,-0.125,0.055
3356,-0.125,0.055
3357,-0.125,0.050
3358,-0.125,0.045
3359,-0.125,0.045
3360,-0.125,0.045
3361,-0.125,0.050
3362,-0.125,0.055
3363,-0.130,0.050
3364,-0.135,0.045
3365,-0.135,0.045
3366,-0.135,0.045
3367,-0.135,0.045
3368,-0.130,0.045
3369,-0.120,0.050
3370,-0.115,0.055
3371,-0.120,0.050
3372,-0.125,0.045
3373,-0.120,0.045
3374,-0.115,0.045
3375,-0.115,0.045
3376,-0.115,0.050
3377,-0.115,0.045
3378,-0.120,0.045
3379,-0.125,0.045
3380,-0.120,0.035
3381,-0.115,0.025
3382,-0.120,0.035
3383,-0.125,0.045
3384,-0.125,0.045
3385,-0.125,0.045
3386,-0.120,0.045
3387,-0.110,0.045
3388,-0.085,0.035
3389,-0.065,0.025
3390,-0.055,0.020
3391,-0.040,0.015
3392,-0.025,0.010
3393,-0.015,0.005
3394,-0.010,-0.005
3395,-0.010,-0.010
3396,-0.035,0.005
3397,-0.050,0.015
3398,-0.065,0.015
3399,-0.080,0.015
3400,-0.090,0.020
3401,-0.095,0.020
3402,-0.090,0.005
3403,-0.085,-0.005
3404,-0.085,0.000
3405,-0.085,0.015
3406,-0.090,0.035
3407,-0.105,0.045
3408,-0.120,0.040
3409,-0.125,0.035
3410,-0.130,0.030
3411,-0.135,0.025
3412,-0.135,0.025
3413,-0.135,0.025
3414,-0.130,0.030
3415,-0.125,0.035
3416,-0.120,0.040
3417,-0.115,0.045
3418,-0.115,0.045
3419,-0.100,0.035
3420,-0.085,0.025
3421,-0.095,0.030
3422,-0.130,0.040
3423,-0.350,0.100
3424,-0.575,0.155
3425,-0.835,0.165
3426,-0.985,0.140
3427,-0.745,-0.030
3428,-0.305,-0.205
3429,0.685,-0.400
3430,1.590,-0.470
3431,2.325,-0.255
3432,2.840,-0.020
3433,2.980,0.250
3434,3.045,0.485
3435,2.980,0.665
3436,2.590,0.675
3437,1.795,0.475
3438,1.030,0.145
3439,0.290,-0.320
3440,-0.110,-0.475
3441,-0.235,-0.365
3442,-0.255,-0.240
3443,-0.205,-0.105
3444,-0.200,-0.040
3445,-0.225,-0.015
3446,-0.250,-0.005
3447,-0.275,-0.010
3448,-0.290,-0.015
3449,-0.300,-0.020
3450,-0.305,-0.025
3451,-0.300,-0.030
3452,-0.295,-0.035
3453,-0.290,-0.030
3454,-0.285,-0.025
3455,-0.285,-0.020
3456,-0.285,-0.020
3457,-0.280,-0.030
3458,-0.275,-0.040
3459,-0.285,-0.055
3460,-0.275,-0.050
3461,-0.265,-0.045
3462,-0.260,-0.050
3463,-0.255,-0.055
3464,-0.245,-0.065
3465,-0.235,-0.075
3466,-0.235,-0.070
3467,-0.235,-0.065
3468,-0.230,-0.075
3469,-0.225,-0.085
3470,-0.215,-0.085
3471,-0.205,-0.085
3472,-0.200,-0.095
3473,-0.195,-0.105
3474,-0.195,-0.115
3475,-0.195,-0.125
3476,-0.190,-0.135
3477,-0.185,-0.145
3478,-0.175,-0.150
3479,-0.165,-0.155
3480,-0.150,-0.150
3481,-0.140,-0.150
3482,-0.130,-0.165
3483,-0.120,-0.180
3484,-0.110,-0.190
3485,-0.105,-0.200
3486,-0.100,-0.210
3487,-0.085,-0.220
3488,-0.065,-0.230
3489,-0.045,-0.240
3490,-0.030,-0.250
3491,-0.020,-0.265
3492,-0.010,-0.280
3493,0.005,-0.285
3494,0.020,-0.280
3495,0.030,-0.275
3496,0.040,-0.280
3497,0.055,-0.290
3498,0.070,-0.300
3499,0.085,-0.305
3500,0.075,-0.305
3501,0.115,-0.290
3502,0.125,-0.285
3503,0.130,-0.270
3504,0.135,-0.255
3505,0.140,-0.235
3506,0.145,-0.215
3507,0.140,-0.200
3508,0.135,-0.185
3509,0.125,-0.155
3510,0.110,-0.130
3511,0.085,-0.105
3512,0.060,-0.085
3513,0.035,-0.075
3514,0.015,-0.060
3515,0.010,-0.040
3516,0.000,-0.020
3517,-0.030,-0.005
3518,-0.055,0.005
3519,-0.080,0.010
3520,-0.100,0.015
3521,-0.115,0.010
3522,-0.125,0.005
3523,-0.120,0.010
3524,-0.115,0.020
3525,-0.120,0.030
3526,-0.130,0.035
3527,-0.140,0.030
3528,-0.145,0.025
3529,-0.145,0.025
3530,-0.145,0.025
3531,-0.145,0.025
3532,-0.145,0.025
3533,-0.140,0.030
3534,-0.135,0.035
3535,-0.135,0.035
3536,-0.140,0.035
3537,-0.150,0.030
3538,-0.155,0.025
3539,-0.150,0.025
3540,-0.145,0.025
3541,-0.150,0.025
3542,-0.160,0.020
3543,-0.165,0.015
3544,-0.165,0.020
3545,-0.165,0.025
3546,-0.155,0.030
3547,-0.145,0.035
3548,-0.150,0.030
3549,-0.155,0.025
3550,-0.165,0.030
3551,-0.175,0.035
3552,-0.170,0.030
3553,-0.165,0.025
3554,-0.165,0.020
3555,-0.165,0.015
3556,-0.165,0.020
3557,-0.165,0.025
3558,-0.170,0.020
3559,-0.175,0.015
3560,-0.175,0.010
3561,-0.170,0.005
3562,-0.155,0.010
3563,-0.145,0.015
3564,-0.145,0.020
3565,-0.155,0.025
3566,-0.175,0.020
3567,-0.180,0.015
3568,-0.170,0.015
3569,-0.165,0.015
3570,-0.165,0.015
3571,-0.165,0.015
3572,-0.160,0.015
3573,-0.155,0.015
3574,-0.155,0.015
3575,-0.155,0.015
3576,-0.155,0.010
3577,-0.155,0.005
3578,-0.160,0.005
3579,-0.165,0.005
3580,-0.160,0.005
3581,-0.155,0.005
3582,-0.155,0.000
3583,-0.155,-0.005
3584,-0.145,-0.005
3585,-0.145,0.000
3586,-0.145,0.005
3587,-0.155,0.010
3588,-0.165,0.015
3589,-0.165,0.010
3590,-0.165,0.005
3591,-0.150,0.000
3592,-0.135,-0.005
3593,-0.145,-0.005
3594,-0.155,-0.005
3595,-0.150,-0.005
3596,-0.145,-0.005
3597,-0.150,-0.005
3598,-0.155,-0.005
3599,-0.145,-0.010
3600,-0.135,-0.015
3601,-0.135,-0.015
3602,-0.135,-0.015
3603,-0.130,-0.005
3604,-0.130,0.005
3605,-0.155,-0.010
3606,-0.160,-0.015
3607,-0.150,-0.015
3608,-0.140,-0.015
3609,-0.125,-0.010
3610,-0.105,-0.005
3611,-0.085,-0.010
3612,-0.075,-0.025
3613,-0.070,-0.040
3614,-0.040,-0.060
3615,-0.005,-0.085
3616,0.000,-0.080
3617,-0.010,-0.050
3618,-0.035,-0.040
3619,-0.060,-0.030
3620,-0.075,-0.025
3621,-0.090,-0.030
3622,-0.105,-0.040
3623,-0.120,-0.050
3624,-0.110,-0.055
3625,-0.125,-0.055
3626,-0.090,-0.035
3627,-0.095,-0.025
3628,-0.105,-0.015
3629,-0.115,-0.005
3630,-0.125,-0.020
3631,-0.135,-0.035
3632,-0.140,-0.025
3633,-0.145,-0.015
3634,-0.140,-0.015
3635,-0.135,-0.015
3636,-0.135,-0.015
3637,-0.135,-0.015
3638,-0.135,-0.025
3639,-0.135,-0.035
3640,-0.130,-0.025
3641,-0.120,-0.015
3642,-0.105,-0.015
3643,-0.095,-0.015
3644,-0.105,-0.020
3645,-0.240,-0.010
3646,-0.510,0.025
3647,-0.790,0.045
3648,-1.070,0.040
3649,-1.020,-0.025
3650,-0.710,-0.130
3651,-0.035,-0.265
3652,0.870,-0.410
3653,1.735,-0.390
3654,2.575,-0.270
3655,2.925,-0.030
3656,3.075,0.260
3657,3.000,0.475
3658,2.850,0.665
3659,2.245,0.745
3660,1.530,0.795
3661,0.755,0.290
3662,-0.025,-0.325
3663,-0.230,-0.445
3664,-0.365,-0.500
3665,-0.300,-0.370
3666,-0.220,-0.220
3667,-0.225,-0.140
3668,-0.235,-0.065
3669,-0.255,-0.075
3670,-0.275,-0.085
3671,-0.290,-0.090
3672,-0.305,-0.095
3673,-0.295,-0.095
3674,-0.285,-0.095
3675,-0.290,-0.100
3676,-0.295,-0.105
3677,-0.290,-0.115
3678,-0.285,-0.125
3679,-0.280,-0.120
3680,-0.275,-0.115
3681,-0.265,-0.115
3682,-0.255,-0.115
3683,-0.255,-0.125
3684,-0.255,-0.135
3685,-0.250,-0.140
3686,-0.245,-0.145
3687,-0.235,-0.145
3688,-0.220,-0.145
3689,-0.210,-0.150
3690,-0.200,-0.155
3691,-0.190,-0.160
3692,-0.190,-0.165
3693,-0.200,-0.170
3694,-0.200,-0.175
3695,-0.180,-0.180
3696,-0.170,-0.185
3697,-0.160,-0.185
3698,-0.155,-0.200
3699,-0.150,-0.220
3700,-0.145,-0.225
3701,-0.140,-0.230
3702,-0.125,-0.235
3703,-0.110,-0.240
3704,-0.100,-0.245
3705,-0.090,-0.250
3706,-0.080,-0.270
3707,-0.070,-0.290
3708,-0.060,-0.295
3709,-0.045,-0.305
3710,-0.035,-0.310
3711,-0.025,-0.315
3712,-0.005,-0.320
3713,0.015,-0.325
3714,0.025,-0.335
3715,0.035,-0.345
3716,0.040,-0.350
3717,0.045,-0.355
3718,0.060,-0.355
3719,0.075,-0.355
3720,0.080,-0.345
3721,0.085,-0.335
3722,0.085,-0.335
3723,0.085,-0.335
3724,0.090,-0.325
3725,0.095,-0.310
3726,0.095,-0.290
3727,0.095,-0.265
3728,0.085,-0.235
3729,0.065,-0.210
3730,0.040,-0.195
3731,0.020,-0.175
3732,0.005,-0.155
3733,-0.015,-0.135
3734,-0.035,-0.105
3735,-0.050,-0.085
3736,-0.065,-0.065
3737,-0.085,-0.055
3738,-0.105,-0.050
3739,-0.125,-0.045
3740,-0.140,-0.040
3741,-0.145,-0.035
3742,-0.150,-0.030
3743,-0.155,-0.020
3744,-0.150,-0.010
3745,-0.155,-0.010
3746,-0.170,-0.020
3747,-0.175,-0.025
3748,-0.175,-0.025
3749,-0.175,-0.025
3750,-0.175,-0.025
3751,-0.160,-0.015
3752,-0.155,-0.005
3753,-0.160,-0.010
3754,-0.165,-0.015
3755,-0.170,-0.020
3756,-0.175,-0.025
3757,-0.170,-0.020
3758,-0.165,-0.015
3759,-0.155,-0.015
3760,-0.145,-0.015
3761,-0.155,-0.025
3762,-0.165,-0.035
3763,-0.170,-0.035
3764,-0.175,-0.035
3765,-0.170,-0.035
3766,-0.165,-0.035
3767,-0.170,-0.030
3768,-0.175,-0.025
3769,-0.175,-0.030
3770,-0.175,-0.035
3771,-0.180,-0.040
3772,-0.185,-0.045
3773,-0.180,-0.040
3774,-0.175,-0.035
3775,-0.180,-0.030
3776,-0.185,-0.025
3777,-0.185,-0.030
3778,-0.185,-0.035
3779,-0.185,-0.035
3780,-0.185,-0.035
3781,-0.185,-0.035
3782,-0.185,-0.035
3783,-0.180,-0.030
3784,-0.175,-0.025
3785,-0.180,-0.030
3786,-0.185,-0.035
3787,-0.185,-0.040
3788,-0.185,-0.045
3789,-0.180,-0.040
3790,-0.175,-0.035
3791,-0.170,-0.035
3792,-0.170,-0.035
3793,-0.175,-0.035
3794,-0.180,-0.040
3795,-0.185,-0.045
3796,-0.180,-0.045
3797,-0.175,-0.045
3798,-0.170,-0.040
3799,-0.165,-0.035
3800,-0.170,-0.040
3801,-0.175,-0.045
3802,-0.175,-0.045
3803,-0.175,-0.045
3804,-0.170,-0.050
3805,-0.165,-0.055
3806,-0.165,-0.050
3807,-0.165,-0.045
3808,-0.165,-0.050
3809,-0.165,-0.055
3810,-0.165,-0.055
3811,-0.165,-0.055
3812,-0.170,-0.050
3813,-0.170,-0.045
3814,-0.160,-0.040
3815,-0.155,-0.040
3816,-0.160,-0.050
3817,-0.165,-0.055
3818,-0.170,-0.055
3819,-0.170,-0.055
3820,-0.160,-0.055
3821,-0.145,-0.050
3822,-0.130,-0.040
3823,-0.115,-0.040
3824,-0.100,-0.050
3825,-0.095,-0.065
3826,-0.090,-0.080
3827,-0.065,-0.085
3828,-0.040,-0.090
3829,-0.045,-0.085
3830,-0.060,-0.070
3831,-0.085,-0.065
3832,-0.110,-0.070
3833,-0.115,-0.075
3834,-0.125,-0.085
3835,-0.130,-0.080
3836,-0.135,-0.075
3837,-0.125,-0.075
3838,-0.115,-0.075
3839,-0.120,-0.065
3840,-0.125,-0.055
3841,-0.135,-0.060
3842,-0.145,-0.065
3843,-0.150,-0.065
3844,-0.155,-0.065
3845,-0.155,-0.060
3846,-0.155,-0.055
3847,-0.160,-0.055
3848,-0.165,-0.055
3849,-0.165,-0.055
3850,-0.165,-0.055
3851,-0.160,-0.050
3852,-0.155,-0.045
3853,-0.150,-0.045
3854,-0.140,-0.045
3855,-0.125,-0.050
3856,-0.130,-0.055
3857,-0.160,-0.050
3858,-0.350,0.000
3859,-0.655,0.080
3860,-0.870,0.090
3861,-1.020,0.045
3862,-0.835,-0.070
3863,-0.470,-0.210
3864,0.370,-0.355
3865,1.395,-0.500
3866,2.160,-0.355
3867,2.845,-0.115
3868,3.020,0.105
3869,3.085,0.320
3870,2.985,0.490
3871,2.860,0.650
3872,2.020,0.410
3873,1.110,0.130
3874,0.430,-0.265
3875,1.065,0.115
3876,-0.275,-0.510
3877,-0.305,-0.350
3878,-0.260,-0.235
3879,-0.215,-0.125
3880,-0.245,-0.105
3881,-0.275,-0.085
3882,-0.295,-0.090
3883,-0.315,-0.095
3884,-0.320,-0.095
3885,-0.325,-0.095
3886,-0.330,-0.095
3887,-0.335,-0.095
3888,-0.330,-0.100
3889,-0.325,-0.105
3890,-0.320,-0.105
3891,-0.315,-0.105
3892,-0.310,-0.100
3893,-0.305,-0.095
3894,-0.300,-0.100
3895,-0.295,-0.105
3896,-0.295,-0.120
3897,-0.295,-0.125
3898,-0.290,-0.125
3899,-0.275,-0.125
3900,-0.255,-0.120
3901,-0.245,-0.120
3902,-0.240,-0.130
3903,-0.235,-0.140
3904,-0.235,-0.150
3905,-0.235,-0.155
3906,-0.230,-0.155
3907,-0.220,-0.155
3908,-0.210,-0.155
3909,-0.205,-0.165
3910,-0.200,-0.180
3911,-0.195,-0.185
3912,-0.190,-0.190
3913,-0.180,-0.195
3914,-0.170,-0.200
3915,-0.155,-0.205
3916,-0.140,-0.210
3917,-0.130,-0.225
3918,-0.125,-0.235
3919,-0.115,-0.250
3920,-0.105,-0.265
3921,-0.090,-0.270
3922,-0.075,-0.275
3923,-0.055,-0.285
3924,-0.035,-0.295
3925,-0.025,-0.305
3926,-0.015,-0.315
3927,0.005,-0.325
3928,0.025,-0.335
3929,0.040,-0.330
3930,0.055,-0.325
3931,0.065,-0.325
3932,0.075,-0.325
3933,0.085,-0.320
3934,0.095,-0.315
3935,0.100,-0.310
3936,0.105,-0.300
3937,0.115,-0.285
3938,0.125,-0.270
3939,0.125,-0.255
3940,0.115,-0.235
3941,0.095,-0.215
3942,0.075,-0.195
3943,0.055,-0.175
3944,0.030,-0.150
3945,0.005,-0.125
3946,-0.020,-0.105
3947,-0.045,-0.090
3948,-0.070,-0.080
3949,-0.090,-0.070
3950,-0.105,-0.060
3951,-0.120,-0.050
3952,-0.130,-0.045
3953,-0.140,-0.040
3954,-0.145,-0.035
3955,-0.150,-0.030
3956,-0.155,-0.025
3957,-0.160,-0.030
3958,-0.165,-0.035
3959,-0.165,-0.025
3960,-0.165,-0.020
3961,-0.165,-0.015
3962,-0.165,-0.015
3963,-0.165,-0.015
3964,-0.165,-0.020
3965,-0.165,-0.025
3966,-0.165,-0.025
3967,-0.165,-0.025
3968,-0.170,-0.020
3969,-0.175,-0.015
3970,-0.170,-0.010
3971,-0.165,-0.005
3972,-0.170,-0.010
3973,-0.175,-0.015
3974,-0.175,-0.020
3975,-0.175,-0.025
3976,-0.170,-0.025
3977,-0.165,-0.025
3978,-0.165,-0.015
3979,-0.165,-0.005
3980,-0.165,-0.010
3981,-0.165,-0.015
3982,-0.165,-0.020
3983,-0.165,-0.025
3984,-0.170,-0.020
3985,-0.175,-0.015
3986,-0.175,-0.015
3987,-0.175,-0.015
3988,-0.175,-0.015
3989,-0.175,-0.015
3990,-0.175,-0.020
3991,-0.175,-0.025
3992,-0.175,-0.020
3993,-0.175,-0.015
3994,-0.170,-0.015
3995,-0.165,-0.015
3996,-0.170,-0.020
3997,-0.175,-0.025
3998,-0.175,-0.025
3999,-0.175,-0.025
4000,-0.175,-0.025
4001,-0.170,-0.020
4002,-0.165,-0.015
4003,-0.165,-0.020
4004,-0.165,-0.025
4005,-0.170,-0.025
4006,-0.175,-0.025
4007,-0.175,-0.025
4008,-0.175,-0.025
4009,-0.165,-0.020
4010,-0.155,-0.015
4011,-0.160,-0.020
4012,-0.165,-0.025
4013,-0.170,-0.030
4014,-0.175,-0.035
4015,-0.170,-0.030
4016,-0.165,-0.025
4017,-0.165,-0.025
4018,-0.165,-0.025
4019,-0.160,-0.025
4020,-0.155,-0.025
4021,-0.155,-0.030
4022,-0.155,-0.035
4023,-0.150,-0.035
4024,-0.145,-0.030
4025,-0.145,-0.020
4026,-0.145,-0.020
4027,-0.145,-0.030
4028,-0.145,-0.035
4029,-0.145,-0.040
4030,-0.145,-0.045
4031,-0.150,-0.040
4032,-0.150,-0.035
4033,-0.140,-0.030
4034,-0.135,-0.025
4035,-0.140,-0.025
4036,-0.145,-0.030
4037,-0.145,-0.040
4038,-0.145,-0.045
4039,-0.140,-0.045
4040,-0.135,-0.045
4041,-0.135,-0.040
4042,-0.135,-0.035
4043,-0.135,-0.035
4044,-0.145,-0.035
4045,-0.155,-0.035
4046,-0.150,-0.040
4047,-0.145,-0.045
4048,-0.130,-0.035
4049,-0.115,-0.025
4050,-0.100,-0.025
4051,-0.085,-0.025
4052,-0.075,-0.040
4053,-0.060,-0.055
4054,-0.040,-0.070
4055,-0.025,-0.085
4056,-0.020,-0.080
4057,-0.025,-0.075
4058,-0.055,-0.065
4059,-0.075,-0.055
4060,-0.085,-0.060
4061,-0.095,-0.065
4062,-0.105,-0.065
4063,-0.115,-0.065
4064,-0.110,-0.065
4065,-0.105,-0.065
4066,-0.105,-0.065
4067,-0.110,-0.060
4068,-0.120,-0.045
4069,-0.125,-0.035
4070,-0.125,-0.040
4071,-0.125,-0.045
4072,-0.125,-0.040
4073,-0.125,-0.035
4074,-0.130,-0.035
4075,-0.135,-0.035
4076,-0.135,-0.035
4077,-0.135,-0.035
4078,-0.135,-0.035
4079,-0.135,-0.035
4080,-0.130,-0.035
4081,-0.115,-0.035
4082,-0.100,-0.035
4083,-0.100,-0.035
4084,-0.115,-0.035
4085,-0.325,0.020
4086,-0.540,0.075
4087,-0.810,0.085
4088,-1.035,0.080
4089,-0.810,-0.060
4090,-0.470,-0.215
4091,0.465,-0.420
4092,1.380,-0.545
4093,2.215,-0.330
4094,2.875,-0.105
4095,3.010,0.155
4096,3.085,0.380
4097,3.000,0.530
4098,2.665,0.545
4099,1.845,0.280
4100,1.055,-0.040
4101,0.310,-0.445
4102,-0.150,-0.600
4103,-0.240,-0.425
4104,-0.260,-0.280
4105,-0.205,-0.165
4106,-0.190,-0.095
4107,-0.225,-0.070
4108,-0.255,-0.055
4109,-0.285,-0.060
4110,-0.300,-0.065
4111,-0.310,-0.065
4112,-0.315,-0.065
4113,-0.315,-0.070
4114,-0.315,-0.075
4115,-0.315,-0.080
4116,-0.315,-0.085
4117,-0.310,-0.085
4118,-0.300,-0.085
4119,-0.290,-0.085
4120,-0.285,-0.085
4121,-0.285,-0.085
4122,-0.285,-0.090
4123,-0.280,-0.100
4124,-0.270,-0.105
4125,-0.275,-0.105
4126,-0.250,-0.105
4127,-0.245,-0.105
4128,-0.240,-0.110
4129,-0.235,-0.115
4130,-0.235,-0.125
4131,-0.235,-0.135
4132,-0.225,-0.140
4133,-0.215,-0.145
4134,-0.205,-0.145
4135,-0.195,-0.145
4136,-0.195,-0.155
4137,-0.195,-0.165
4138,-0.190,-0.170
4139,-0.180,-0.180
4140,-0.165,-0.195
4141,-0.155,-0.205
4142,-0.150,-0.205
4143,-0.145,-0.210
4144,-0.135,-0.225
4145,-0.125,-0.240
4146,-0.120,-0.255
4147,-0.110,-0.265
4148,-0.095,-0.265
4149,-0.080,-0.270
4150,-0.065,-0.280
4151,-0.050,-0.285
4152,-0.035,-0.290
4153,-0.020,-0.300
4154,-0.010,-0.310
4155,0.005,-0.315
4156,0.025,-0.315
4157,0.040,-0.315
4158,0.050,-0.310
4159,0.060,-0.305
4160,0.070,-0.310
4161,0.080,-0.310
4162,0.090,-0.300
4163,0.100,-0.285
4164,0.110,-0.270
4165,0.115,-0.250
4166,0.120,-0.230
4167,0.115,-0.210
4168,0.105,-0.195
4169,0.080,-0.175
4170,0.055,-0.155
4171,0.035,-0.130
4172,0.015,-0.105
4173,0.000,-0.090
4174,-0.015,-0.075
4175,-0.045,-0.070
4176,-0.065,-0.065
4177,-0.085,-0.055
4178,-0.105,-0.045
4179,-0.115,-0.035
4180,-0.125,-0.025
4181,-0.125,-0.020
4182,-0.130,-0.015
4183,-0.145,-0.015
4184,-0.155,-0.015
4185,-0.160,-0.020
4186,-0.165,-0.025
4187,-0.165,-0.020
4188,-0.165,-0.015
4189,-0.160,-0.015
4190,-0.155,-0.015
4191,-0.160,-0.015
4192,-0.165,-0.015
4193,-0.160,-0.020
4194,-0.155,-0.025
4195,-0.155,-0.025
4196,-0.155,-0.025
4197,-0.150,-0.020
4198,-0.150,-0.015
4199,-0.160,-0.015
4200,-0.165,-0.015
4201,-0.165,-0.020
4202,-0.165,-0.020
4203,-0.170,-0.010
4204,-0.175,-0.005
4205,-0.175,-0.005
4206,-0.175,-0.005
4207,-0.175,-0.005
4208,-0.175,-0.005
4209,-0.175,-0.015
4210,-0.175,-0.015
4211,-0.175,-0.015
4212,-0.170,-0.020
4213,-0.165,-0.025
4214,-0.170,-0.025
4215,-0.175,-0.025
4216,-0.175,-0.025
4217,-0.175,-0.025
4218,-0.180,-0.020
4219,-0.185,-0.015
4220,-0.180,-0.010
4221,-0.175,-0.005
4222,-0.185,-0.010
4223,-0.195,-0.015
4224,-0.195,-0.020
4225,-0.195,-0.025
4226,-0.190,-0.025
4227,-0.185,-0.025
4228,-0.180,-0.020
4229,-0.175,-0.015
4230,-0.175,-0.020
4231,-0.175,-0.025
4232,-0.175,-0.030
4233,-0.175,-0.035
4234,-0.170,-0.030
4235,-0.165,-0.025
4236,-0.165,-0.025
4237,-0.165,-0.025
4238,-0.170,-0.020
4239,-0.175,-0.015
4240,-0.170,-0.020
4241,-0.165,-0.025
4242,-0.165,-0.025
4243,-0.165,-0.025
4244,-0.160,-0.025
4245,-0.155,-0.025
4246,-0.160,-0.030
4247,-0.165,-0.035
4248,-0.165,-0.040
4249,-0.165,-0.040
4250,-0.165,-0.045
4251,-0.160,-0.025
4252,-0.155,-0.025
4253,-0.155,-0.030
4254,-0.155,-0.035
4255,-0.155,-0.035
4256,-0.155,-0.035
4257,-0.160,-0.035
4258,-0.165,-0.035
4259,-0.155,-0.035
4260,-0.145,-0.035
4261,-0.150,-0.040
4262,-0.155,-0.045
4263,-0.155,-0.045
4264,-0.155,-0.045
4265,-0.150,-0.045
4266,-0.140,-0.045
4267,-0.120,-0.035
4268,-0.100,-0.025
4269,-0.080,-0.020
4270,-0.065,-0.015
4271,-0.080,-0.030
4272,-0.065,-0.050
4273,-0.020,-0.080
4274,0.000,-0.090
4275,-0.010,-0.080
4276,-0.030,-0.075
4277,-0.055,-0.070
4278,-0.075,-0.065
4279,-0.095,-0.065
4280,-0.105,-0.065
4281,-0.105,-0.065
4282,-0.105,-0.060
4283,-0.100,-0.050
4284,-0.100,-0.045
4285,-0.110,-0.040
4286,-0.120,-0.035
4287,-0.130,-0.040
4288,-0.140,-0.045
4289,-0.150,-0.040
4290,-0.150,-0.040
4291,-0.140,-0.050
4292,-0.145,-0.045
4293,-0.155,-0.035
4294,-0.150,-0.030
4295,-0.145,-0.025
4296,-0.145,-0.025
4297,-0.145,-0.025
4298,-0.125,-0.020
4299,-0.105,-0.015
4300,-0.115,-0.025
4301,-0.165,-0.030
4302,-0.365,0.000
4303,-0.600,0.030
4304,-0.925,0.070
4305,-1.075,0.055
4306,-0.800,-0.085
4307,-0.280,-0.245
4308,0.695,-0.450
4309,1.605,-0.500
4310,2.425,-0.305
4311,2.900,-0.070
4312,2.960,0.205
4313,2.955,0.455
4314,2.865,0.675
4315,2.335,0.705
4316,1.435,0.580
4317,0.665,0.195
4318,-0.010,-0.360
4319,-0.275,-0.510
4320,-0.310,-0.415
4321,-0.285,-0.305
4322,-0.225,-0.180
4323,-0.220,-0.120
4324,-0.245,-0.085
4325,-0.270,-0.080
4326,-0.290,-0.090
4327,-0.295,-0.095
4328,-0.295,-0.095
4329,-0.295,-0.095
4330,-0.290,-0.095
4331,-0.285,-0.095
4332,-0.285,-0.095
4333,-0.285,-0.100
4334,-0.285,-0.115
4335,-0.285,-0.110
4336,-0.285,-0.105
4337,-0.275,-0.105
4338,-0.265,-0.105
4339,-0.250,-0.115
4340,-0.235,-0.125
4341,-0.245,-0.120
4342,-0.255,-0.115
4343,-0.250,-0.120
4344,-0.245,-0.125
4345,-0.230,-0.130
4346,-0.215,-0.140
4347,-0.210,-0.160
4348,-0.205,-0.175
4349,-0.200,-0.175
4350,-0.190,-0.175
4351,-0.170,-0.170
4352,-0.155,-0.165
4353,-0.150,-0.170
4354,-0.145,-0.180
4355,-0.140,-0.195
4356,-0.130,-0.210
4357,-0.120,-0.220
4358,-0.110,-0.230
4359,-0.100,-0.240
4360,-0.090,-0.245
4361,-0.080,-0.245
4362,-0.075,-0.250
4363,-0.075,-0.260
4364,-0.065,-0.270
4365,-0.040,-0.280
4366,-0.025,-0.290
4367,-0.010,-0.300
4368,0.005,-0.310
4369,0.020,-0.320
4370,0.030,-0.325
4371,0.040,-0.330
4372,0.055,-0.335
4373,0.070,-0.340
4374,0.075,-0.345
4375,0.075,-0.345
4376,0.100,-0.330
4377,0.115,-0.325
4378,0.115,-0.325
4379,0.115,-0.325
4380,0.115,-0.315
4381,0.115,-0.305
4382,0.120,-0.270
4383,0.125,-0.245
4384,0.115,-0.225
4385,0.100,-0.205
4386,0.075,-0.190
4387,0.050,-0.170
4388,0.030,-0.145
4389,0.015,-0.120
4390,0.010,-0.100
4391,-0.005,-0.080
4392,-0.035,-0.050
4393,-0.060,-0.035
4394,-0.075,-0.025
4395,-0.085,-0.015
4396,-0.100,-0.010
4397,-0.105,-0.005
4398,-0.110,0.000
4399,-0.120,0.005
4400,-0.135,0.010
4401,-0.145,0.015
4402,-0.150,0.020
4403,-0.155,0.015
4404,-0.160,0.000
4405,-0.160,0.000
4406,-0.150,0.010
4407,-0.145,0.015
4408,-0.140,0.020
4409,-0.135,0.025
4410,-0.135,0.020
4411,-0.135,0.015
4412,-0.140,0.010
4413,-0.145,0.005
4414,-0.145,0.010
4415,-0.145,0.015
4416,-0.150,0.020
4417,-0.160,0.010
4418,-0.165,-0.005
4419,-0.155,0.000
4420,-0.145,0.005
4421,-0.145,0.010
4422,-0.145,0.015
4423,-0.140,0.010
4424,-0.135,0.005
4425,-0.150,0.010
4426,-0.165,0.015
4427,-0.165,0.005
4428,-0.165,-0.005
4429,-0.170,-0.005
4430,-0.175,-0.005
4431,-0.175,0.015
4432,-0.175,0.025
4433,-0.170,0.015
4434,-0.165,0.005
4435,-0.165,0.005
4436,-0.165,0.005
4437,-0.160,0.005
4438,-0.155,0.005
4439,-0.150,0.010
4440,-0.150,0.015
4441,-0.160,0.010
4442,-0.165,0.005
4443,-0.170,0.000
4444,-0.170,-0.005
4445,-0.160,-0.005
4446,-0.155,-0.005
4447,-0.150,0.000
4448,-0.145,0.005
4449,-0.145,0.005
4450,-0.145,0.005
4451,-0.145,0.000
4452,-0.145,-0.005
4453,-0.140,-0.005
4454,-0.135,0.000
4455,-0.135,0.010
4456,-0.140,0.010
4457,-0.150,0.000
4458,-0.155,-0.005
4459,-0.155,-0.015
4460,-0.150,-0.010
4461,-0.145,-0.005
4462,-0.140,0.000
4463,-0.135,0.005
4464,-0.135,0.005
4465,-0.135,0.005
4466,-0.130,0.000
4467,-0.125,-0.005
4468,-0.135,-0.010
4469,-0.145,-0.015
4470,-0.140,-0.005
4471,-0.135,0.005
4472,-0.140,0.000
4473,-0.145,-0.005
4474,-0.135,-0.005
4475,-0.120,-0.005
4476,-0.100,0.000
4477,-0.080,0.005
4478,-0.060,0.010
4479,-0.040,0.005
4480,-0.015,-0.030
4481,-0.005,-0.045
4482,0.000,-0.050
4483,-0.005,-0.045
4484,-0.025,-0.025
4485,-0.040,-0.015
4486,-0.050,-0.015
4487,-0.065,-0.020
4488,-0.080,-0.030
4489,-0.085,-0.035
4490,-0.090,-0.035
4491,-0.085,-0.035
4492,-0.070,-0.035
4493,-0.080,-0.025
4494,-0.100,-0.010
4495,-0.110,-0.005
4496,-0.120,-0.010
4497,-0.125,-0.015
4498,-0.130,-0.020
4499,-0.135,-0.025
4500,-0.135,-0.025
4501,-0.130,-0.010
4502,-0.115,-0.005
4503,-0.115,-0.005
4504,-0.115,-0.005
4505,-0.115,-0.005
4506,-0.115,-0.005
4507,-0.095,-0.005
4508,-0.075,-0.005
4509,-0.090,-0.005
4510,-0.180,0.005
4511,-0.500,0.055
4512,-0.795,0.095
4513,-1.010,0.085
4514,-1.005,0.035
4515,-0.545,-0.085
4516,0.135,-0.210
4517,1.185,-0.345
4518,2.065,-0.350
4519,2.710,-0.165
4520,3.045,0.020
4521,3.020,0.210
4522,2.915,0.410
4523,2.735,0.615
4524,2.085,0.595
4525,1.065,0.395
4526,0.350,0.035
4527,-0.175,-0.425
4528,-0.335,-0.505
4529,-0.300,-0.385
4530,-0.250,-0.260
4531,-0.190,-0.140
4532,-0.190,-0.080
4533,-0.215,-0.045
4534,-0.240,-0.040
4535,-0.260,-0.050
4536,-0.270,-0.055
4537,-0.280,-0.060
4538,-0.285,-0.065
4539,-0.280,-0.060
4540,-0.265,-0.055
4541,-0.250,-0.055
4542,-0.250,-0.065
4543,-0.255,-0.075
4544,-0.250,-0.075
4545,-0.245,-0.075
4546,-0.235,-0.075
4547,-0.225,-0.075
4548,-0.220,-0.075
4549,-0.215,-0.075
4550,-0.210,-0.085
4551,-0.205,-0.095
4552,-0.200,-0.100
4553,-0.195,-0.105
4554,-0.185,-0.105
4555,-0.175,-0.105
4556,-0.165,-0.110
4557,-0.155,-0.115
4558,-0.160,-0.120
4559,-0.160,-0.125
4560,-0.145,-0.135
4561,-0.135,-0.145
4562,-0.125,-0.150
4563,-0.115,-0.155
4564,-0.110,-0.160
4565,-0.105,-0.170
4566,-0.100,-0.180
4567,-0.090,-0.190
4568,-0.075,-0.200
4569,-0.060,-0.205
4570,-0.040,-0.210
4571,-0.030,-0.215
4572,-0.020,-0.220
4573,-0.010,-0.230
4574,0.000,-0.240
4575,0.010,-0.250
4576,0.020,-0.260
4577,0.030,-0.265
4578,0.040,-0.265
4579,0.060,-0.270
4580,0.080,-0.280
4581,0.085,-0.285
4582,0.090,-0.290
4583,0.105,-0.295
4584,0.125,-0.285
4585,0.130,-0.280
4586,0.135,-0.275
4587,0.140,-0.270
4588,0.145,-0.265
4589,0.145,-0.250
4590,0.145,-0.235
4591,0.135,-0.220
4592,0.125,-0.200
4593,0.115,-0.175
4594,0.100,-0.150
4595,0.075,-0.130
4596,0.050,-0.115
4597,0.030,-0.100
4598,0.010,-0.080
4599,-0.015,-0.065
4600,-0.040,-0.055
4601,-0.055,-0.045
4602,-0.065,-0.030
4603,-0.075,-0.015
4604,-0.090,-0.005
4605,-0.105,-0.005
4606,-0.120,-0.005
4607,-0.130,-0.005
4608,-0.135,-0.005
4609,-0.135,0.000
4610,-0.135,0.010
4611,-0.135,0.020
4612,-0.135,0.025
4613,-0.135,0.020
4614,-0.135,0.010
4615,-0.135,0.000
4616,-0.135,-0.005
4617,-0.135,0.000
4618,-0.130,0.005
4619,-0.120,0.010
4620,-0.115,0.015
4621,-0.120,0.010
4622,-0.125,0.005
4623,-0.125,0.005
4624,-0.125,0.005
4625,-0.125,0.005
4626,-0.135,0.010
4627,-0.135,0.015
4628,-0.135,0.010
4629,-0.135,0.005
4630,-0.135,0.000
4631,-0.135,-0.005
4632,-0.130,-0.005
4633,-0.125,-0.005
4634,-0.125,0.005
4635,-0.125,0.015
4636,-0.130,0.010
4637,-0.135,0.005
4638,-0.135,0.005
4639,-0.135,0.005
4640,-0.130,0.000
4641,-0.125,-0.005
4642,-0.125,0.000
4643,-0.125,0.005
4644,-0.125,0.005
4645,-0.125,0.005
4646,-0.130,0.000
4647,-0.135,-0.005
4648,-0.135,-0.005
4649,-0.135,-0.005
4650,-0.130,0.000
4651,-0.125,0.005
4652,-0.130,0.000
4653,-0.135,-0.005
4654,-0.135,-0.005
4655,-0.135,-0.005
4656,-0.135,-0.005
4657,-0.135,-0.005
4658,-0.130,0.000
4659,-0.125,0.005
4660,-0.125,0.000
4661,-0.125,-0.005
4662,-0.130,-0.010
4663,-0.135,-0.015
4664,-0.135,-0.015
4665,-0.135,-0.015
4666,-0.130,-0.010
4667,-0.125,-0.005
4668,-0.125,-0.005
4669,-0.125,-0.010
4670,-0.125,-0.015
4671,-0.125,-0.015
4672,-0.125,-0.015
4673,-0.125,-0.010
4674,-0.125,-0.005
4675,-0.125,-0.005
4676,-0.125,-0.005
4677,-0.125,-0.005
4678,-0.125,-0.005
4679,-0.115,-0.005
4680,-0.105,-0.005
4681,-0.085,0.005
4682,-0.070,0.015
4683,-0.055,0.010
4684,-0.045,0.000
4685,-0.035,-0.015
4686,-0.025,-0.030
4687,-0.015,-0.045
4688,-0.005,-0.050
4689,-0.010,-0.035
4690,-0.025,-0.025
4691,-0.045,-0.025
4692,-0.065,-0.030
4693,-0.085,-0.040
4694,-0.095,-0.045
4695,-0.090,-0.040
4696,-0.085,-0.035
4697,-0.080,-0.030
4698,-0.075,-0.025
4699,-0.080,-0.020
4700,-0.095,-0.015
4701,-0.110,-0.015
4702,-0.115,-0.015
4703,-0.120,-0.015
4704,-0.125,-0.015
4705,-0.120,-0.015
4706,-0.115,-0.015
4707,-0.115,-0.015
4708,-0.115,-0.015
4709,-0.125,-0.015
4710,-0.120,-0.015
4711,-0.115,-0.015
4712,-0.105,-0.010
4713,-0.095,-0.005
4714,-0.090,-0.005
4715,-0.100,-0.005
4716,-0.225,0.010
4717,-0.390,0.040
4718,-0.735,0.125
4719,-0.970,0.165
4720,-0.865,0.045
4721,-0.565,-0.100
4722,0.180,-0.295
4723,1.020,-0.405
4724,2.035,-0.345
4725,2.760,-0.200
4726,3.030,0.075
4727,3.150,0.310
4728,3.070,0.485
4729,2.725,0.545
4730,2.110,0.480
4731,1.335,0.160
4732,0.420,-0.375
4733,-0.065,-0.565
4734,-0.245,-0.495
4735,-0.275,-0.355
4736,-0.210,-0.175
4737,-0.205,-0.085
4738,-0.235,-0.040
4739,-0.260,-0.030
4740,-0.285,-0.040
4741,-0.295,-0.045
4742,-0.295,-0.045
4743,-0.295,-0.045
4744,-0.295,-0.045
4745,-0.295,-0.045
4746,-0.295,-0.045
4747,-0.295,-0.045
4748,-0.295,-0.050
4749,-0.290,-0.055
4750,-0.295,-0.055
4751,-0.270,-0.060
4752,-0.265,-0.055
4753,-0.260,-0.060
4754,-0.255,-0.065
4755,-0.250,-0.075
4756,-0.245,-0.085
4757,-0.240,-0.080
4758,-0.235,-0.075
4759,-0.225,-0.080
4760,-0.215,-0.085
4761,-0.215,-0.090
4762,-0.215,-0.095
4763,-0.205,-0.105
4764,-0.195,-0.115
4765,-0.185,-0.120
4766,-0.175,-0.125
4767,-0.170,-0.125
4768,-0.165,-0.125
4769,-0.160,-0.130
4770,-0.155,-0.140
4771,-0.140,-0.155
4772,-0.130,-0.165
4773,-0.120,-0.170
4774,-0.110,-0.175
4775,-0.095,-0.180
4776,-0.080,-0.190
4777,-0.070,-0.200
4778,-0.060,-0.215
4779,-0.050,-0.230
4780,-0.035,-0.235
4781,-0.020,-0.240
4782,-0.005,-0.245
4783,0.010,-0.245
4784,0.030,-0.250
4785,0.050,-0.260
4786,0.065,-0.265
4787,0.080,-0.270
4788,0.095,-0.275
4789,0.110,-0.275
4790,0.125,-0.275
4791,0.140,-0.270
4792,0.150,-0.260
4793,0.155,-0.255
4794,0.165,-0.245
4795,0.175,-0.235
4796,0.175,-0.215
4797,0.175,-0.195
4798,0.155,-0.175
4799,0.135,-0.155
4800,0.105,-0.140
4801,0.080,-0.125
4802,0.050,-0.110
4803,0.020,-0.090
4804,-0.005,-0.070
4805,-0.025,-0.055
4806,-0.045,-0.045
4807,-0.060,-0.035
4808,-0.080,-0.025
4809,-0.095,-0.015
4810,-0.105,-0.015
4811,-0.115,-0.015
4812,-0.120,-0.010
4813,-0.125,-0.005
4814,-0.130,0.000
4815,-0.135,0.005
4816,-0.140,0.005
4817,-0.145,0.005
4818,-0.145,0.000
4819,-0.145,-0.005
4820,-0.140,0.000
4821,-0.135,0.005
4822,-0.135,0.005
4823,-0.135,0.005
4824,-0.140,0.005
4825,-0.145,0.005
4826,-0.145,0.000
4827,-0.145,-0.005
4828,-0.145,0.000
4829,-0.145,0.005
4830,-0.140,0.005
4831,-0.135,0.005
4832,-0.140,0.005
4833,-0.145,0.005
4834,-0.145,-0.005
4835,-0.145,-0.005
4836,-0.145,-0.005
4837,-0.145,0.005
4838,-0.145,0.015
4839,-0.145,0.010
4840,-0.145,0.005
4841,-0.155,0.000
4842,-0.165,-0.005
4843,-0.160,-0.005
4844,-0.155,-0.005
4845,-0.155,0.000
4846,-0.155,0.005
4847,-0.160,0.000
4848,-0.165,-0.005
4849,-0.160,-0.010
4850,-0.155,-0.015
4851,-0.155,-0.010
4852,-0.155,-0.005
4853,-0.155,-0.005
4854,-0.155,-0.005
4855,-0.155,-0.010
4856,-0.155,-0.015
4857,-0.155,-0.015
4858,-0.155,-0.015
4859,-0.155,-0.010
4860,-0.155,-0.005
4861,-0.150,-0.005
4862,-0.145,-0.005
4863,-0.150,-0.010
4864,-0.155,-0.015
4865,-0.155,-0.020
4866,-0.155,-0.025
4867,-0.155,-0.020
4868,-0.155,-0.015
4869,-0.150,-0.015
4870,-0.145,-0.015
4871,-0.150,-0.015
4872,-0.155,-0.020
4873,-0.150,-0.030
4874,-0.145,-0.030
4875,-0.145,-0.035
4876,-0.145,-0.015
4877,-0.145,-0.015
4878,-0.140,-0.020
4879,-0.135,-0.025
4880,-0.140,-0.025
4881,-0.145,-0.025
4882,-0.145,-0.025
4883,-0.145,-0.025
4884,-0.145,-0.025
4885,-0.145,-0.025
4886,-0.140,-0.025
4887,-0.135,-0.025
4888,-0.135,-0.030
4889,-0.135,-0.035
4890,-0.135,-0.030
4891,-0.135,-0.025
4892,-0.130,-0.025
4893,-0.125,-0.025
4894,-0.125,-0.030
4895,-0.125,-0.035
4896,-0.130,-0.035
4897,-0.130,-0.035
4898,-0.120,-0.040
4899,-0.115,-0.040
4900,-0.115,-0.030
4901,-0.115,-0.025
4902,-0.120,-0.030
4903,-0.125,-0.035
4904,-0.125,-0.040
4905,-0.125,-0.045
4906,-0.125,-0.045
4907,-0.125,-0.045
4908,-0.125,-0.040
4909,-0.105,-0.035
4910,-0.070,-0.035
4911,-0.060,-0.030
4912,-0.050,-0.020
4913,-0.045,-0.020
4914,-0.045,-0.030
4915,-0.010,-0.050
4916,0.030,-0.070
4917,0.005,-0.070
4918,-0.025,-0.065
4919,-0.055,-0.070
4920,-0.085,-0.075
4921,-0.090,-0.065
4922,-0.095,-0.055
4923,-0.090,-0.050
4924,-0.085,-0.045
4925,-0.085,-0.045
4926,-0.085,-0.045
4927,-0.100,-0.040
4928,-0.115,-0.035
4929,-0.125,-0.035
4930,-0.135,-0.035
4931,-0.135,-0.035
4932,-0.135,-0.035
4933,-0.135,-0.035
4934,-0.135,-0.035
4935,-0.135,-0.035
4936,-0.135,-0.035
4937,-0.135,-0.035
4938,-0.130,-0.035
4939,-0.120,-0.030
4940,-0.110,-0.025
4941,-0.100,-0.025
4942,-0.105,-0.030
4943,-0.125,-0.040
4944,-0.295,0.000
4945,-0.545,0.080
4946,-0.765,0.105
4947,-0.970,0.105
4948,-0.800,-0.015
4949,-0.495,-0.185
4950,0.345,-0.360
4951,1.335,-0.535
4952,2.095,-0.385
4953,2.815,-0.165
4954,2.965,0.070
4955,3.035,0.305
4956,2.965,0.455
4957,2.870,0.600
4958,2.010,0.345
4959,1.125,0.070
4960,0.445,-0.290
4961,-0.195,-0.625
4962,-0.220,-0.460
4963,-0.245,-0.295
4964,-0.215,-0.185
4965,-0.185,-0.085
4966,-0.220,-0.070
4967,-0.250,-0.055
4968,-0.275,-0.060
4969,-0.295,-0.065
4970,-0.300,-0.060
4971,-0.305,-0.055
4972,-0.305,-0.065
4973,-0.305,-0.075
4974,-0.310,-0.075
4975,-0.315,-0.075
4976,-0.305,-0.075
4977,-0.295,-0.075
4978,-0.290,-0.075
4979,-0.285,-0.075
4980,-0.280,-0.080
4981,-0.275,-0.085
4982,-0.270,-0.090
4983,-0.265,-0.095
4984,-0.260,-0.095
4985,-0.250,-0.095
4986,-0.240,-0.090
4987,-0.235,-0.090
4988,-0.230,-0.100
4989,-0.225,-0.105
4990,-0.225,-0.110
4991,-0.220,-0.115
4992,-0.210,-0.120
4993,-0.205,-0.125
4994,-0.200,-0.130
4995,-0.195,-0.145
4996,-0.190,-0.160
4997,-0.175,-0.170
4998,-0.160,-0.180
4999,-0.155,-0.185
5000,-0.155,-0.185
5001,-0.130,-0.195
5002,-0.115,-0.205
5003,-0.110,-0.210
5004,-0.105,-0.215
5005,-0.095,-0.230
5006,-0.085,-0.245
5007,-0.070,-0.255
5008,-0.055,-0.265
5009,-0.045,-0.270
5010,-0.035,-0.275
5011,-0.020,-0.285
5012,0.000,-0.295
5013,0.020,-0.305
5014,0.040,-0.315
5015,0.055,-0.320
5016,0.065,-0.325
5017,0.075,-0.320
5018,0.090,-0.315
5019,0.105,-0.315
5020,0.115,-0.315
5021,0.120,-0.310
5022,0.130,-0.300
5023,0.140,-0.285
5024,0.145,-0.265
5025,0.145,-0.245
5026,0.140,-0.230
5027,0.125,-0.215
5028,0.110,-0.195
5029,0.100,-0.175
5030,0.085,-0.155
5031,0.065,-0.135
5032,0.040,-0.110
5033,0.015,-0.090
5034,-0.015,-0.080
5035,-0.040,-0.070
5036,-0.065,-0.060
5037,-0.090,-0.050
5038,-0.095,-0.045
5039,-0.100,-0.040
5040,-0.105,-0.030
5041,-0.110,-0.020
5042,-0.120,-0.020
5043,-0.125,-0.025
5044,-0.125,-0.025
5045,-0.125,-0.025
5046,-0.130,-0.025
5047,-0.135,-0.025
5048,-0.130,-0.015
5049,-0.125,-0.005
5050,-0.135,-0.010
5051,-0.145,-0.015
5052,-0.145,-0.020
5053,-0.145,-0.025
5054,-0.140,-0.020
5055,-0.135,-0.015
5056,-0.135,-0.010
5057,-0.135,-0.005
5058,-0.140,-0.010
5059,-0.145,-0.015
5060,-0.145,-0.020
5061,-0.145,-0.025
5062,-0.145,-0.015
5063,-0.145,-0.005
5064,-0.145,0.000
5065,-0.145,0.000
5066,-0.150,-0.010
5067,-0.155,-0.015
5068,-0.160,-0.020
5069,-0.165,-0.025
5070,-0.165,-0.020
5071,-0.165,-0.015
5072,-0.160,-0.015
5073,-0.155,-0.015
5074,-0.150,-0.015
5075,-0.155,-0.015
5076,-0.170,-0.010
5077,-0.175,-0.005
5078,-0.175,-0.010
5079,-0.175,-0.015
5080,-0.175,-0.010
5081,-0.170,-0.005
5082,-0.160,-0.005
5083,-0.155,-0.010
5084,-0.155,-0.025
5085,-0.155,-0.025
5086,-0.155,-0.025
5087,-0.155,-0.015
5088,-0.155,-0.005
5089,-0.155,-0.010
5090,-0.155,-0.015
5091,-0.155,-0.015
5092,-0.155,-0.015
5093,-0.155,-0.020
5094,-0.155,-0.025
5095,-0.155,-0.020
5096,-0.155,-0.015
5097,-0.160,-0.020
5098,-0.165,-0.025
5099,-0.160,-0.025
5100,-0.155,-0.025
5101,-0.155,-0.020
5102,-0.155,-0.015
5103,-0.145,-0.020
5104,-0.135,-0.025
5105,-0.135,-0.025
5106,-0.135,-0.025
5107,-0.140,-0.025
5108,-0.145,-0.025
5109,-0.140,-0.030
5110,-0.130,-0.035
5111,-0.115,-0.030
5112,-0.105,-0.025
5113,-0.110,-0.030
5114,-0.120,-0.035
5115,-0.130,-0.035
5116,-0.135,-0.035
5117,-0.130,-0.035
5118,-0.125,-0.035
5119,-0.125,-0.030
5120,-0.125,-0.025
5121,-0.130,-0.025
5122,-0.135,-0.025
5123,-0.135,-0.025
5124,-0.135,-0.025
5125,-0.135,-0.025
5126,-0.120,-0.035
5127,-0.115,-0.035
5128,-0.120,-0.035
5129,-0.125,-0.035
5130,-0.120,-0.040
5131,-0.115,-0.045
5132,-0.115,-0.045
5133,-0.115,-0.045
5134,-0.110,-0.040
5135,-0.105,-0.035
5136,-0.100,-0.035
5137,-0.095,-0.035
5138,-0.105,-0.030
5139,-0.115,-0.025
5140,-0.125,-0.030
5141,-0.130,-0.035
5142,-0.115,-0.035
5143,-0.090,-0.035
5144,-0.055,-0.035
5145,-0.035,-0.035
5146,-0.040,-0.035
5147,-0.035,-0.045
5148,-0.015,-0.070
5149,0.000,-0.085
5150,0.015,-0.080
5151,0.010,-0.070
5152,-0.020,-0.060
5153,-0.045,-0.055
5154,-0.065,-0.060
5155,-0.075,-0.060
5156,-0.075,-0.050
5157,-0.070,-0.045
5158,-0.060,-0.045
5159,-0.055,-0.040
5160,-0.060,-0.030
5161,-0.070,-0.025
5162,-0.080,-0.030
5163,-0.090,-0.035
5164,-0.100,-0.040
5165,-0.105,-0.040
5166,-0.105,-0.030
5167,-0.105,-0.030
5168,-0.105,-0.035
5169,-0.105,-0.035
5170,-0.105,-0.035
5171,-0.100,-0.030
5172,-0.095,-0.025
5173,-0.080,-0.020
5174,-0.065,-0.015
5175,-0.060,-0.020
5176,-0.085,-0.025
5177,-0.225,-0.015
5178,-0.435,0.005
5179,-0.820,0.065
5180,-1.035,0.070
5181,-0.865,-0.045
5182,-0.485,-0.180
5183,0.275,-0.345
5184,1.105,-0.435
5185,2.045,-0.405
5186,2.685,-0.235
5187,2.950,0.095
5188,3.015,0.330
5189,2.865,0.470
5190,2.585,0.615
5191,2.205,0.770
5192,1.505,0.555
5193,0.595,0.080
5194,0.070,-0.235
5195,-0.235,-0.460
5196,-0.290,-0.445
5197,-0.225,-0.315
5198,-0.200,-0.210
5199,-0.190,-0.120
5200,-0.205,-0.090
5201,-0.235,-0.080
5202,-0.250,-0.075
5203,-0.260,-0.075
5204,-0.265,-0.075
5205,-0.260,-0.080
5206,-0.255,-0.085
5207,-0.255,-0.085
5208,-0.255,-0.090
5209,-0.255,-0.105
5210,-0.250,-0.105
5211,-0.245,-0.105
5212,-0.245,-0.100
5213,-0.245,-0.095
5214,-0.235,-0.100
5215,-0.225,-0.105
5216,-0.220,-0.110
5217,-0.215,-0.115
5218,-0.215,-0.120
5219,-0.215,-0.125
5220,-0.205,-0.125
5221,-0.195,-0.125
5222,-0.180,-0.135
5223,-0.165,-0.145
5224,-0.165,-0.150
5225,-0.160,-0.155
5226,-0.145,-0.160
5227,-0.135,-0.165
5228,-0.130,-0.170
5229,-0.125,-0.175
5230,-0.120,-0.180
5231,-0.115,-0.190
5232,-0.110,-0.200
5233,-0.100,-0.205
5234,-0.090,-0.210
5235,-0.080,-0.215
5236,-0.065,-0.220
5237,-0.050,-0.235
5238,-0.040,-0.250
5239,-0.030,-0.260
5240,-0.020,-0.270
5241,-0.005,-0.275
5242,0.010,-0.280
5243,0.020,-0.285
5244,0.030,-0.290
5245,0.040,-0.295
5246,0.050,-0.300
5247,0.070,-0.315
5248,0.090,-0.330
5249,0.095,-0.335
5250,0.095,-0.335
5251,0.105,-0.325
5252,0.105,-0.325
5253,0.125,-0.325
5254,0.145,-0.325
5255,0.145,-0.315
5256,0.145,-0.305
5257,0.155,-0.295
5258,0.165,-0.285
5259,0.150,-0.255
5260,0.135,-0.230
5261,0.130,-0.205
5262,0.120,-0.185
5263,0.100,-0.170
5264,0.080,-0.150
5265,0.065,-0.125
5266,0.050,-0.100
5267,0.030,-0.080
5268,0.010,-0.065
5269,-0.010,-0.055
5270,-0.035,-0.045
5271,-0.070,-0.030
5272,-0.085,-0.020
5273,-0.085,-0.010
5274,-0.090,0.000
5275,-0.105,0.015
5276,-0.120,0.025
5277,-0.130,0.020
5278,-0.130,0.015
5279,-0.120,0.015
5280,-0.115,0.015
5281,-0.115,0.020
5282,-0.115,0.025
5283,-0.120,0.025
5284,-0.125,0.025
5285,-0.130,0.025
5286,-0.135,0.020
5287,-0.135,0.010
5288,-0.135,0.005
5289,-0.130,0.005
5290,-0.125,0.005
5291,-0.120,0.010
5292,-0.125,0.015
5293,-0.135,0.015
5294,-0.130,0.015
5295,-0.125,0.015
5296,-0.125,0.015
5297,-0.125,0.015
5298,-0.130,0.015
5299,-0.135,0.015
5300,-0.140,0.015
5301,-0.145,0.015
5302,-0.140,0.010
5303,-0.135,0.005
5304,-0.140,0.005
5305,-0.145,0.005
5306,-0.145,0.015
5307,-0.145,0.025
5308,-0.145,0.020
5309,-0.145,0.015
5310,-0.145,0.015
5311,-0.145,0.015
5312,-0.145,0.015
5313,-0.145,0.015
5314,-0.145,0.015
5315,-0.145,0.015
5316,-0.145,0.015
5317,-0.145,0.015
5318,-0.150,0.010
5319,-0.155,0.005
5320,-0.150,0.005
5321,-0.145,0.005
5322,-0.145,0.010
5323,-0.145,0.015
5324,-0.140,0.015
5325,-0.135,0.015
5326,-0.140,0.010
5327,-0.145,0.005
5328,-0.140,0.005
5329,-0.135,0.005
5330,-0.130,0.010
5331,-0.130,0.015
5332,-0.140,0.010
5333,-0.145,0.005
5334,-0.145,-0.005
5335,-0.140,0.000
5336,-0.135,0.005
5337,-0.130,0.010
5338,-0.125,0.015
5339,-0.130,0.010
5340,-0.135,0.005
5341,-0.135,0.000
5342,-0.135,-0.005
5343,-0.130,0.005
5344,-0.125,0.015
5345,-0.120,0.015
5346,-0.115,0.015
5347,-0.120,0.010
5348,-0.125,0.005
5349,-0.125,0.000
5350,-0.125,-0.005
5351,-0.120,0.000
5352,-0.115,0.005
5353,-0.110,0.010
5354,-0.105,0.015
5355,-0.120,0.015
5356,-0.125,0.010
5357,-0.125,0.000
5358,-0.125,-0.005
5359,-0.120,-0.005
5360,-0.120,-0.005
5361,-0.130,0.000
5362,-0.130,0.000
5363,-0.120,-0.010
5364,-0.105,-0.015
5365,-0.090,-0.010
5366,-0.070,-0.005
5367,-0.050,-0.005
5368,-0.045,-0.010
5369,-0.040,-0.020
5370,-0.020,-0.035
5371,0.000,-0.050
5372,-0.020,-0.040
5373,-0.050,-0.020
5374,-0.060,-0.015
5375,-0.055,-0.015
5376,-0.085,-0.020
5377,-0.095,-0.015
5378,-0.095,-0.025
5379,-0.095,-0.035
5380,-0.090,-0.030
5381,-0.085,-0.025
5382,-0.090,-0.010
5383,-0.095,0.005
5384,-0.100,0.005
5385,-0.105,0.005
5386,-0.115,0.000
5387,-0.125,-0.005
5388,-0.120,-0.005
5389,-0.115,-0.005
5390,-0.115,0.000
5391,-0.115,0.005
5392,-0.110,0.005
5393,-0.105,0.005
5394,-0.100,0.005
5395,-0.095,0.005
5396,-0.080,0.000
5397,-0.075,-0.005
5398,-0.075,-0.005
5399,-0.175,0.015
5400,-0.355,0.050
5401,-0.635,0.090
5402,-0.985,0.135
5403,-1.000,0.085
5404,-0.835,-0.030
5405,-0.270,-0.160
5406,0.470,-0.300
5407,1.415,-0.335
5408,2.425,-0.335
5409,2.870,-0.110
5410,3.165,0.180
5411,3.115,0.330
5412,2.990,0.460
5413,2.465,0.585
5414,1.895,0.715
5415,0.990,0.225
5416,0.060,-0.315
5417,-0.160,-0.405
5418,-0.365,-0.485
5419,-0.290,-0.330
5420,-0.215,-0.180
5421,-0.220,-0.105
5422,-0.225,-0.035
5423,-0.245,-0.030
5424,-0.265,-0.025
5425,-0.275,-0.035
5426,-0.285,-0.045
5427,-0.285,-0.050
5428,-0.285,-0.055
5429,-0.285,-0.050
5430,-0.285,-0.045
5431,-0.280,-0.045
5432,-0.275,-0.045
5433,-0.270,-0.045
5434,-0.265,-0.045
5435,-0.265,-0.050
5436,-0.265,-0.055
5437,-0.260,-0.060
5438,-0.250,-0.065
5439,-0.240,-0.065
5440,-0.235,-0.065
5441,-0.235,-0.070
5442,-0.235,-0.075
5443,-0.230,-0.080
5444,-0.220,-0.085
5445,-0.210,-0.090
5446,-0.200,-0.095
5447,-0.190,-0.095
5448,-0.185,-0.095
5449,-0.180,-0.100
5450,-0.175,-0.110
5451,-0.175,-0.120
5452,-0.165,-0.125
5453,-0.150,-0.130
5454,-0.140,-0.135
5455,-0.130,-0.140
5456,-0.125,-0.150
5457,-0.120,-0.160
5458,-0.110,-0.175
5459,-0.095,-0.195
5460,-0.080,-0.200
5461,-0.065,-0.205
5462,-0.055,-0.210
5463,-0.045,-0.215
5464,-0.035,-0.225
5465,-0.025,-0.235
5466,-0.010,-0.245
5467,0.005,-0.255
5468,0.025,-0.260
5469,0.045,-0.265
5470,0.055,-0.265
5471,0.065,-0.265
5472,0.075,-0.275
5473,0.085,-0.285
5474,0.090,-0.285
5475,0.100,-0.285
5476,0.115,-0.285
5477,0.125,-0.280
5478,0.130,-0.265
5479,0.135,-0.255
5480,0.135,-0.240
5481,0.135,-0.230
5482,0.130,-0.215
5483,0.115,-0.195
5484,0.095,-0.175
5485,0.070,-0.150
5486,0.045,-0.125
5487,0.020,-0.105
5488,-0.005,-0.085
5489,-0.030,-0.070
5490,-0.055,-0.060
5491,-0.080,-0.045
5492,-0.100,-0.030
5493,-0.110,-0.020
5494,-0.120,-0.010
5495,-0.135,-0.005
5496,-0.150,0.000
5497,-0.155,0.005
5498,-0.160,0.005
5499,-0.165,0.010
5500,-0.165,0.005
5501,-0.165,0.025
5502,-0.165,0.025
5503,-0.170,0.015
5504,-0.175,0.005
5505,-0.170,0.005
5506,-0.165,0.005
5507,-0.160,0.010
5508,-0.155,0.015
5509,-0.160,0.020
5510,-0.165,0.025
5511,-0.160,0.025
5512,-0.155,0.025
5513,-0.155,0.020
5514,-0.155,0.015
5515,-0.155,0.015
5516,-0.155,0.015
5517,-0.155,0.025
5518,-0.155,0.030
5519,-0.155,0.015
5520,-0.155,0.005
5521,-0.160,0.010
5522,-0.165,0.015
5523,-0.165,0.015
5524,-0.165,0.015
5525,-0.160,0.020
5526,-0.155,0.020
5527,-0.160,0.010
5528,-0.165,0.005
5529,-0.170,0.005
5530,-0.175,0.005
5531,-0.170,0.010
5532,-0.165,0.015
5533,-0.165,0.020
5534,-0.165,0.020
5535,-0.165,0.010
5536,-0.165,0.005
5537,-0.170,0.005
5538,-0.175,0.005
5539,-0.175,0.010
5540,-0.175,0.015
5541,-0.170,0.015
5542,-0.170,0.010
5543,-0.175,0.005
5544,-0.175,0.000
5545,-0.175,-0.005
5546,-0.170,0.005
5547,-0.165,0.015
5548,-0.160,0.015
5549,-0.155,0.015
5550,-0.160,0.010
5551,-0.165,0.005
5552,-0.165,0.000
5553,-0.165,-0.005
5554,-0.165,0.000
5555,-0.165,0.005
5556,-0.165,0.010
5557,-0.165,0.015
5558,-0.165,0.010
5559,-0.165,0.005
5560,-0.160,-0.005
5561,-0.155,-0.015
5562,-0.155,-0.005
5563,-0.155,0.005
5564,-0.150,0.005
5565,-0.145,0.005
5566,-0.145,0.000
5567,-0.145,-0.005
5568,-0.150,-0.010
5569,-0.155,-0.015
5570,-0.155,-0.010
5571,-0.155,-0.005
5572,-0.150,0.000
5573,-0.145,0.005
5574,-0.145,0.000
5575,-0.145,-0.005
5576,-0.145,-0.005
5577,-0.145,-0.005
5578,-0.140,-0.005
5579,-0.135,-0.005
5580,-0.135,-0.005
5581,-0.135,-0.005
5582,-0.135,-0.005
5583,-0.135,-0.005
5584,-0.135,-0.015
5585,-0.135,-0.010
5586,-0.135,-0.005
5587,-0.140,0.000
5588,-0.145,0.005
5589,-0.150,-0.005
5590,-0.155,-0.015
5591,-0.140,-0.015
5592,-0.125,-0.015
5593,-0.105,-0.010
5594,-0.085,-0.005
5595,-0.085,-0.015
5596,-0.080,-0.030
5597,-0.055,-0.050
5598,-0.035,-0.065
5599,-0.030,-0.060
5600,-0.035,-0.050
5601,-0.060,-0.035
5602,-0.075,-0.025
5603,-0.085,-0.025
5604,-0.100,-0.025
5605,-0.115,-0.030
5606,-0.125,-0.040
5607,-0.120,-0.050
5608,-0.115,-0.050
5609,-0.110,-0.040
5610,-0.105,-0.025
5611,-0.110,-0.005
5612,-0.125,0.005
5613,-0.140,0.000
5614,-0.145,-0.010
5615,-0.150,-0.020
5616,-0.155,-0.020
5617,-0.155,-0.010
5618,-0.150,-0.005
5619,-0.140,-0.005
5620,-0.135,-0.005
5621,-0.140,-0.005
5622,-0.145,-0.005
5623,-0.140,-0.010
5624,-0.130,-0.015
5625,-0.135,-0.015
5626,-0.115,0.000
5627,-0.125,0.005
5628,-0.355,0.055
5629,-0.585,0.105
5630,-0.850,0.125
5631,-1.040,0.125
5632,-0.785,-0.015
5633,-0.390,-0.165
5634,0.600,-0.350
5635,1.545,-0.455
5636,2.315,-0.275
5637,2.905,-0.085
5638,3.015,0.135
5639,3.070,0.330
5640,2.990,0.480
5641,2.645,0.500
5642,1.865,0.295
5643,1.090,0.000
5644,0.320,-0.420
5645,-0.140,-0.580
5646,-0.235,-0.435
5647,-0.260,-0.290
5648,-0.210,-0.140
5649,-0.195,-0.060
5650,-0.225,-0.030
5651,-0.250,-0.020
5652,-0.275,-0.030
5653,-0.290,-0.040
5654,-0.300,-0.050
5655,-0.305,-0.055
5656,-0.305,-0.050
5657,-0.305,-0.045
5658,-0.305,-0.040
5659,-0.305,-0.035
5660,-0.300,-0.040
5661,-0.295,-0.045
5662,-0.290,-0.050
5663,-0.285,-0.055
5664,-0.280,-0.055
5665,-0.270,-0.055
5666,-0.260,-0.050
5667,-0.255,-0.055
5668,-0.255,-0.065
5669,-0.250,-0.070
5670,-0.245,-0.075
5671,-0.235,-0.075
5672,-0.225,-0.075
5673,-0.220,-0.080
5674,-0.215,-0.085
5675,-0.215,-0.095
5676,-0.215,-0.105
5677,-0.205,-0.110
5678,-0.195,-0.115
5679,-0.185,-0.120
5680,-0.175,-0.125
5681,-0.165,-0.130
5682,-0.155,-0.135
5683,-0.150,-0.145
5684,-0.145,-0.160
5685,-0.140,-0.175
5686,-0.135,-0.185
5687,-0.125,-0.190
5688,-0.110,-0.195
5689,-0.095,-0.200
5690,-0.085,-0.210
5691,-0.080,-0.225
5692,-0.070,-0.240
5693,-0.060,-0.250
5694,-0.050,-0.255
5695,-0.030,-0.255
5696,-0.015,-0.260
5697,0.005,-0.270
5698,0.030,-0.280
5699,0.050,-0.290
5700,0.060,-0.295
5701,0.070,-0.300
5702,0.085,-0.305
5703,0.100,-0.300
5704,0.115,-0.295
5705,0.130,-0.290
5706,0.135,-0.285
5707,0.140,-0.280
5708,0.145,-0.270
5709,0.155,-0.255
5710,0.155,-0.235
5711,0.155,-0.215
5712,0.145,-0.195
5713,0.135,-0.175
5714,0.110,-0.160
5715,0.085,-0.145
5716,0.050,-0.125
5717,0.025,-0.105
5718,0.005,-0.090
5719,-0.020,-0.075
5720,-0.045,-0.060
5721,-0.070,-0.045
5722,-0.090,-0.040
5723,-0.105,-0.035
5724,-0.115,-0.030
5725,-0.125,-0.025
5726,-0.130,-0.020
5727,-0.135,-0.015
5728,-0.135,-0.010
5729,-0.135,-0.005
5730,-0.150,-0.005
5731,-0.155,-0.005
5732,-0.150,-0.005
5733,-0.145,-0.005
5734,-0.145,-0.005
5735,-0.145,-0.005
5736,-0.145,0.000
5737,-0.145,0.005
5738,-0.145,0.000
5739,-0.145,-0.005
5740,-0.150,-0.010
5741,-0.155,-0.015
5742,-0.155,-0.010
5743,-0.155,-0.005
5744,-0.150,0.000
5745,-0.145,0.005
5746,-0.145,0.000
5747,-0.155,-0.005
5748,-0.170,-0.010
5749,-0.175,-0.010
5750,-0.175,-0.015
5751,-0.160,0.005
5752,-0.155,0.005
5753,-0.155,0.000
5754,-0.155,-0.005
5755,-0.170,-0.010
5756,-0.185,-0.015
5757,-0.180,-0.005
5758,-0.175,0.005
5759,-0.170,0.005
5760,-0.165,0.005
5761,-0.170,0.000
5762,-0.175,-0.005
5763,-0.175,-0.010
5764,-0.175,-0.015
5765,-0.175,-0.010
5766,-0.175,-0.005
5767,-0.170,0.000
5768,-0.165,0.005
5769,-0.170,0.000
5770,-0.175,-0.005
5771,-0.170,-0.010
5772,-0.165,-0.015
5773,-0.165,-0.015
5774,-0.165,-0.015
5775,-0.160,-0.010
5776,-0.155,-0.010
5777,-0.160,-0.020
5778,-0.165,-0.025
5779,-0.165,-0.025
5780,-0.165,-0.025
5781,-0.160,-0.020
5782,-0.155,-0.015
5783,-0.150,-0.010
5784,-0.145,-0.010
5785,-0.150,-0.020
5786,-0.155,-0.025
5787,-0.155,-0.025
5788,-0.155,-0.025
5789,-0.160,-0.025
5790,-0.160,-0.025
5791,-0.150,-0.020
5792,-0.140,-0.020
5793,-0.135,-0.025
5794,-0.145,-0.030
5795,-0.155,-0.035
5796,-0.150,-0.030
5797,-0.145,-0.025
5798,-0.145,-0.020
5799,-0.145,-0.015
5800,-0.150,-0.020
5801,-0.155,-0.025
5802,-0.150,-0.030
5803,-0.145,-0.035
5804,-0.140,-0.030
5805,-0.135,-0.025
5806,-0.130,-0.020
5807,-0.125,-0.015
5808,-0.135,-0.020
5809,-0.145,-0.025
5810,-0.140,-0.025
5811,-0.135,-0.025
5812,-0.130,-0.030
5813,-0.125,-0.035
5814,-0.130,-0.035
5815,-0.135,-0.035
5816,-0.130,-0.040
5817,-0.125,-0.045
5818,-0.125,-0.045
5819,-0.125,-0.045
5820,-0.125,-0.040
5821,-0.125,-0.035
5822,-0.125,-0.030
5823,-0.125,-0.025
5824,-0.130,-0.030
5825,-0.135,-0.035
5826,-0.130,-0.035
5827,-0.125,-0.035
5828,-0.125,-0.040
5829,-0.120,-0.045
5830,-0.110,-0.045
5831,-0.105,-0.045
5832,-0.105,-0.045
5833,-0.110,-0.045
5834,-0.125,-0.045
5835,-0.125,-0.045
5836,-0.125,-0.045
5837,-0.125,-0.045
5838,-0.125,-0.045
5839,-0.105,-0.050
5840,-0.085,-0.055
5841,-0.065,-0.060
5842,-0.045,-0.065
5843,-0.040,-0.075
5844,-0.030,-0.085
5845,-0.010,-0.095
5846,0.000,-0.100
5847,-0.025,-0.080
5848,-0.050,-0.065
5849,-0.065,-0.070
5850,-0.075,-0.075
5851,-0.085,-0.070
5852,-0.095,-0.065
5853,-0.090,-0.065
5854,-0.085,-0.065
5855,-0.080,-0.070
5856,-0.080,-0.070
5857,-0.090,-0.060
5858,-0.100,-0.055
5859,-0.110,-0.050
5860,-0.115,-0.045
5861,-0.115,-0.045
5862,-0.115,-0.045
5863,-0.120,-0.045
5864,-0.125,-0.045
5865,-0.120,-0.045
5866,-0.115,-0.045
5867,-0.110,-0.040
5868,-0.105,-0.035
5869,-0.100,-0.030
5870,-0.095,-0.025
5871,-0.095,-0.030
5872,-0.080,-0.035
5873,-0.060,-0.040
5874,-0.115,-0.040
5875,-0.055,-0.045
5876,-0.545,0.055
5877,-0.895,0.135
5878,-0.945,0.035
5879,-0.945,-0.070
5880,-0.395,-0.235
5881,0.235,-0.390
5882,1.315,-0.445
5883,2.280,-0.435
5884,2.745,-0.110
5885,3.085,0.175
5886,3.000,0.320
5887,2.885,0.470
5888,2.700,0.640
5889,2.245,0.630
5890,1.230,0.240
5891,0.425,-0.110
5892,-0.035,-0.405
5893,-0.290,-0.515
5894,-0.250,-0.375
5895,-0.220,-0.250
5896,-0.195,-0.155
5897,-0.195,-0.100
5898,-0.215,-0.085
5899,-0.235,-0.075
5900,-0.255,-0.080
5901,-0.270,-0.085
5902,-0.280,-0.090
5903,-0.285,-0.100
5904,-0.280,-0.110
5905,-0.275,-0.110
5906,-0.270,-0.100
5907,-0.260,-0.095
5908,-0.250,-0.090
5909,-0.245,-0.090
5910,-0.250,-0.100
5911,-0.255,-0.110
5912,-0.250,-0.120
5913,-0.240,-0.125
5914,-0.230,-0.125
5915,-0.220,-0.125
5916,-0.210,-0.125
5917,-0.205,-0.130
5918,-0.205,-0.135
5919,-0.200,-0.140
5920,-0.195,-0.145
5921,-0.185,-0.145
5922,-0.175,-0.145
5923,-0.170,-0.155
5924,-0.165,-0.165
5925,-0.160,-0.175
5926,-0.155,-0.185
5927,-0.150,-0.195
5928,-0.145,-0.205
5929,-0.135,-0.200
5930,-0.120,-0.195
5931,-0.100,-0.200
5932,-0.085,-0.210
5933,-0.080,-0.230
5934,-0.075,-0.245
5935,-0.065,-0.255
5936,-0.055,-0.265
5937,-0.045,-0.270
5938,-0.025,-0.275
5939,-0.005,-0.275
5940,0.010,-0.280
5941,0.020,-0.290
5942,0.025,-0.300
5943,0.030,-0.315
5944,0.050,-0.325
5945,0.075,-0.325
5946,0.095,-0.325
5947,0.110,-0.325
5948,0.120,-0.325
5949,0.130,-0.330
5950,0.135,-0.335
5951,0.140,-0.340
5952,0.150,-0.340
5953,0.160,-0.330
5954,0.175,-0.315
5955,0.190,-0.300
5956,0.195,-0.295
5957,0.190,-0.290
5958,0.180,-0.270
5959,0.165,-0.245
5960,0.155,-0.220
5961,0.145,-0.195
5962,0.120,-0.165
5963,0.095,-0.135
5964,0.070,-0.115
5965,0.045,-0.095
5966,0.020,-0.085
5967,-0.005,-0.075
5968,-0.025,-0.060
5969,-0.045,-0.045
5970,-0.055,-0.040
5971,-0.065,-0.035
5972,-0.075,-0.030
5973,-0.090,-0.025
5974,-0.105,-0.020
5975,-0.115,-0.015
5976,-0.115,-0.015
5977,-0.115,-0.015
5978,-0.105,-0.005
5979,-0.095,0.005
5980,-0.110,0.000
5981,-0.120,-0.005
5982,-0.130,-0.010
5983,-0.130,-0.010
5984,-0.120,0.000
5985,-0.115,0.005
5986,-0.115,0.005
5987,-0.120,0.005
5988,-0.130,0.000
5989,-0.135,-0.005
5990,-0.140,-0.010
5991,-0.145,-0.015
5992,-0.140,-0.010
5993,-0.135,-0.005
5994,-0.130,0.000
5995,-0.130,0.005
5996,-0.140,0.000
5997,-0.145,-0.005
5998,-0.145,-0.005
5999,-0.145,-0.005
6000,-0.145,-0.005
6001,-0.140,0.000
6002,-0.125,-0.005
6003,-0.135,-0.005
6004,-0.145,-0.005
6005,-0.150,-0.005
6006,-0.155,-0.005
6007,-0.145,-0.005
6008,-0.135,-0.005
6009,-0.140,-0.005
6010,-0.145,-0.005
6011,-0.150,-0.005
6012,-0.155,-0.005
6013,-0.155,-0.005
6014,-0.155,-0.005
6015,-0.150,-0.005
6016,-0.145,-0.005
6017,-0.140,0.000
6018,-0.135,0.005
6019,-0.140,0.000
6020,-0.145,-0.005
6021,-0.145,-0.010
6022,-0.145,-0.015
6023,-0.145,-0.015
6024,-0.145,-0.015
6025,-0.145,-0.010
6026,-0.145,-0.005
6027,-0.145,-0.005
6028,-0.145,-0.005
6029,-0.145,-0.005
6030,-0.135,-0.005
6031,-0.120,-0.010
6032,-0.115,-0.010
6033,-0.120,0.000
6034,-0.125,0.005
6035,-0.130,0.000
6036,-0.135,-0.005
6037,-0.140,-0.010
6038,-0.145,-0.015
6039,-0.140,-0.015
6040,-0.135,-0.015
6041,-0.140,-0.015
6042,-0.135,-0.015
6043,-0.125,-0.015
6044,-0.125,-0.020
6045,-0.125,-0.025
6046,-0.125,-0.020
6047,-0.125,-0.015
6048,-0.130,-0.010
6049,-0.135,-0.005
6050,-0.130,-0.010
6051,-0.125,-0.015
6052,-0.130,-0.025
6053,-0.135,-0.035
6054,-0.120,-0.030
6055,-0.105,-0.025
6056,-0.110,-0.015
6057,-0.115,-0.005
6058,-0.120,-0.010
6059,-0.125,-0.015
6060,-0.125,-0.025
6061,-0.125,-0.035
6062,-0.115,-0.030
6063,-0.105,-0.025
6064,-0.105,-0.020
6065,-0.105,-0.015
6066,-0.110,-0.020
6067,-0.115,-0.025
6068,-0.115,-0.030
6069,-0.115,-0.035
6070,-0.120,-0.030
6071,-0.125,-0.025
6072,-0.120,-0.020
6073,-0.100,-0.015
6074,-0.075,-0.020
6075,-0.065,-0.035
6076,-0.060,-0.050
6077,-0.055,-0.060
6078,-0.050,-0.070
6079,-0.025,-0.075
6080,0.000,-0.070
6081,-0.015,-0.060
6082,-0.040,-0.050
6083,-0.055,-0.045
6084,-0.075,-0.055
6085,-0.090,-0.055
6086,-0.105,-0.055
6087,-0.090,-0.055
6088,-0.075,-0.055
6089,-0.075,-0.055
6090,-0.075,-0.055
6091,-0.080,-0.040
6092,-0.085,-0.025
6093,-0.090,-0.025
6094,-0.095,-0.025
6095,-0.105,-0.025
6096,-0.115,-0.025
6097,-0.110,-0.030
6098,-0.105,-0.035
6099,-0.105,-0.035
6100,-0.105,-0.035
6101,-0.100,-0.030
6102,-0.095,-0.025
6103,-0.090,-0.025
6104,-0.085,-0.025
6105,-0.080,-0.025
6106,-0.075,-0.025
6107,-0.070,-0.025
6108,-0.145,-0.015
6109,-0.290,0.015
6110,-0.580,0.060
6111,-0.960,0.115
6112,-1.020,0.060
6113,-0.925,-0.050
6114,-0.410,-0.175
6115,0.265,-0.305
6116,1.210,-0.345
6117,2.240,-0.360
6118,2.750,-0.135
6119,3.140,0.150
6120,3.085,0.280
6121,2.960,0.385
6122,2.730,0.550
6123,2.490,0.725
6124,1.525,0.385
6125,2.475,0.735
6126,0.085,-0.290
6127,-0.335,-0.580
6128,-0.290,-0.430
6129,-0.245,-0.290
6130,-0.220,-0.185
6131,-0.195,-0.095
6132,-0.215,-0.075
6133,-0.235,-0.055
6134,-0.245,-0.060
6135,-0.255,-0.065
6136,-0.260,-0.070
6137,-0.265,-0.075
6138,-0.265,-0.080
6139,-0.265,-0.085
6140,-0.260,-0.080
6141,-0.255,-0.075
6142,-0.250,-0.075
6143,-0.245,-0.075
6144,-0.245,-0.080
6145,-0.245,-0.085
6146,-0.245,-0.100
6147,-0.240,-0.105
6148,-0.230,-0.100
6149,-0.220,-0.095
6150,-0.210,-0.095
6151,-0.205,-0.100
6152,-0.205,-0.110
6153,-0.205,-0.115
6154,-0.200,-0.120
6155,-0.190,-0.125
6156,-0.180,-0.125
6157,-0.165,-0.125
6158,-0.150,-0.125
6159,-0.145,-0.135
6160,-0.145,-0.150
6161,-0.145,-0.160
6162,-0.140,-0.170
6163,-0.130,-0.175
6164,-0.120,-0.175
6165,-0.110,-0.175
6166,-0.100,-0.180
6167,-0.090,-0.200
6168,-0.085,-0.215
6169,-0.075,-0.225
6170,-0.065,-0.235
6171,-0.055,-0.240
6172,-0.045,-0.245
6173,-0.030,-0.250
6174,-0.015,-0.255
6175,-0.005,-0.270
6176,0.005,-0.285
6177,0.020,-0.295
6178,0.035,-0.305
6179,0.045,-0.310
6180,0.060,-0.315
6181,0.080,-0.310
6182,0.095,-0.305
6183,0.100,-0.315
6184,0.105,-0.325
6185,0.110,-0.325
6186,0.115,-0.325
6187,0.120,-0.315
6188,0.130,-0.300
6189,0.140,-0.285
6190,0.145,-0.270
6191,0.140,-0.260
6192,0.130,-0.245
6193,0.115,-0.225
6194,0.095,-0.200
6195,0.075,-0.175
6196,0.050,-0.150
6197,0.025,-0.125
6198,0.000,-0.110
6199,-0.025,-0.100
6200,-0.050,-0.085
6201,-0.070,-0.070
6202,-0.085,-0.055
6203,-0.100,-0.040
6204,-0.105,-0.030
6205,-0.110,-0.020
6206,-0.125,-0.015
6207,-0.140,-0.015
6208,-0.150,-0.015
6209,-0.165,-0.025
6210,-0.160,-0.015
6211,-0.155,-0.005
6212,-0.155,0.000
6213,-0.155,0.005
6214,-0.160,0.005
6215,-0.165,0.005
6216,-0.165,0.000
6217,-0.165,-0.005
6218,-0.165,0.000
6219,-0.165,0.005
6220,-0.160,0.005
6221,-0.155,0.005
6222,-0.160,0.000
6223,-0.165,-0.005
6224,-0.165,-0.010
6225,-0.165,-0.015
6226,-0.165,-0.010
6227,-0.165,-0.005
6228,-0.160,0.000
6229,-0.155,0.005
6230,-0.160,0.000
6231,-0.165,-0.005
6232,-0.165,-0.005
6233,-0.165,-0.005
6234,-0.170,-0.010
6235,-0.175,-0.015
6236,-0.170,-0.010
6237,-0.165,-0.005
6238,-0.165,-0.005
6239,-0.170,-0.005
6240,-0.180,-0.005
6241,-0.185,-0.005
6242,-0.185,-0.005
6243,-0.185,-0.005
6244,-0.180,0.000
6245,-0.175,0.005
6246,-0.180,0.000
6247,-0.185,-0.005
6248,-0.185,-0.010
6249,-0.185,-0.015
6250,-0.185,-0.015
6251,-0.175,-0.010
6252,-0.175,-0.005
6253,-0.180,-0.010
6254,-0.185,-0.015
6255,-0.190,-0.020
6256,-0.195,-0.025
6257,-0.185,-0.020
6258,-0.175,-0.015
6259,-0.175,-0.010
6260,-0.175,-0.005
6261,-0.180,-0.010
6262,-0.185,-0.015
6263,-0.180,-0.020
6264,-0.175,-0.025
6265,-0.175,-0.025
6266,-0.175,-0.025
6267,-0.175,-0.020
6268,-0.175,-0.015
6269,-0.175,-0.015
6270,-0.175,-0.015
6271,-0.180,-0.020
6272,-0.185,-0.025
6273,-0.180,-0.025
6274,-0.175,-0.025
6275,-0.170,-0.020
6276,-0.165,-0.015
6277,-0.170,-0.020
6278,-0.175,-0.025
6279,-0.175,-0.030
6280,-0.175,-0.035
6281,-0.170,-0.030
6282,-0.165,-0.025
6283,-0.165,-0.020
6284,-0.165,-0.020
6285,-0.160,-0.030
6286,-0.155,-0.035
6287,-0.160,-0.035
6288,-0.165,-0.035
6289,-0.165,-0.035
6290,-0.160,-0.030
6291,-0.150,-0.020
6292,-0.155,-0.020
6293,-0.165,-0.025
6294,-0.175,-0.030
6295,-0.185,-0.035
6296,-0.180,-0.035
6297,-0.175,-0.035
6298,-0.150,-0.030
6299,-0.125,-0.025
6300,-0.110,-0.030
6301,-0.095,-0.035
6302,-0.110,-0.045
6303,-0.115,-0.055
6304,-0.075,-0.070
6305,-0.045,-0.085
6306,-0.045,-0.065
6307,-0.055,-0.055
6308,-0.085,-0.050
6309,-0.110,-0.045
6310,-0.125,-0.050
6311,-0.135,-0.055
6312,-0.145,-0.050
6313,-0.150,-0.045
6314,-0.140,-0.050
6315,-0.135,-0.055
6316,-0.135,-0.050
6317,-0.140,-0.040
6318,-0.155,-0.030
6319,-0.165,-0.025
6320,-0.170,-0.025
6321,-0.175,-0.025
6322,-0.175,-0.025
6323,-0.175,-0.025
6324,-0.175,-0.025
6325,-0.175,-0.025
6326,-0.175,-0.030
6327,-0.175,-0.035
6328,-0.170,-0.030
6329,-0.160,-0.025
6330,-0.150,-0.020
6331,-0.140,-0.015
6332,-0.130,-0.015
6333,-0.145,-0.015
6334,-0.175,-0.025
6335,-0.465,0.065
6336,-0.745,0.155
6337,-0.930,0.105
6338,-1.055,0.040
6339,-0.665,-0.130
6340,-0.160,-0.290
6341,0.970,-0.390
6342,1.995,-0.425
6343,2.595,-0.155
6344,3.045,0.085
6345,3.050,0.260
6346,3.010,0.410
6347,2.845,0.510
6348,2.395,0.435
6349,1.395,0.020
6350,0.565,-0.310
6351,0.005,-0.510
6352,-0.305,-0.540
6353,-0.280,-0.350
6354,-0.255,-0.205
6355,-0.220,-0.120
6356,-0.225,-0.070
6357,-0.265,-0.060
6358,-0.295,-0.055
6359,-0.315,-0.060
6360,-0.325,-0.065
6361,-0.330,-0.060
6362,-0.335,-0.055
6363,-0.340,-0.060
6364,-0.345,-0.065
6365,-0.345,-0.070
6366,-0.335,-0.075
6367,-0.320,-0.075
6368,-0.315,-0.075
6369,-0.310,-0.070
6370,-0.305,-0.065
6371,-0.305,-0.070
6372,-0.305,-0.075
6373,-0.300,-0.080
6374,-0.290,-0.085
6375,-0.295,-0.085
6376,-0.275,-0.085
6377,-0.275,-0.085
6378,-0.265,-0.090
6379,-0.255,-0.095
6380,-0.255,-0.105
6381,-0.255,-0.115
6382,-0.245,-0.115
6383,-0.235,-0.115
6384,-0.225,-0.120
6385,-0.215,-0.125
6386,-0.210,-0.135
6387,-0.205,-0.145
6388,-0.200,-0.155
6389,-0.195,-0.165
6390,-0.185,-0.170
6391,-0.175,-0.175
6392,-0.165,-0.185
6393,-0.155,-0.195
6394,-0.145,-0.205
6395,-0.135,-0.215
6396,-0.120,-0.230
6397,-0.110,-0.235
6398,-0.095,-0.240
6399,-0.080,-0.245
6400,-0.065,-0.250
6401,-0.050,-0.260
6402,-0.035,-0.270
6403,-0.015,-0.280
6404,0.000,-0.290
6405,0.015,-0.295
6406,0.035,-0.295
6407,0.055,-0.295
6408,0.070,-0.295
6409,0.085,-0.295
6410,0.100,-0.295
6411,0.110,-0.295
6412,0.120,-0.295
6413,0.125,-0.285
6414,0.130,-0.270
6415,0.135,-0.250
6416,0.140,-0.230
6417,0.125,-0.205
6418,0.105,-0.185
6419,0.085,-0.175
6420,0.065,-0.165
6421,0.040,-0.145
6422,0.015,-0.125
6423,-0.005,-0.100
6424,-0.030,-0.075
6425,-0.060,-0.065
6426,-0.090,-0.055
6427,-0.115,-0.050
6428,-0.135,-0.045
6429,-0.145,-0.040
6430,-0.155,-0.035
6431,-0.165,-0.025
6432,-0.175,-0.015
6433,-0.180,-0.015
6434,-0.185,-0.015
6435,-0.190,-0.015
6436,-0.195,-0.015
6437,-0.190,-0.010
6438,-0.185,-0.005
6439,-0.185,0.000
6440,-0.185,0.005
6441,-0.185,0.000
6442,-0.185,-0.005
6443,-0.185,-0.005
6444,-0.185,-0.005
6445,-0.185,-0.005
6446,-0.185,-0.005
6447,-0.180,0.000
6448,-0.180,0.005
6449,-0.190,0.005
6450,-0.195,0.005
6451,-0.195,0.005
6452,-0.195,0.005
6453,-0.195,0.005
6454,-0.195,0.005
6455,-0.190,0.010
6456,-0.185,0.015
6457,-0.190,0.015
6458,-0.195,0.015
6459,-0.205,0.005
6460,-0.200,0.005
6461,-0.195,0.005
6462,-0.195,0.010
6463,-0.195,0.015
6464,-0.195,0.010
6465,-0.195,0.005
6466,-0.200,0.000
6467,-0.205,-0.005
6468,-0.205,0.000
6469,-0.205,0.005
6470,-0.200,0.010
6471,-0.195,0.015
6472,-0.200,0.010
6473,-0.205,0.005
6474,-0.205,0.000
6475,-0.205,-0.005
6476,-0.200,0.000
6477,-0.195,0.005
6478,-0.190,0.010
6479,-0.185,0.015
6480,-0.190,0.010
6481,-0.195,0.005
6482,-0.200,0.000
6483,-0.205,-0.005
6484,-0.200,0.000
6485,-0.195,0.005
6486,-0.195,0.010
6487,-0.195,0.015
6488,-0.190,0.010
6489,-0.185,0.005
6490,-0.190,0.000
6491,-0.195,-0.005
6492,-0.190,0.000
