'sample interval','ECG1','ECG2'
'0.004 sec','mV','mV'
0,0.065,0.100
1,0.055,0.085
2,0.045,0.070
3,0.030,0.060
4,0.020,0.040
5,0.005,0.025
6,0.000,0.015
7,-0.010,0.000
8,-0.025,-0.010
9,-0.035,-0.025
10,-0.045,-0.035
11,-0.055,-0.045
12,-0.065,-0.055
13,-0.070,-0.060
14,-0.075,-0.070
15,-0.080,-0.070
16,-0.085,-0.085
17,-0.085,-0.085
18,-0.090,-0.090
19,-0.095,-0.095
20,-0.100,-0.095
21,-0.100,-0.100
22,-0.100,-0.105
23,-0.105,-0.105
24,-0.105,-0.100
25,-0.110,-0.105
26,-0.110,-0.105
27,-0.110,-0.110
28,-0.105,-0.105
29,-0.105,-0.105
30,-0.105,-0.105
31,-0.105,-0.100
32,-0.105,-0.095
33,-0.105,-0.095
34,-0.110,-0.095
35,-0.110,-0.095
36,-0.110,-0.095
37,-0.110,-0.095
38,-0.115,-0.095
39,-0.110,-0.095
40,-0.110,-0.095
41,-0.115,-0.100
42,-0.120,-0.100
43,-0.125,-0.105
44,-0.130,-0.100
45,-0.135,-0.105
46,-0.140,-0.100
47,-0.145,-0.105
48,-0.145,-0.105
49,-0.145,-0.105
50,-0.145,-0.105
51,-0.145,-0.105
52,-0.145,-0.105
53,-0.140,-0.105
54,-0.135,-0.110
55,-0.135,-0.110
56,-0.130,-0.110
57,-0.130,-0.110
58,-0.125,-0.110
59,-0.125,-0.110
60,-0.120,-0.110
61,-0.120,-0.110
62,-0.120,-0.110
63,-0.115,-0.105
64,-0.120,-0.105
65,-0.120,-0.100
66,-0.120,-0.100
67,-0.115,-0.095
68,-0.115,-0.095
69,-0.110,-0.095
70,-0.110,-0.090
71,-0.110,-0.090
72,-0.110,-0.090
73,-0.110,-0.085
74,-0.105,-0.085
75,-0.105,-0.085
76,-0.105,-0.085
77,-0.110,-0.080
78,-0.115,-0.075
79,-0.115,-0.075
80,-0.115,-0.070
81,-0.115,-0.070
82,-0.115,-0.075
83,-0.115,-0.075
84,-0.110,-0.075
85,-0.105,-0.070
86,-0.095,-0.060
87,-0.085,-0.055
88,-0.080,-0.045
89,-0.075,-0.035
90,-0.070,-0.030
91,-0.070,-0.030
92,-0.060,-0.030
93,-0.060,-0.020
94,-0.055,-0.010
95,-0.050,-0.005
96,-0.050,0.000
97,-0.055,0.000
98,-0.060,-0.010
99,-0.070,-0.025
100,-0.085,-0.040
101,-0.090,-0.050
102,-0.090,-0.055
103,-0.095,-0.060
104,-0.100,-0.070
105,-0.110,-0.075
106,-0.115,-0.085
107,-0.125,-0.095
108,-0.125,-0.100
109,-0.135,-0.105
110,-0.140,-0.100
111,-0.140,-0.100
112,-0.145,-0.100
113,-0.145,-0.100
114,-0.145,-0.110
115,-0.150,-0.105
116,-0.155,-0.105
117,-0.160,-0.105
118,-0.165,-0.110
119,-0.165,-0.105
120,-0.160,-0.105
121,-0.160,-0.105
122,-0.155,-0.105
123,-0.155,-0.105
124,-0.150,-0.100
125,-0.150,-0.105
126,-0.140,-0.095
127,-0.130,-0.090
128,-0.110,-0.075
129,-0.095,-0.060
130,-0.080,-0.045
131,-0.055,-0.020
132,-0.025,0.005
133,0.025,0.055
134,0.100,0.130
135,0.205,0.245
136,0.310,0.380
137,0.405,0.510
138,0.450,0.600
139,0.455,0.635
140,0.415,0.610
141,0.340,0.545
142,0.255,0.435
143,0.200,0.355
144,0.160,0.295
145,0.095,0.230
146,0.030,0.155
147,-0.020,0.080
148,-0.060,0.015
149,-0.085,-0.020
150,-0.095,-0.045
151,-0.100,-0.055
152,-0.115,-0.065
153,-0.125,-0.075
154,-0.130,-0.080
155,-0.135,-0.085
156,-0.135,-0.090
157,-0.145,-0.095
158,-0.150,-0.100
159,-0.150,-0.105
160,-0.150,-0.105
161,-0.150,-0.105
162,-0.150,-0.105
163,-0.150,-0.105
164,-0.150,-0.105
165,-0.155,-0.105
166,-0.155,-0.105
167,-0.155,-0.105
168,-0.155,-0.105
169,-0.150,-0.105
170,-0.150,-0.110
171,-0.150,-0.105
172,-0.150,-0.105
173,-0.150,-0.105
174,-0.155,-0.105
175,-0.160,-0.105
176,-0.155,-0.105
177,-0.155,-0.105
178,-0.160,-0.105
179,-0.155,-0.105
180,-0.160,-0.100
181,-0.160,-0.095
182,-0.165,-0.095
183,-0.170,-0.090
184,-0.175,-0.095
185,-0.175,-0.095
186,-0.175,-0.095
187,-0.175,-0.090
188,-0.170,-0.080
189,-0.170,-0.080
190,-0.170,-0.075
191,-0.170,-0.075
192,-0.165,-0.070
193,-0.160,-0.070
194,-0.155,-0.065
195,-0.145,-0.060
196,-0.135,-0.050
197,-0.125,-0.040
198,-0.115,-0.035
199,-0.100,-0.025
200,-0.090,-0.010
201,-0.080,0.000
202,-0.065,0.005
203,-0.050,0.020
204,-0.045,0.035
205,-0.035,0.050
206,-0.025,0.065
207,-0.015,0.075
208,-0.010,0.085
209,0.000,0.100
210,0.000,0.105
211,0.005,0.115
212,0.010,0.120
213,0.015,0.125
214,0.010,0.125
215,0.010,0.120
216,0.005,0.115
217,0.000,0.105
218,-0.005,0.095
219,-0.015,0.085
220,-0.025,0.065
221,-0.040,0.055
222,-0.050,0.045
223,-0.060,0.030
224,-0.070,0.015
225,-0.080,0.000
226,-0.085,-0.010
227,-0.100,-0.020
228,-0.105,-0.035
229,-0.110,-0.040
230,-0.120,-0.045
231,-0.125,-0.050
232,-0.130,-0.060
233,-0.130,-0.065
234,-0.140,-0.070
235,-0.145,-0.070
236,-0.145,-0.070
237,-0.150,-0.070
238,-0.155,-0.075
239,-0.160,-0.080
240,-0.160,-0.085
241,-0.165,-0.085
242,-0.165,-0.090
243,-0.165,-0.090
244,-0.170,-0.090
245,-0.170,-0.095
246,-0.170,-0.095
247,-0.170,-0.090
248,-0.175,-0.090
249,-0.175,-0.090
250,-0.180,-0.090
251,-0.180,-0.090
252,-0.180,-0.090
253,-0.185,-0.090
254,-0.180,-0.090
255,-0.180,-0.090
256,-0.175,-0.090
257,-0.180,-0.090
258,-0.185,-0.090
259,-0.185,-0.090
260,-0.185,-0.090
261,-0.180,-0.090
262,-0.175,-0.090
263,-0.180,-0.085
264,-0.180,-0.090
265,-0.175,-0.090
266,-0.180,-0.095
267,-0.180,-0.090
268,-0.175,-0.095
269,-0.175,-0.095
270,-0.180,-0.095
271,-0.180,-0.090
272,-0.180,-0.090
273,-0.185,-0.095
274,-0.180,-0.090
275,-0.180,-0.090
276,-0.180,-0.090
277,-0.175,-0.090
278,-0.170,-0.085
279,-0.175,-0.080
280,-0.175,-0.075
281,-0.170,-0.075
282,-0.170,-0.075
283,-0.170,-0.075
284,-0.165,-0.075
285,-0.160,-0.075
286,-0.160,-0.070
287,-0.160,-0.075
288,-0.160,-0.070
289,-0.165,-0.075
290,-0.160,-0.080
291,-0.165,-0.085
292,-0.165,-0.085
293,-0.165,-0.080
294,-0.165,-0.085
295,-0.165,-0.085
296,-0.165,-0.085
297,-0.165,-0.085
298,-0.170,-0.085
299,-0.175,-0.090
300,-0.170,-0.085
301,-0.175,-0.080
302,-0.175,-0.080
303,-0.170,-0.075
304,-0.160,-0.070
305,-0.150,-0.060
306,-0.145,-0.055
307,-0.140,-0.050
308,-0.125,-0.040
309,-0.125,-0.030
310,-0.120,-0.030
311,-0.120,-0.025
312,-0.115,-0.020
313,-0.105,-0.015
314,-0.105,-0.005
315,-0.105,-0.005
316,-0.115,-0.010
317,-0.125,-0.025
318,-0.135,-0.035
319,-0.145,-0.050
320,-0.155,-0.060
321,-0.160,-0.065
322,-0.165,-0.070
323,-0.170,-0.080
324,-0.170,-0.085
325,-0.180,-0.095
326,-0.180,-0.100
327,-0.180,-0.105
328,-0.180,-0.110
329,-0.185,-0.110
330,-0.185,-0.105
331,-0.185,-0.105
332,-0.190,-0.110
333,-0.185,-0.105
334,-0.180,-0.110
335,-0.180,-0.115
336,-0.185,-0.115
337,-0.185,-0.115
338,-0.185,-0.115
339,-0.185,-0.115
340,-0.180,-0.115
341,-0.175,-0.120
342,-0.175,-0.115
343,-0.170,-0.120
344,-0.165,-0.115
345,-0.160,-0.110
346,-0.150,-0.100
347,-0.140,-0.085
348,-0.130,-0.075
349,-0.115,-0.055
350,-0.090,-0.035
351,-0.065,-0.005
352,-0.015,0.035
353,0.065,0.110
354,0.165,0.230
355,0.280,0.370
356,0.360,0.500
357,0.400,0.590
358,0.400,0.615
359,0.365,0.600
360,0.290,0.520
361,0.210,0.415
362,0.160,0.330
363,0.115,0.265
364,0.050,0.200
365,-0.015,0.125
366,-0.070,0.055
367,-0.115,-0.005
368,-0.145,-0.045
369,-0.165,-0.070
370,-0.175,-0.085
371,-0.185,-0.095
372,-0.195,-0.100
373,-0.205,-0.110
374,-0.215,-0.115
375,-0.215,-0.125
376,-0.220,-0.130
377,-0.220,-0.130
378,-0.220,-0.130
379,-0.220,-0.135
380,-0.220,-0.135
381,-0.220,-0.140
382,-0.220,-0.145
383,-0.220,-0.145
384,-0.225,-0.145
385,-0.225,-0.145
386,-0.220,-0.145
387,-0.225,-0.150
388,-0.225,-0.150
389,-0.230,-0.155
390,-0.225,-0.155
391,-0.230,-0.155
392,-0.225,-0.155
393,-0.230,-0.155
394,-0.230,-0.150
395,-0.225,-0.150
396,-0.230,-0.150
397,-0.225,-0.150
398,-0.225,-0.155
399,-0.225,-0.155
400,-0.225,-0.155
401,-0.225,-0.155
402,-0.220,-0.160
403,-0.225,-0.160
404,-0.220,-0.155
405,-0.220,-0.155
406,-0.215,-0.150
407,-0.220,-0.150
408,-0.215,-0.150
409,-0.215,-0.155
410,-0.210,-0.150
411,-0.200,-0.145
412,-0.190,-0.135
413,-0.185,-0.130
414,-0.180,-0.130
415,-0.175,-0.120
416,-0.165,-0.115
417,-0.155,-0.100
418,-0.150,-0.095
419,-0.140,-0.085
420,-0.130,-0.075
421,-0.125,-0.065
422,-0.115,-0.055
423,-0.110,-0.040
424,-0.095,-0.030
425,-0.090,-0.020
426,-0.080,-0.010
427,-0.070,0.000
428,-0.060,0.010
429,-0.050,0.025
430,-0.045,0.030
431,-0.045,0.035
432,-0.045,0.035
433,-0.045,0.035
434,-0.045,0.030
435,-0.050,0.020
436,-0.060,0.015
437,-0.065,0.010
438,-0.075,0.000
439,-0.095,-0.015
440,-0.105,-0.030
441,-0.115,-0.045
442,-0.120,-0.055
443,-0.135,-0.070
444,-0.140,-0.080
445,-0.150,-0.090
446,-0.160,-0.100
447,-0.165,-0.110
448,-0.175,-0.120
449,-0.180,-0.125
450,-0.180,-0.135
451,-0.180,-0.135
452,-0.190,-0.140
453,-0.200,-0.140
454,-0.200,-0.145
455,-0.205,-0.150
456,-0.210,-0.155
457,-0.215,-0.155
458,-0.210,-0.155
459,-0.220,-0.160
460,-0.220,-0.160
461,-0.220,-0.160
462,-0.225,-0.160
463,-0.225,-0.160
464,-0.230,-0.160
465,-0.225,-0.155
466,-0.230,-0.160
467,-0.230,-0.155
468,-0.225,-0.160
469,-0.225,-0.160
470,-0.220,-0.155
471,-0.220,-0.160
472,-0.220,-0.155
473,-0.220,-0.165
474,-0.215,-0.160
475,-0.215,-0.165
476,-0.215,-0.160
477,-0.210,-0.160
478,-0.210,-0.160
479,-0.215,-0.155
480,-0.215,-0.160
481,-0.215,-0.160
482,-0.215,-0.160
483,-0.215,-0.160
484,-0.215,-0.165
485,-0.215,-0.165
486,-0.210,-0.160
487,-0.210,-0.160
488,-0.210,-0.160
489,-0.210,-0.165
490,-0.205,-0.160
491,-0.205,-0.160
492,-0.205,-0.155
493,-0.200,-0.160
494,-0.195,-0.155
495,-0.195,-0.150
496,-0.195,-0.150
497,-0.195,-0.145
498,-0.195,-0.145
499,-0.190,-0.145
500,-0.190,-0.145
501,-0.185,-0.145
502,-0.185,-0.140
503,-0.185,-0.135
504,-0.185,-0.135
505,-0.185,-0.135
506,-0.185,-0.135
507,-0.185,-0.135
508,-0.190,-0.135
509,-0.190,-0.135
510,-0.190,-0.135
511,-0.190,-0.135
512,-0.190,-0.135
513,-0.185,-0.135
514,-0.185,-0.140
515,-0.180,-0.135
516,-0.175,-0.130
517,-0.165,-0.125
518,-0.160,-0.115
519,-0.155,-0.105
520,-0.145,-0.090
521,-0.140,-0.080
522,-0.135,-0.075
523,-0.135,-0.075
524,-0.130,-0.070
525,-0.125,-0.065
526,-0.120,-0.060
527,-0.115,-0.055
528,-0.120,-0.055
529,-0.130,-0.070
530,-0.145,-0.085
531,-0.150,-0.100
532,-0.160,-0.110
533,-0.165,-0.120
534,-0.170,-0.125
535,-0.180,-0.130
536,-0.185,-0.140
537,-0.195,-0.150
538,-0.200,-0.155
539,-0.210,-0.160
540,-0.210,-0.160
541,-0.215,-0.165
542,-0.215,-0.165
543,-0.220,-0.160
544,-0.220,-0.165
545,-0.220,-0.160
546,-0.220,-0.165
547,-0.215,-0.160
548,-0.220,-0.165
549,-0.215,-0.160
550,-0.220,-0.165
551,-0.215,-0.160
552,-0.215,-0.160
553,-0.220,-0.160
554,-0.220,-0.155
555,-0.225,-0.160
556,-0.220,-0.155
557,-0.220,-0.155
558,-0.210,-0.145
559,-0.195,-0.130
560,-0.180,-0.110
561,-0.155,-0.090
562,-0.125,-0.060
563,-0.075,-0.020
564,0.000,0.050
565,0.110,0.160
566,0.225,0.295
567,0.330,0.430
568,0.395,0.535
569,0.415,0.580
570,0.380,0.570
571,0.310,0.505
572,0.215,0.395
573,0.150,0.305
574,0.095,0.240
575,0.035,0.180
576,-0.030,0.095
577,-0.095,0.015
578,-0.140,-0.045
579,-0.165,-0.090
580,-0.185,-0.115
581,-0.190,-0.130
582,-0.200,-0.140
583,-0.210,-0.145
584,-0.210,-0.155
585,-0.215,-0.165
586,-0.215,-0.170
587,-0.220,-0.170
588,-0.220,-0.175
589,-0.220,-0.180
590,-0.215,-0.175
591,-0.215,-0.180
592,-0.215,-0.175
593,-0.220,-0.175
594,-0.220,-0.175
595,-0.225,-0.180
596,-0.225,-0.185
597,-0.230,-0.180
598,-0.230,-0.180
599,-0.225,-0.180
600,-0.230,-0.180
601,-0.230,-0.180
602,-0.225,-0.175
603,-0.225,-0.180
604,-0.225,-0.180
605,-0.225,-0.180
606,-0.225,-0.180
607,-0.225,-0.180
608,-0.225,-0.175
609,-0.225,-0.175
610,-0.225,-0.170
611,-0.220,-0.175
612,-0.225,-0.175
613,-0.220,-0.170
614,-0.220,-0.170
615,-0.215,-0.160
616,-0.220,-0.160
617,-0.215,-0.150
618,-0.210,-0.150
619,-0.205,-0.150
620,-0.205,-0.155
621,-0.200,-0.150
622,-0.195,-0.145
623,-0.195,-0.140
624,-0.190,-0.135
625,-0.185,-0.130
626,-0.175,-0.120
627,-0.165,-0.115
628,-0.160,-0.105
629,-0.155,-0.095
630,-0.150,-0.090
631,-0.135,-0.080
632,-0.125,-0.065
633,-0.110,-0.055
634,-0.100,-0.045
635,-0.090,-0.030
636,-0.080,-0.015
637,-0.070,0.000
638,-0.060,0.005
639,-0.050,0.020
640,-0.040,0.030
641,-0.030,0.040
642,-0.025,0.045
643,-0.020,0.050
644,-0.020,0.055
645,-0.020,0.055
646,-0.025,0.050
647,-0.030,0.045
648,-0.040,0.035
649,-0.050,0.025
650,-0.060,0.015
651,-0.070,0.000
652,-0.085,-0.010
653,-0.095,-0.020
654,-0.110,-0.040
655,-0.120,-0.055
656,-0.130,-0.065
657,-0.135,-0.080
658,-0.140,-0.085
659,-0.145,-0.095
660,-0.155,-0.105
661,-0.160,-0.110
662,-0.165,-0.115
663,-0.165,-0.120
664,-0.170,-0.125
665,-0.170,-0.125
666,-0.175,-0.130
667,-0.175,-0.130
668,-0.175,-0.130
669,-0.180,-0.130
670,-0.180,-0.130
671,-0.185,-0.135
672,-0.185,-0.135
673,-0.185,-0.135
674,-0.185,-0.140
675,-0.190,-0.145
676,-0.185,-0.140
677,-0.185,-0.135
678,-0.185,-0.135
679,-0.185,-0.135
680,-0.190,-0.140
681,-0.190,-0.135
682,-0.195,-0.140
683,-0.195,-0.140
684,-0.195,-0.140
685,-0.190,-0.135
686,-0.190,-0.135
687,-0.190,-0.135
688,-0.190,-0.130
689,-0.190,-0.135
690,-0.185,-0.135
691,-0.185,-0.145
692,-0.185,-0.140
693,-0.185,-0.145
694,-0.185,-0.145
695,-0.185,-0.140
696,-0.185,-0.145
697,-0.185,-0.145
698,-0.180,-0.145
699,-0.180,-0.145
700,-0.180,-0.145
701,-0.180,-0.145
702,-0.175,-0.145
703,-0.175,-0.145
704,-0.175,-0.145
705,-0.180,-0.145
706,-0.175,-0.145
707,-0.180,-0.145
708,-0.175,-0.140
709,-0.180,-0.140
710,-0.180,-0.145
711,-0.180,-0.145
712,-0.185,-0.145
713,-0.185,-0.145
714,-0.190,-0.150
715,-0.190,-0.150
716,-0.190,-0.150
717,-0.190,-0.145
718,-0.185,-0.145
719,-0.185,-0.140
720,-0.185,-0.140
721,-0.185,-0.140
722,-0.185,-0.140
723,-0.180,-0.140
724,-0.180,-0.140
725,-0.175,-0.140
726,-0.170,-0.140
727,-0.170,-0.140
728,-0.170,-0.140
729,-0.170,-0.135
730,-0.165,-0.140
731,-0.165,-0.140
732,-0.160,-0.140
733,-0.155,-0.135
734,-0.155,-0.130
735,-0.150,-0.120
736,-0.145,-0.110
737,-0.135,-0.105
738,-0.130,-0.100
739,-0.125,-0.090
740,-0.115,-0.075
741,-0.110,-0.070
742,-0.105,-0.065
743,-0.105,-0.055
744,-0.105,-0.050
745,-0.100,-0.050
746,-0.095,-0.040
747,-0.100,-0.045
748,-0.110,-0.050
749,-0.110,-0.060
750,-0.125,-0.075
751,-0.130,-0.080
752,-0.135,-0.085
753,-0.145,-0.095
754,-0.150,-0.100
755,-0.160,-0.110
756,-0.165,-0.115
757,-0.180,-0.130
758,-0.180,-0.135
759,-0.180,-0.135
760,-0.185,-0.135
761,-0.180,-0.140
762,-0.185,-0.140
763,-0.185,-0.140
764,-0.185,-0.145
765,-0.180,-0.145
766,-0.180,-0.140
767,-0.175,-0.135
768,-0.175,-0.140
769,-0.175,-0.140
770,-0.175,-0.140
771,-0.180,-0.140
772,-0.175,-0.135
773,-0.175,-0.135
774,-0.170,-0.135
775,-0.170,-0.130
776,-0.165,-0.125
777,-0.155,-0.120
778,-0.140,-0.105
779,-0.130,-0.090
780,-0.115,-0.075
781,-0.090,-0.055
782,-0.055,-0.030
783,-0.005,0.015
784,0.070,0.095
785,0.180,0.215
786,0.290,0.350
787,0.375,0.475
788,0.410,0.555
789,0.410,0.585
790,0.360,0.555
791,0.285,0.485
792,0.205,0.380
793,0.155,0.295
794,0.110,0.230
795,0.050,0.165
796,-0.010,0.085
797,-0.070,0.005
798,-0.110,-0.055
799,-0.130,-0.090
800,-0.140,-0.110
801,-0.145,-0.120
802,-0.155,-0.125
803,-0.165,-0.135
804,-0.175,-0.145
805,-0.180,-0.155
806,-0.185,-0.160
807,-0.185,-0.170
808,-0.180,-0.170
809,-0.180,-0.165
810,-0.185,-0.165
811,-0.190,-0.165
812,-0.190,-0.165
813,-0.190,-0.160
814,-0.190,-0.160
815,-0.190,-0.155
816,-0.185,-0.155
817,-0.185,-0.155
818,-0.185,-0.155
819,-0.185,-0.160
820,-0.185,-0.165
821,-0.185,-0.165
822,-0.185,-0.160
823,-0.185,-0.160
824,-0.180,-0.160
825,-0.185,-0.160
826,-0.185,-0.155
827,-0.185,-0.155
828,-0.190,-0.160
829,-0.190,-0.160
830,-0.190,-0.160
831,-0.185,-0.155
832,-0.190,-0.155
833,-0.185,-0.155
834,-0.180,-0.155
835,-0.180,-0.150
836,-0.175,-0.150
837,-0.175,-0.150
838,-0.170,-0.145
839,-0.165,-0.140
840,-0.155,-0.140
841,-0.155,-0.135
842,-0.145,-0.130
843,-0.140,-0.130
844,-0.135,-0.125
845,-0.130,-0.115
846,-0.125,-0.110
847,-0.115,-0.105
848,-0.105,-0.095
849,-0.095,-0.085
850,-0.085,-0.075
851,-0.080,-0.060
852,-0.070,-0.050
853,-0.060,-0.040
854,-0.050,-0.030
855,-0.040,-0.015
856,-0.030,-0.005
857,-0.015,0.005
858,-0.010,0.020
859,0.000,0.030
860,0.005,0.040
861,0.010,0.050
862,0.015,0.055
863,0.015,0.055
864,0.015,0.055
865,0.010,0.050
866,0.005,0.045
867,0.000,0.035
868,0.000,0.025
869,-0.005,0.015
870,-0.015,0.000
871,-0.030,-0.015
872,-0.040,-0.020
873,-0.050,-0.030
874,-0.060,-0.045
875,-0.070,-0.055
876,-0.075,-0.060
877,-0.085,-0.065
878,-0.095,-0.075
879,-0.100,-0.085
880,-0.100,-0.090
881,-0.105,-0.090
882,-0.110,-0.100
883,-0.110,-0.100
884,-0.115,-0.100
885,-0.120,-0.105
886,-0.120,-0.110
887,-0.120,-0.115
888,-0.120,-0.115
889,-0.125,-0.115
890,-0.125,-0.115
891,-0.130,-0.115
892,-0.125,-0.120
893,-0.125,-0.120
894,-0.125,-0.125
895,-0.125,-0.125
896,-0.125,-0.125
897,-0.130,-0.125
898,-0.130,-0.130
899,-0.130,-0.130
900,-0.130,-0.130
901,-0.125,-0.125
902,-0.125,-0.125
903,-0.130,-0.125
904,-0.125,-0.125
905,-0.125,-0.125
906,-0.125,-0.120
907,-0.125,-0.120
908,-0.125,-0.115
909,-0.125,-0.115
910,-0.130,-0.115
911,-0.130,-0.115
912,-0.130,-0.120
913,-0.130,-0.115
914,-0.130,-0.120
915,-0.125,-0.120
916,-0.125,-0.120
917,-0.125,-0.120
918,-0.125,-0.120
919,-0.125,-0.125
920,-0.125,-0.130
921,-0.125,-0.135
922,-0.125,-0.135
923,-0.125,-0.135
924,-0.120,-0.135
925,-0.115,-0.140
926,-0.120,-0.140
927,-0.115,-0.145
928,-0.115,-0.145
929,-0.115,-0.145
930,-0.120,-0.145
931,-0.120,-0.145
932,-0.120,-0.150
933,-0.120,-0.150
934,-0.120,-0.150
935,-0.120,-0.150
936,-0.120,-0.150
937,-0.125,-0.155
938,-0.125,-0.155
939,-0.125,-0.160
940,-0.120,-0.160
941,-0.120,-0.160
942,-0.115,-0.155
943,-0.115,-0.150
944,-0.115,-0.155
945,-0.115,-0.155
946,-0.115,-0.160
947,-0.110,-0.160
948,-0.110,-0.155
949,-0.105,-0.150
950,-0.105,-0.145
951,-0.100,-0.140
952,-0.105,-0.135
953,-0.105,-0.135
954,-0.105,-0.135
955,-0.105,-0.130
956,-0.105,-0.130
957,-0.110,-0.130
958,-0.100,-0.125
959,-0.105,-0.120
960,-0.105,-0.125
961,-0.105,-0.120
962,-0.100,-0.115
963,-0.090,-0.105
964,-0.080,-0.090
965,-0.070,-0.080
966,-0.070,-0.065
967,-0.060,-0.060
968,-0.060,-0.050
969,-0.055,-0.045
970,-0.055,-0.045
971,-0.050,-0.040
972,-0.045,-0.030
973,-0.045,-0.030
974,-0.050,-0.030
975,-0.055,-0.035
976,-0.060,-0.040
977,-0.070,-0.055
978,-0.080,-0.065
979,-0.090,-0.070
980,-0.095,-0.080
981,-0.095,-0.090
982,-0.100,-0.100
983,-0.105,-0.100
984,-0.110,-0.105
985,-0.110,-0.105
986,-0.110,-0.110
987,-0.110,-0.115
988,-0.110,-0.115
989,-0.110,-0.115
990,-0.110,-0.115
991,-0.110,-0.115
992,-0.110,-0.115
993,-0.110,-0.115
994,-0.110,-0.115
995,-0.115,-0.115
996,-0.115,-0.115
997,-0.110,-0.115
998,-0.115,-0.115
999,-0.115,-0.110
1000,-0.115,-0.110
1001,-0.110,-0.105
1002,-0.100,-0.100
1003,-0.090,-0.090
1004,-0.075,-0.075
1005,-0.055,-0.060
1006,-0.030,-0.040
1007,0.000,-0.015
1008,0.035,0.020
1009,0.095,0.080
1010,0.195,0.170
1011,0.295,0.295
1012,0.395,0.420
1013,0.445,0.520
1014,0.465,0.575
1015,0.440,0.570
1016,0.380,0.525
1017,0.305,0.425
1018,0.250,0.340
1019,0.210,0.285
1020,0.160,0.235
1021,0.090,0.165
1022,0.025,0.085
1023,-0.015,0.015
1024,-0.040,-0.025
1025,-0.055,-0.050
1026,-0.065,-0.065
1027,-0.075,-0.075
1028,-0.085,-0.085
1029,-0.085,-0.095
1030,-0.090,-0.105
1031,-0.095,-0.105
1032,-0.095,-0.115
1033,-0.090,-0.115
1034,-0.095,-0.115
1035,-0.095,-0.110
1036,-0.095,-0.115
1037,-0.095,-0.115
1038,-0.095,-0.115
1039,-0.095,-0.120
1040,-0.090,-0.115
1041,-0.095,-0.110
1042,-0.095,-0.110
1043,-0.100,-0.105
1044,-0.100,-0.105
1045,-0.105,-0.110
1046,-0.105,-0.110
1047,-0.105,-0.105
1048,-0.100,-0.105
1049,-0.100,-0.100
1050,-0.100,-0.095
1051,-0.100,-0.090
1052,-0.100,-0.095
1053,-0.095,-0.100
1054,-0.095,-0.095
1055,-0.090,-0.095
1056,-0.085,-0.090
1057,-0.085,-0.090
1058,-0.085,-0.085
1059,-0.085,-0.085
1060,-0.085,-0.085
1061,-0.080,-0.090
1062,-0.080,-0.085
1063,-0.075,-0.075
1064,-0.070,-0.070
1065,-0.065,-0.065
1066,-0.060,-0.060
1067,-0.055,-0.055
1068,-0.050,-0.050
1069,-0.050,-0.045
1070,-0.045,-0.040
1071,-0.035,-0.035
1072,-0.030,-0.025
1073,-0.020,-0.015
1074,-0.010,-0.005
1075,-0.005,0.000
1076,0.000,0.005
1077,0.005,0.015
1078,0.015,0.020
1079,0.025,0.030
1080,0.035,0.045
1081,0.040,0.050
1082,0.050,0.065
1083,0.060,0.075
1084,0.065,0.085
1085,0.080,0.095
1086,0.080,0.100
1087,0.085,0.110
1088,0.085,0.110
1089,0.090,0.115
1090,0.085,0.115
1091,0.085,0.115
1092,0.090,0.115
1093,0.080,0.105
1094,0.070,0.100
1095,0.065,0.085
1096,0.055,0.080
1097,0.045,0.065
1098,0.035,0.060
1099,0.025,0.045
1100,0.020,0.035
1101,0.010,0.025
1102,0.000,0.015
1103,-0.010,0.005
1104,-0.015,0.000
1105,-0.020,-0.005
1106,-0.025,-0.010
1107,-0.025,-0.015
1108,-0.025,-0.020
1109,-0.030,-0.020
1110,-0.035,-0.020
1111,-0.035,-0.030
1112,-0.040,-0.035
1113,-0.045,-0.040
1114,-0.045,-0.040
1115,-0.045,-0.040
1116,-0.045,-0.040
1117,-0.045,-0.045
1118,-0.050,-0.045
1119,-0.050,-0.045
1120,-0.055,-0.050
1121,-0.055,-0.050
1122,-0.050,-0.045
1123,-0.050,-0.040
1124,-0.050,-0.040
1125,-0.055,-0.045
1126,-0.055,-0.035
1127,-0.055,-0.035
1128,-0.055,-0.040
1129,-0.055,-0.040
1130,-0.055,-0.040
1131,-0.055,-0.035
1132,-0.050,-0.040
1133,-0.050,-0.040
1134,-0.050,-0.035
1135,-0.050,-0.035
1136,-0.050,-0.035
1137,-0.050,-0.035
1138,-0.050,-0.035
1139,-0.050,-0.035
1140,-0.050,-0.035
1141,-0.050,-0.035
1142,-0.050,-0.030
1143,-0.050,-0.030
1144,-0.045,-0.030
1145,-0.050,-0.030
1146,-0.050,-0.030
1147,-0.050,-0.030
1148,-0.050,-0.035
1149,-0.050,-0.035
1150,-0.045,-0.035
1151,-0.045,-0.035
1152,-0.045,-0.030
1153,-0.045,-0.035
1154,-0.045,-0.035
1155,-0.040,-0.035
1156,-0.040,-0.030
1157,-0.040,-0.035
1158,-0.040,-0.035
1159,-0.040,-0.035
1160,-0.040,-0.035
1161,-0.045,-0.035
1162,-0.050,-0.035
1163,-0.045,-0.040
1164,-0.045,-0.040
1165,-0.045,-0.040
1166,-0.050,-0.045
1167,-0.045,-0.040
1168,-0.050,-0.040
1169,-0.055,-0.040
1170,-0.055,-0.040
1171,-0.055,-0.040
1172,-0.050,-0.035
1173,-0.050,-0.035
1174,-0.050,-0.035
1175,-0.050,-0.035
1176,-0.050,-0.035
1177,-0.055,-0.030
1178,-0.055,-0.025
1179,-0.055,-0.030
1180,-0.050,-0.030
1181,-0.045,-0.020
1182,-0.035,-0.010
1183,-0.025,0.000
1184,-0.015,0.010
1185,0.000,0.025
1186,0.005,0.035
1187,0.015,0.045
1188,0.020,0.055
1189,0.025,0.060
1190,0.030,0.065
1191,0.035,0.070
1192,0.045,0.075
1193,0.045,0.085
1194,0.045,0.090
1195,0.035,0.085
1196,0.030,0.075
1197,0.025,0.065
1198,0.015,0.055
1199,0.010,0.050
1200,0.005,0.045
1201,0.000,0.035
1202,-0.010,0.030
1203,-0.015,0.020
1204,-0.020,0.015
1205,-0.025,0.010
1206,-0.030,0.010
1207,-0.030,0.005
1208,-0.030,0.000
1209,-0.030,0.000
1210,-0.030,0.000
1211,-0.035,-0.005
1212,-0.035,-0.010
1213,-0.035,-0.015
1214,-0.035,-0.015
1215,-0.030,-0.015
1216,-0.030,-0.015
1217,-0.025,-0.010
1218,-0.025,-0.010
1219,-0.020,-0.010
1220,-0.020,-0.005
1221,-0.020,-0.005
1222,-0.020,-0.005
1223,-0.015,0.000
1224,-0.010,0.010
1225,0.000,0.015
1226,0.015,0.030
1227,0.025,0.050
1228,0.045,0.065
1229,0.070,0.090
1230,0.110,0.125
1231,0.180,0.185
1232,0.270,0.285
1233,0.385,0.410
1234,0.480,0.540
1235,0.545,0.645
1236,0.555,0.695
1237,0.535,0.695
1238,0.465,0.635
1239,0.385,0.545
1240,0.320,0.445
1241,0.275,0.380
1242,0.220,0.320
1243,0.150,0.250
1244,0.085,0.170
1245,0.035,0.100
1246,0.010,0.050
1247,0.000,0.020
1248,-0.010,0.005
1249,-0.015,0.000
1250,-0.025,-0.010
1251,-0.030,-0.020
1252,-0.035,-0.020
1253,-0.040,-0.025
1254,-0.045,-0.030
1255,-0.045,-0.035
1256,-0.050,-0.035
1257,-0.050,-0.035
1258,-0.050,-0.035
1259,-0.050,-0.035
1260,-0.045,-0.035
1261,-0.050,-0.040
1262,-0.050,-0.045
1263,-0.055,-0.050
1264,-0.050,-0.050
1265,-0.045,-0.045
1266,-0.045,-0.040
1267,-0.045,-0.035
1268,-0.045,-0.035
1269,-0.045,-0.035
1270,-0.045,-0.035
1271,-0.045,-0.030
1272,-0.040,-0.030
1273,-0.035,-0.030
1274,-0.035,-0.025
1275,-0.035,-0.025
1276,-0.030,-0.020
1277,-0.030,-0.020
1278,-0.030,-0.020
1279,-0.025,-0.020
1280,-0.030,-0.020
1281,-0.030,-0.015
1282,-0.030,-0.010
1283,-0.025,-0.010
1284,-0.025,-0.005
1285,-0.025,-0.005
1286,-0.020,-0.010
1287,-0.015,-0.010
1288,-0.015,-0.010
1289,-0.010,-0.010
1290,-0.005,-0.010
1291,0.000,0.000
1292,0.005,0.000
1293,0.010,0.010
1294,0.020,0.015
1295,0.025,0.020
1296,0.040,0.030
1297,0.045,0.035
1298,0.060,0.045
1299,0.065,0.055
1300,0.075,0.070
1301,0.090,0.080
1302,0.100,0.090
1303,0.110,0.100
1304,0.120,0.115
1305,0.130,0.125
1306,0.140,0.135
1307,0.145,0.150
1308,0.155,0.160
1309,0.165,0.165
1310,0.170,0.170
1311,0.165,0.170
1312,0.165,0.170
1313,0.160,0.165
1314,0.155,0.160
1315,0.150,0.150
1316,0.140,0.140
1317,0.135,0.130
1318,0.120,0.120
1319,0.110,0.110
1320,0.095,0.095
1321,0.085,0.080
1322,0.075,0.070
1323,0.065,0.060
1324,0.065,0.050
1325,0.050,0.045
1326,0.045,0.035
1327,0.040,0.030
1328,0.030,0.025
1329,0.025,0.020
1330,0.020,0.010
1331,0.015,0.005
1332,0.010,0.005
1333,0.005,0.005
1334,0.000,0.005
1335,-0.005,0.000
1336,-0.005,0.000
1337,-0.010,-0.005
1338,-0.010,-0.005
1339,-0.015,-0.005
1340,-0.010,-0.005
1341,-0.015,-0.005
1342,-0.015,0.000
1343,-0.015,0.000
1344,-0.015,0.000
1345,-0.010,-0.005
1346,-0.005,0.000
1347,-0.005,-0.005
1348,0.000,-0.005
1349,0.000,0.000
1350,0.000,0.000
1351,0.000,0.000
1352,0.000,0.000
1353,0.000,-0.005
1354,0.000,-0.005
1355,0.000,-0.010
1356,0.000,-0.010
1357,0.005,-0.010
1358,0.005,-0.005
1359,0.005,-0.005
1360,0.005,-0.005
1361,0.010,-0.005
1362,0.010,-0.005
1363,0.010,-0.005
1364,0.005,-0.010
1365,0.005,-0.010
1366,0.010,-0.005
1367,0.010,-0.005
1368,0.010,-0.010
1369,0.010,-0.010
1370,0.010,-0.015
1371,0.010,-0.015
1372,0.010,-0.020
1373,0.015,-0.020
1374,0.015,-0.025
1375,0.015,-0.030
1376,0.015,-0.030
1377,0.010,-0.030
1378,0.010,-0.030
1379,0.010,-0.030
1380,0.010,-0.035
1381,0.010,-0.035
1382,0.005,-0.035
1383,0.010,-0.035
1384,0.010,-0.035
1385,0.010,-0.040
1386,0.010,-0.040
1387,0.005,-0.040
1388,0.005,-0.040
1389,0.005,-0.040
1390,0.005,-0.040
1391,0.005,-0.040
1392,0.005,-0.040
1393,0.005,-0.040
1394,0.005,-0.040
1395,0.005,-0.045
1396,0.005,-0.050
1397,0.005,-0.050
1398,0.005,-0.050
1399,0.010,-0.050
1400,0.010,-0.050
1401,0.010,-0.045
1402,0.010,-0.050
1403,0.010,-0.045
1404,0.010,-0.050
1405,0.010,-0.045
1406,0.020,-0.040
1407,0.015,-0.035
1408,0.020,-0.040
1409,0.020,-0.035
1410,0.025,-0.035
1411,0.025,-0.035
1412,0.025,-0.035
1413,0.025,-0.030
1414,0.030,-0.030
1415,0.030,-0.025
1416,0.030,-0.020
1417,0.035,-0.015
1418,0.035,-0.020
1419,0.035,-0.020
1420,0.035,-0.015
1421,0.045,-0.010
1422,0.050,0.000
1423,0.060,0.005
1424,0.070,0.015
1425,0.075,0.025
1426,0.080,0.030
1427,0.085,0.035
1428,0.090,0.035
1429,0.095,0.040
1430,0.100,0.045
1431,0.105,0.050
1432,0.115,0.060
1433,0.110,0.060
1434,0.105,0.060
1435,0.100,0.050
1436,0.090,0.035
1437,0.080,0.025
1438,0.070,0.015
1439,0.065,0.010
1440,0.060,0.005
1441,0.055,0.000
1442,0.050,-0.005
1443,0.045,-0.015
1444,0.040,-0.025
1445,0.035,-0.030
1446,0.035,-0.035
1447,0.030,-0.035
1448,0.025,-0.035
1449,0.020,-0.040
1450,0.020,-0.040
1451,0.025,-0.040
1452,0.020,-0.045
1453,0.020,-0.045
1454,0.025,-0.045
1455,0.020,-0.040
1456,0.020,-0.040
1457,0.025,-0.040
1458,0.030,-0.035
1459,0.020,-0.035
1460,0.025,-0.035
1461,0.025,-0.030
1462,0.030,-0.030
1463,0.035,-0.020
1464,0.050,-0.005
1465,0.060,0.005
1466,0.085,0.020
1467,0.105,0.040
1468,0.130,0.065
1469,0.180,0.115
1470,0.255,0.180
1471,0.365,0.290
1472,0.465,0.420
1473,0.555,0.545
1474,0.610,0.630
1475,0.605,0.660
1476,0.565,0.640
1477,0.480,0.560
1478,0.405,0.465
1479,0.350,0.380
1480,0.305,0.330
1481,0.245,0.265
1482,0.175,0.190
1483,0.120,0.115
1484,0.080,0.055
1485,0.055,0.020
1486,0.045,0.000
1487,0.035,-0.015
1488,0.030,-0.025
1489,0.020,-0.035
1490,0.015,-0.035
1491,0.010,-0.040
1492,0.005,-0.040
1493,0.000,-0.045
1494,0.000,-0.050
1495,-0.005,-0.050
1496,-0.005,-0.045
1497,-0.005,-0.045
1498,-0.005,-0.045
1499,-0.005,-0.040
1500,-0.010,-0.040
1501,-0.010,-0.045
1502,-0.010,-0.045
1503,-0.010,-0.045
1504,-0.010,-0.040
1505,-0.010,-0.045
1506,-0.005,-0.045
1507,-0.005,-0.045
1508,-0.005,-0.040
1509,-0.005,-0.045
1510,0.000,-0.045
1511,-0.005,-0.045
1512,-0.005,-0.045
1513,-0.010,-0.040
1514,-0.010,-0.040
1515,-0.010,-0.040
1516,-0.015,-0.035
1517,-0.010,-0.030
1518,-0.010,-0.030
1519,-0.005,-0.030
1520,-0.005,-0.025
1521,-0.005,-0.020
1522,0.000,-0.020
1523,0.000,-0.020
1524,0.000,-0.020
1525,0.000,-0.020
1526,0.005,-0.020
1527,0.005,-0.020
1528,0.010,-0.020
1529,0.010,-0.015
1530,0.015,-0.010
1531,0.020,-0.005
1532,0.025,0.000
1533,0.035,0.005
1534,0.040,0.015
1535,0.045,0.020
1536,0.050,0.025
1537,0.060,0.035
1538,0.065,0.045
1539,0.080,0.060
1540,0.095,0.075
1541,0.100,0.085
1542,0.115,0.095
1543,0.120,0.110
1544,0.135,0.130
1545,0.140,0.140
1546,0.155,0.150
1547,0.155,0.160
1548,0.165,0.170
1549,0.175,0.180
1550,0.170,0.185
1551,0.175,0.190
1552,0.165,0.180
1553,0.160,0.180
1554,0.150,0.170
1555,0.150,0.165
1556,0.145,0.155
1557,0.130,0.150
1558,0.120,0.140
1559,0.110,0.125
1560,0.100,0.120
1561,0.090,0.105
1562,0.085,0.095
1563,0.080,0.085
1564,0.075,0.080
1565,0.070,0.075
1566,0.060,0.070
1567,0.055,0.060
1568,0.045,0.055
1569,0.045,0.055
1570,0.040,0.050
1571,0.035,0.045
1572,0.030,0.040
1573,0.025,0.040
1574,0.025,0.040
1575,0.020,0.035
1576,0.015,0.035
1577,0.015,0.030
1578,0.020,0.030
1579,0.015,0.025
1580,0.010,0.025
1581,0.010,0.025
1582,0.005,0.020
1583,0.000,0.020
1584,0.000,0.020
1585,0.005,0.020
1586,0.005,0.020
1587,0.005,0.025
1588,0.000,0.025
1589,0.005,0.025
1590,0.005,0.020
1591,0.005,0.025
1592,0.005,0.025
1593,0.005,0.025
1594,0.010,0.025
1595,0.010,0.025
1596,0.010,0.030
1597,0.010,0.025
1598,0.005,0.025
1599,0.000,0.025
1600,0.005,0.020
1601,0.005,0.020
1602,0.005,0.020
1603,0.005,0.020
1604,0.000,0.020
1605,0.000,0.025
1606,0.000,0.025
1607,0.000,0.025
1608,0.000,0.020
1609,0.000,0.025
1610,0.000,0.025
1611,-0.005,0.020
1612,-0.005,0.020
1613,-0.005,0.020
1614,-0.005,0.020
1615,-0.005,0.020
1616,-0.010,0.015
1617,-0.015,0.015
1618,-0.015,0.015
1619,-0.015,0.015
1620,-0.015,0.010
1621,-0.020,0.010
1622,-0.015,0.010
1623,-0.020,0.010
1624,-0.020,0.010
1625,-0.025,0.010
1626,-0.025,0.015
1627,-0.030,0.015
1628,-0.030,0.015
1629,-0.025,0.020
1630,-0.015,0.020
1631,-0.015,0.025
1632,-0.010,0.025
1633,-0.010,0.020
1634,-0.005,0.020
1635,-0.005,0.025
1636,-0.005,0.030
1637,0.000,0.035
1638,0.000,0.035
1639,0.000,0.040
1640,0.000,0.040
1641,0.000,0.045
1642,0.000,0.045
1643,0.000,0.050
1644,0.010,0.060
1645,0.015,0.065
1646,0.025,0.080
1647,0.035,0.095
1648,0.045,0.110
1649,0.055,0.120
1650,0.055,0.125
1651,0.060,0.130
1652,0.060,0.135
1653,0.070,0.135
1654,0.075,0.140
1655,0.075,0.150
1656,0.075,0.150
1657,0.070,0.150
1658,0.055,0.140
1659,0.045,0.125
1660,0.040,0.115
1661,0.030,0.105
1662,0.025,0.100
1663,0.020,0.100
1664,0.015,0.095
1665,0.010,0.085
1666,0.000,0.075
1667,0.000,0.070
1668,0.000,0.070
1669,0.000,0.070
1670,-0.005,0.070
1671,0.000,0.075
1672,0.000,0.075
1673,0.000,0.075
1674,-0.005,0.070
1675,-0.005,0.070
1676,-0.005,0.070
1677,-0.005,0.065
1678,-0.005,0.070
1679,0.000,0.070
1680,0.000,0.075
1681,0.000,0.075
1682,0.000,0.075
1683,0.005,0.075
1684,0.000,0.075
1685,0.005,0.080
1686,0.010,0.080
1687,0.020,0.090
1688,0.035,0.105
1689,0.055,0.120
1690,0.080,0.140
1691,0.105,0.165
1692,0.155,0.205
1693,0.230,0.270
1694,0.335,0.375
1695,0.440,0.495
1696,0.545,0.625
1697,0.595,0.710
1698,0.605,0.750
1699,0.565,0.725
1700,0.475,0.650
1701,0.400,0.560
1702,0.345,0.475
1703,0.305,0.430
1704,0.240,0.370
1705,0.175,0.300
1706,0.115,0.220
1707,0.065,0.160
1708,0.040,0.120
1709,0.025,0.100
1710,0.020,0.090
1711,0.010,0.080
1712,0.005,0.070
1713,0.000,0.060
1714,-0.005,0.055
1715,-0.010,0.050
1716,-0.015,0.045
1717,-0.015,0.040
1718,-0.015,0.040
1719,-0.015,0.040
1720,-0.015,0.035
1721,-0.015,0.035
1722,-0.020,0.035
1723,-0.020,0.040
1724,-0.020,0.040
1725,-0.020,0.045
1726,-0.025,0.045
1727,-0.025,0.045
1728,-0.020,0.045
1729,-0.020,0.045
1730,-0.020,0.050
1731,-0.020,0.055
1732,-0.020,0.050
1733,-0.025,0.050
1734,-0.025,0.050
1735,-0.020,0.050
1736,-0.020,0.050
1737,-0.020,0.050
1738,-0.020,0.050
1739,-0.015,0.055
1740,-0.015,0.055
1741,-0.015,0.055
1742,-0.010,0.055
1743,-0.010,0.055
1744,-0.005,0.055
1745,-0.005,0.055
1746,-0.005,0.065
1747,-0.005,0.065
1748,0.000,0.070
1749,0.000,0.075
1750,0.000,0.075
1751,0.005,0.085
1752,0.010,0.090
1753,0.015,0.095
1754,0.025,0.105
1755,0.030,0.110
1756,0.040,0.115
1757,0.045,0.125
1758,0.060,0.130
1759,0.065,0.135
1760,0.075,0.150
1761,0.085,0.155
1762,0.095,0.170
1763,0.105,0.180
1764,0.115,0.185
1765,0.130,0.195
1766,0.130,0.200
1767,0.145,0.210
1768,0.150,0.215
1769,0.160,0.225
1770,0.165,0.230
1771,0.175,0.245
1772,0.180,0.245
1773,0.175,0.245
1774,0.170,0.240
1775,0.165,0.235
1776,0.160,0.235
1777,0.150,0.225
1778,0.145,0.220
1779,0.135,0.205
1780,0.125,0.195
1781,0.110,0.185
1782,0.095,0.175
1783,0.085,0.165
1784,0.070,0.150
1785,0.060,0.140
1786,0.055,0.130
1787,0.050,0.125
1788,0.045,0.115
1789,0.040,0.115
1790,0.035,0.105
1791,0.030,0.100
1792,0.025,0.095
1793,0.020,0.095
1794,0.020,0.090
1795,0.015,0.090
1796,0.015,0.085
1797,0.015,0.085
1798,0.010,0.085
1799,0.010,0.080
1800,0.010,0.075
1801,0.010,0.075
1802,0.010,0.075
1803,0.010,0.075
1804,0.015,0.080
1805,0.015,0.080
1806,0.010,0.080
1807,0.010,0.080
1808,0.005,0.080
1809,0.005,0.075
1810,0.010,0.075
1811,0.010,0.075
1812,0.005,0.080
1813,0.005,0.085
1814,0.005,0.085
1815,0.000,0.085
1816,0.000,0.085
1817,0.005,0.080
1818,0.000,0.080
1819,0.005,0.080
1820,0.005,0.075
1821,0.005,0.080
1822,0.005,0.075
1823,0.000,0.075
1824,0.005,0.075
1825,0.000,0.075
1826,0.005,0.070
1827,0.000,0.070
1828,0.000,0.070
1829,0.000,0.070
1830,0.000,0.075
1831,0.000,0.075
1832,-0.005,0.070
1833,-0.005,0.070
1834,-0.010,0.065
1835,-0.010,0.070
1836,-0.015,0.065
1837,-0.015,0.065
1838,-0.015,0.065
1839,-0.015,0.060
1840,-0.010,0.055
1841,-0.010,0.055
1842,-0.010,0.055
1843,-0.010,0.050
1844,-0.010,0.050
1845,-0.005,0.050
1846,-0.005,0.050
1847,0.000,0.050
1848,-0.005,0.050
1849,-0.005,0.045
1850,-0.005,0.045
1851,-0.005,0.050
1852,-0.010,0.050
1853,-0.010,0.055
1854,-0.010,0.050
1855,-0.010,0.050
1856,-0.015,0.050
1857,-0.015,0.050
1858,-0.015,0.050
1859,-0.015,0.045
1860,-0.015,0.050
1861,-0.010,0.045
1862,-0.010,0.050
1863,-0.005,0.050
1864,-0.005,0.050
1865,-0.005,0.055
1866,-0.005,0.050
1867,0.000,0.055
1868,0.000,0.050
1869,0.000,0.055
1870,0.000,0.055
1871,0.005,0.060
1872,0.015,0.070
1873,0.020,0.075
1874,0.025,0.085
1875,0.030,0.090
1876,0.035,0.100
1877,0.040,0.105
1878,0.045,0.110
1879,0.050,0.110
1880,0.055,0.115
1881,0.060,0.115
1882,0.065,0.120
1883,0.070,0.125
1884,0.060,0.125
1885,0.055,0.115
1886,0.045,0.105
1887,0.040,0.095
1888,0.035,0.090
1889,0.030,0.090
1890,0.025,0.080
1891,0.020,0.080
1892,0.020,0.075
1893,0.015,0.070
1894,0.010,0.065
1895,0.005,0.065
1896,0.005,0.065
1897,0.000,0.060
1898,0.000,0.055
1899,0.005,0.055
1900,0.000,0.050
1901,0.005,0.055
1902,0.005,0.050
1903,0.005,0.055
1904,0.005,0.050
1905,0.005,0.055
1906,0.005,0.055
1907,0.005,0.055
1908,0.005,0.055
1909,0.005,0.055
1910,0.005,0.060
1911,0.005,0.060
1912,0.010,0.065
1913,0.010,0.070
1914,0.015,0.075
1915,0.025,0.080
1916,0.035,0.090
1917,0.055,0.110
1918,0.080,0.130
1919,0.105,0.155
1920,0.140,0.185
1921,0.210,0.245
1922,0.305,0.330
1923,0.420,0.450
1924,0.525,0.575
1925,0.590,0.675
1926,0.625,0.740
1927,0.595,0.735
1928,0.550,0.705
1929,0.460,0.610
1930,0.385,0.525
1931,0.330,0.445
1932,0.270,0.385
1933,0.210,0.315
1934,0.140,0.235
1935,0.090,0.170
1936,0.050,0.120
1937,0.030,0.090
1938,0.015,0.070
1939,0.005,0.060
1940,0.000,0.050
1941,-0.005,0.040
1942,-0.015,0.035
1943,-0.020,0.025
1944,-0.025,0.020
1945,-0.025,0.015
1946,-0.030,0.015
1947,-0.035,0.015
1948,-0.040,0.010
1949,-0.045,0.010
1950,-0.045,0.005
1951,-0.040,0.005
1952,-0.045,0.010
1953,-0.045,0.010
1954,-0.040,0.010
1955,-0.040,0.015
1956,-0.040,0.015
1957,-0.040,0.005
1958,-0.035,0.005
1959,-0.035,0.005
1960,-0.035,0.005
1961,-0.035,0.005
1962,-0.030,0.010
1963,-0.025,0.010
1964,-0.030,0.010
1965,-0.030,0.010
1966,-0.030,0.010
1967,-0.025,0.010
1968,-0.025,0.015
1969,-0.025,0.015
1970,-0.025,0.015
1971,-0.020,0.020
1972,-0.015,0.025
1973,-0.015,0.025
1974,-0.015,0.025
1975,-0.015,0.025
1976,-0.015,0.030
1977,-0.015,0.035
1978,-0.010,0.040
1979,-0.005,0.045
1980,0.000,0.050
1981,0.000,0.055
1982,0.000,0.060
1983,0.010,0.070
1984,0.015,0.075
1985,0.025,0.085
1986,0.035,0.085
1987,0.045,0.100
1988,0.055,0.110
1989,0.060,0.120
1990,0.070,0.130
1991,0.075,0.140
1992,0.090,0.150
1993,0.100,0.160
1994,0.110,0.170
1995,0.115,0.180
1996,0.130,0.195
1997,0.140,0.205
1998,0.145,0.210
1999,0.150,0.220
2000,0.150,0.225
2001,0.160,0.230
2002,0.155,0.230
2003,0.155,0.230
2004,0.155,0.225
2005,0.145,0.230
2006,0.140,0.220
2007,0.130,0.215
2008,0.120,0.205
2009,0.110,0.195
2010,0.100,0.185
2011,0.085,0.170
2012,0.080,0.165
2013,0.070,0.150
2014,0.065,0.145
2015,0.055,0.135
2016,0.045,0.130
2017,0.040,0.120
2018,0.035,0.115
2019,0.030,0.115
2020,0.025,0.110
2021,0.020,0.110
2022,0.015,0.100
2023,0.015,0.100
2024,0.010,0.095
2025,0.010,0.090
2026,0.010,0.085
2027,0.010,0.080
2028,0.010,0.080
2029,0.005,0.085
2030,0.005,0.085
2031,0.005,0.085
2032,0.000,0.080
2033,0.005,0.080
2034,0.000,0.085
2035,0.000,0.080
2036,0.000,0.080
2037,0.000,0.085
2038,0.000,0.085
2039,0.000,0.085
2040,0.000,0.085
2041,0.000,0.085
2042,0.000,0.085
2043,0.000,0.085
2044,0.000,0.080
2045,0.000,0.085
2046,0.000,0.090
2047,-0.005,0.090
2048,-0.005,0.090
2049,-0.005,0.085
2050,-0.010,0.085
2051,-0.015,0.090
2052,-0.015,0.090
2053,-0.015,0.090
2054,-0.015,0.090
2055,-0.015,0.085
2056,-0.010,0.085
2057,-0.020,0.080
2058,-0.020,0.080
2059,-0.015,0.075
2060,-0.015,0.080
2061,-0.020,0.080
2062,-0.020,0.085
2063,-0.020,0.085
2064,-0.020,0.085
2065,-0.025,0.085
2066,-0.025,0.080
2067,-0.025,0.085
2068,-0.025,0.075
2069,-0.025,0.075
2070,-0.025,0.075
2071,-0.020,0.075
2072,-0.020,0.075
2073,-0.025,0.070
2074,-0.025,0.075
2075,-0.030,0.065
2076,-0.030,0.065
2077,-0.030,0.065
2078,-0.025,0.065
2079,-0.025,0.060
2080,-0.025,0.060
2081,-0.030,0.060
2082,-0.030,0.060
2083,-0.025,0.060
2084,-0.025,0.060
2085,-0.025,0.060
2086,-0.025,0.060
2087,-0.025,0.065
2088,-0.025,0.065
2089,-0.030,0.065
2090,-0.030,0.065
2091,-0.035,0.060
2092,-0.040,0.060
2093,-0.040,0.055
2094,-0.045,0.060
2095,-0.040,0.055
2096,-0.045,0.060
2097,-0.050,0.060
2098,-0.050,0.060
2099,-0.050,0.060
2100,-0.045,0.060
2101,-0.045,0.060
2102,-0.045,0.060
2103,-0.045,0.055
2104,-0.045,0.055
2105,-0.045,0.060
2106,-0.045,0.060
2107,-0.040,0.060
2108,-0.035,0.060
2109,-0.035,0.060
2110,-0.035,0.060
2111,-0.030,0.060
2112,-0.030,0.060
2113,-0.025,0.065
2114,-0.025,0.065
2115,-0.025,0.065
2116,-0.030,0.065
2117,-0.030,0.070
2118,-0.030,0.070
2119,-0.030,0.070
2120,-0.030,0.075
2121,-0.030,0.075
2122,-0.030,0.075
2123,-0.030,0.075
2124,-0.025,0.070
2125,-0.025,0.075
2126,-0.020,0.075
2127,-0.015,0.075
2128,-0.015,0.080
2129,-0.010,0.085
2130,-0.005,0.095
2131,0.000,0.100
2132,0.000,0.110
2133,0.000,0.120
2134,0.010,0.135
2135,0.020,0.145
2136,0.025,0.150
2137,0.035,0.165
2138,0.045,0.170
2139,0.050,0.185
2140,0.050,0.195
2141,0.045,0.195
2142,0.040,0.195
2143,0.030,0.180
2144,0.025,0.175
2145,0.020,0.170
2146,0.020,0.165
2147,0.020,0.155
2148,0.010,0.155
2149,0.005,0.150
2150,0.000,0.140
2151,-0.005,0.135
2152,-0.015,0.130
2153,-0.020,0.125
2154,-0.015,0.120
2155,-0.020,0.125
2156,-0.025,0.120
2157,-0.025,0.120
2158,-0.025,0.120
2159,-0.025,0.115
2160,-0.025,0.110
2161,-0.025,0.110
2162,-0.025,0.115
2163,-0.020,0.115
2164,-0.025,0.120
2165,-0.025,0.120
2166,-0.025,0.115
2167,-0.020,0.115
2168,-0.020,0.115
2169,-0.020,0.115
2170,-0.015,0.120
2171,-0.005,0.130
2172,0.005,0.140
2173,0.015,0.155
2174,0.035,0.170
2175,0.060,0.190
2176,0.100,0.220
2177,0.155,0.265
2178,0.245,0.345
2179,0.360,0.455
2180,0.470,0.585
2181,0.555,0.695
2182,0.590,0.765
2183,0.590,0.775
2184,0.530,0.745
2185,0.445,0.665
2186,0.360,0.570
2187,0.305,0.505
2188,0.250,0.450
2189,0.185,0.395
2190,0.115,0.315
2191,0.050,0.245
2192,0.010,0.190
2193,-0.010,0.160
2194,-0.025,0.145
2195,-0.030,0.135
2196,-0.040,0.125
2197,-0.050,0.120
2198,-0.060,0.110
2199,-0.065,0.105
2200,-0.070,0.100
2201,-0.070,0.095
2202,-0.075,0.095
2203,-0.075,0.095
2204,-0.075,0.095
2205,-0.075,0.090
2206,-0.070,0.090
2207,-0.075,0.085
2208,-0.075,0.090
2209,-0.075,0.090
2210,-0.075,0.085
2211,-0.075,0.085
2212,-0.075,0.085
2213,-0.070,0.085
2214,-0.080,0.085
2215,-0.080,0.085
2216,-0.080,0.085
2217,-0.080,0.085
2218,-0.085,0.085
2219,-0.090,0.090
2220,-0.085,0.090
2221,-0.085,0.095
2222,-0.090,0.085
2223,-0.090,0.085
2224,-0.090,0.085
2225,-0.085,0.085
2226,-0.085,0.085
2227,-0.085,0.080
2228,-0.080,0.085
2229,-0.080,0.085
2230,-0.080,0.085
2231,-0.080,0.090
2232,-0.080,0.090
2233,-0.070,0.090
2234,-0.070,0.095
2235,-0.065,0.100
2236,-0.065,0.100
2237,-0.060,0.105
2238,-0.050,0.110
2239,-0.045,0.120
2240,-0.035,0.125
2241,-0.030,0.130
2242,-0.015,0.145
2243,-0.010,0.155
2244,0.000,0.165
2245,0.005,0.175
2246,0.015,0.185
2247,0.025,0.195
2248,0.035,0.205
2249,0.050,0.215
2250,0.060,0.225
2251,0.075,0.240
2252,0.085,0.255
2253,0.100,0.270
2254,0.110,0.280
2255,0.120,0.300
2256,0.130,0.310
2257,0.130,0.315
2258,0.140,0.320
2259,0.140,0.320
2260,0.140,0.325
2261,0.135,0.320
2262,0.130,0.320
2263,0.125,0.315
2264,0.120,0.305
2265,0.115,0.295
2266,0.095,0.285
2267,0.080,0.270
2268,0.070,0.255
2269,0.060,0.250
2270,0.050,0.235
2271,0.040,0.230
2272,0.030,0.220
2273,0.020,0.210
2274,0.015,0.200
2275,0.010,0.195
2276,0.010,0.190
2277,0.005,0.180
2278,0.005,0.175
2279,0.005,0.170
2280,0.000,0.170
2281,0.000,0.160
2282,-0.005,0.160
2283,-0.005,0.160
2284,-0.005,0.155
2285,-0.005,0.155
2286,-0.010,0.150
2287,-0.010,0.150
2288,-0.010,0.150
2289,-0.015,0.145
2290,-0.020,0.140
2291,-0.025,0.140
2292,-0.020,0.135
2293,-0.025,0.130
2294,-0.020,0.130
2295,-0.020,0.125
2296,-0.025,0.130
2297,-0.025,0.125
2298,-0.030,0.125
2299,-0.030,0.130
2300,-0.035,0.130
2301,-0.035,0.130
2302,-0.035,0.125
2303,-0.035,0.130
2304,-0.035,0.125
2305,-0.035,0.130
2306,-0.035,0.130
2307,-0.035,0.125
2308,-0.035,0.125
2309,-0.030,0.125
2310,-0.030,0.125
2311,-0.030,0.120
2312,-0.025,0.120
2313,-0.025,0.120
2314,-0.020,0.120
2315,-0.025,0.115
2316,-0.025,0.110
2317,-0.015,0.105
2318,-0.020,0.105
2319,-0.020,0.105
2320,-0.020,0.105
2321,-0.020,0.110
2322,-0.020,0.110
2323,-0.025,0.110
2324,-0.020,0.110
2325,-0.025,0.110
2326,-0.025,0.115
2327,-0.025,0.115
2328,-0.025,0.120
2329,-0.025,0.115
2330,-0.025,0.115
2331,-0.030,0.110
2332,-0.025,0.110
2333,-0.020,0.105
2334,-0.020,0.110
2335,-0.015,0.110
2336,-0.015,0.110
2337,-0.020,0.110
2338,-0.020,0.105
2339,-0.020,0.105
2340,-0.015,0.105
2341,-0.020,0.110
2342,-0.020,0.110
2343,-0.020,0.110
2344,-0.020,0.110
2345,-0.015,0.110
2346,-0.015,0.110
2347,-0.010,0.105
2348,-0.010,0.105
2349,-0.015,0.105
2350,-0.015,0.100
2351,-0.010,0.100
2352,-0.010,0.095
2353,-0.010,0.095
2354,-0.015,0.095
2355,-0.015,0.090
2356,-0.010,0.090
2357,-0.015,0.085
2358,-0.010,0.090
2359,-0.010,0.085
2360,-0.010,0.085
2361,-0.010,0.085
2362,-0.010,0.090
2363,-0.005,0.090
2364,-0.010,0.090
2365,-0.010,0.090
2366,-0.005,0.095
2367,-0.005,0.100
2368,0.000,0.100
2369,0.005,0.105
2370,0.010,0.110
2371,0.015,0.120
2372,0.015,0.130
2373,0.025,0.140
2374,0.030,0.150
2375,0.035,0.160
2376,0.040,0.165
2377,0.050,0.170
2378,0.060,0.180
2379,0.070,0.190
2380,0.070,0.200
2381,0.075,0.200
2382,0.070,0.200
2383,0.070,0.200
2384,0.065,0.195
2385,0.060,0.190
2386,0.050,0.175
2387,0.040,0.165
2388,0.040,0.160
2389,0.035,0.160
2390,0.030,0.150
2391,0.025,0.145
2392,0.025,0.135
2393,0.015,0.125
2394,0.015,0.125
2395,0.015,0.115
2396,0.010,0.115
2397,0.010,0.115
2398,0.005,0.110
2399,0.005,0.105
2400,0.000,0.105
2401,0.000,0.105
2402,0.000,0.105
2403,0.005,0.105
2404,0.005,0.105
2405,0.005,0.105
2406,0.010,0.110
2407,0.010,0.105
2408,0.010,0.105
2409,0.005,0.105
2410,0.010,0.105
2411,0.010,0.110
2412,0.015,0.115
2413,0.020,0.115
2414,0.025,0.125
2415,0.045,0.135
2416,0.055,0.145
2417,0.075,0.165
2418,0.100,0.185
2419,0.150,0.225
2420,0.215,0.280
2421,0.320,0.380
2422,0.435,0.495
2423,0.530,0.615
2424,0.600,0.710
2425,0.605,0.750
2426,0.585,0.750
2427,0.505,0.680
2428,0.420,0.595
2429,0.355,0.500
2430,0.305,0.445
2431,0.250,0.385
2432,0.170,0.310
2433,0.110,0.240
2434,0.060,0.170
2435,0.030,0.130
2436,0.020,0.110
2437,0.005,0.100
2438,0.000,0.090
2439,-0.010,0.080
2440,-0.015,0.075
2441,-0.020,0.065
2442,-0.020,0.065
2443,-0.025,0.060
2444,-0.025,0.060
2445,-0.030,0.060
2446,-0.030,0.060
2447,-0.035,0.055
2448,-0.035,0.055
2449,-0.035,0.055
2450,-0.030,0.055
2451,-0.030,0.055
2452,-0.030,0.060
2453,-0.025,0.060
2454,-0.020,0.055
2455,-0.020,0.055
2456,-0.015,0.055
2457,-0.015,0.055
2458,-0.015,0.055
2459,-0.010,0.050
2460,-0.005,0.050
2461,-0.005,0.050
2462,-0.005,0.055
2463,-0.005,0.055
2464,-0.005,0.055
2465,-0.005,0.055
2466,0.000,0.050
2467,0.000,0.055
2468,0.000,0.055
2469,0.005,0.060
2470,0.005,0.060
2471,0.010,0.065
2472,0.005,0.065
2473,0.010,0.065
2474,0.015,0.065
2475,0.010,0.065
2476,0.015,0.070
2477,0.015,0.070
2478,0.020,0.075
2479,0.020,0.075
2480,0.025,0.080
2481,0.030,0.085
2482,0.035,0.090
2483,0.040,0.095
2484,0.045,0.105
2485,0.055,0.120
2486,0.065,0.130
2487,0.070,0.140
2488,0.080,0.150
2489,0.090,0.160
2490,0.105,0.175
2491,0.115,0.185
2492,0.125,0.200
2493,0.135,0.210
2494,0.145,0.225
2495,0.155,0.235
2496,0.165,0.245
2497,0.180,0.250
2498,0.185,0.260
2499,0.185,0.270
2500,0.185,0.275
2501,0.185,0.280
2502,0.180,0.275
2503,0.180,0.280
2504,0.170,0.270
2505,0.160,0.260
2506,0.150,0.250
2507,0.135,0.245
2508,0.130,0.235
2509,0.115,0.220
2510,0.105,0.215
2511,0.095,0.200
2512,0.085,0.190
2513,0.075,0.175
2514,0.065,0.165
2515,0.060,0.165
2516,0.055,0.155
2517,0.050,0.145
2518,0.045,0.140
2519,0.050,0.135
2520,0.045,0.130
2521,0.045,0.125
2522,0.040,0.120
2523,0.040,0.120
2524,0.040,0.115
2525,0.040,0.115
2526,0.040,0.115
2527,0.035,0.115
2528,0.035,0.120
2529,0.030,0.120
2530,0.030,0.120
2531,0.025,0.115
2532,0.020,0.115
2533,0.025,0.110
2534,0.020,0.110
2535,0.020,0.110
2536,0.020,0.110
2537,0.020,0.110
2538,0.020,0.105
2539,0.020,0.105
2540,0.020,0.105
2541,0.020,0.105
2542,0.020,0.105
2543,0.020,0.105
2544,0.020,0.110
2545,0.015,0.105
2546,0.010,0.105
2547,0.010,0.100
2548,0.010,0.100
2549,0.015,0.095
2550,0.005,0.090
2551,0.005,0.090
2552,0.005,0.095
2553,0.005,0.095
2554,0.000,0.085
2555,0.000,0.080
2556,0.000,0.080
2557,0.000,0.080
2558,0.000,0.080
2559,-0.005,0.080
2560,-0.005,0.085
2561,-0.005,0.080
2562,-0.005,0.080
2563,-0.010,0.080
2564,-0.005,0.080
2565,-0.005,0.080
2566,-0.010,0.080
2567,-0.005,0.080
2568,-0.005,0.080
2569,-0.005,0.080
2570,-0.010,0.080
2571,-0.005,0.080
2572,-0.005,0.075
2573,-0.005,0.075
2574,-0.005,0.075
2575,-0.010,0.070
2576,-0.010,0.070
2577,-0.010,0.065
2578,-0.010,0.070
2579,-0.005,0.065
2580,-0.010,0.060
2581,-0.015,0.060
2582,-0.015,0.060
2583,-0.010,0.065
2584,-0.010,0.065
2585,-0.015,0.070
2586,-0.015,0.070
2587,-0.015,0.070
2588,-0.015,0.070
2589,-0.015,0.075
2590,-0.015,0.075
2591,-0.015,0.075
2592,-0.015,0.075
2593,-0.010,0.075
2594,-0.010,0.080
2595,-0.010,0.080
2596,-0.005,0.080
2597,-0.005,0.080
2598,-0.005,0.080
2599,-0.005,0.085
2600,0.000,0.085
2601,0.000,0.090
2602,0.000,0.095
2603,0.000,0.095
2604,0.000,0.100
2605,0.005,0.100
2606,0.005,0.100
2607,0.010,0.110
2608,0.025,0.115
2609,0.030,0.125
2610,0.035,0.135
2611,0.040,0.140
2612,0.050,0.150
2613,0.060,0.155
2614,0.065,0.165
2615,0.065,0.165
2616,0.070,0.175
2617,0.080,0.180
2618,0.085,0.190
2619,0.085,0.200
2620,0.080,0.195
2621,0.070,0.190
2622,0.060,0.175
2623,0.050,0.165
2624,0.045,0.155
2625,0.040,0.150
2626,0.040,0.150
2627,0.035,0.145
2628,0.030,0.140
2629,0.020,0.130
2630,0.015,0.125
2631,0.020,0.120
2632,0.010,0.115
2633,0.010,0.115
2634,0.010,0.115
2635,0.015,0.115
2636,0.010,0.115
2637,0.010,0.110
2638,0.005,0.105
2639,0.005,0.105
2640,0.005,0.110
2641,0.005,0.110
2642,0.010,0.110
2643,0.010,0.110
2644,0.015,0.115
2645,0.005,0.115
2646,0.010,0.110
2647,0.010,0.115
2648,0.015,0.115
2649,0.020,0.125
2650,0.030,0.130
2651,0.045,0.145
2652,0.055,0.160
2653,0.075,0.180
2654,0.100,0.200
2655,0.135,0.230
2656,0.200,0.285
2657,0.295,0.380
2658,0.410,0.505
2659,0.505,0.630
2660,0.585,0.740
2661,0.600,0.780
2662,0.590,0.800
2663,0.525,0.745
2664,0.435,0.665
2665,0.365,0.570
2666,0.305,0.495
2667,0.250,0.435
2668,0.180,0.355
2669,0.120,0.290
2670,0.070,0.225
2671,0.035,0.180
2672,0.015,0.155
2673,0.010,0.135
2674,0.000,0.125
2675,-0.005,0.115
2676,-0.010,0.105
2677,-0.020,0.100
2678,-0.025,0.095
2679,-0.030,0.090
2680,-0.030,0.080
2681,-0.035,0.075
2682,-0.035,0.075
2683,-0.030,0.075
2684,-0.035,0.080
2685,-0.040,0.080
2686,-0.045,0.080
2687,-0.045,0.080
2688,-0.045,0.075
2689,-0.045,0.075
2690,-0.045,0.070
2691,-0.045,0.070
2692,-0.045,0.070
2693,-0.045,0.075
2694,-0.045,0.075
2695,-0.045,0.070
2696,-0.045,0.070
2697,-0.045,0.075
2698,-0.045,0.075
2699,-0.040,0.075
2700,-0.040,0.080
2701,-0.040,0.080
2702,-0.040,0.080
2703,-0.040,0.085
2704,-0.040,0.080
2705,-0.040,0.085
2706,-0.035,0.085
2707,-0.035,0.080
2708,-0.030,0.080
2709,-0.035,0.080
2710,-0.030,0.080
2711,-0.030,0.075
2712,-0.030,0.080
2713,-0.025,0.080
2714,-0.025,0.080
2715,-0.020,0.085
2716,-0.020,0.085
2717,-0.020,0.095
2718,-0.015,0.095
2719,-0.005,0.105
2720,0.000,0.110
2721,0.000,0.120
2722,0.010,0.130
2723,0.020,0.135
2724,0.025,0.145
2725,0.030,0.150
2726,0.045,0.165
2727,0.055,0.175
2728,0.065,0.185
2729,0.075,0.195
2730,0.085,0.210
2731,0.095,0.220
2732,0.110,0.235
2733,0.120,0.250
2734,0.125,0.255
2735,0.135,0.270
2736,0.140,0.270
2737,0.140,0.275
2738,0.135,0.270
2739,0.130,0.275
2740,0.125,0.270
2741,0.120,0.265
2742,0.115,0.260
2743,0.100,0.245
2744,0.100,0.240
2745,0.085,0.225
2746,0.070,0.215
2747,0.060,0.200
2748,0.050,0.190
2749,0.040,0.180
2750,0.040,0.165
2751,0.035,0.160
2752,0.025,0.150
2753,0.020,0.145
2754,0.015,0.140
2755,0.010,0.135
2756,0.000,0.130
2757,0.000,0.130
2758,0.000,0.130
2759,-0.005,0.125
2760,-0.005,0.120
2761,-0.010,0.120
2762,-0.010,0.115
2763,-0.015,0.110
2764,-0.015,0.110
2765,-0.015,0.110
2766,-0.020,0.110
2767,-0.020,0.110
2768,-0.020,0.110
2769,-0.020,0.110
2770,-0.025,0.100
2771,-0.020,0.100
2772,-0.020,0.100
2773,-0.020,0.095
2774,-0.015,0.095
2775,-0.020,0.100
2776,-0.015,0.105
2777,-0.015,0.100
2778,-0.020,0.100
2779,-0.020,0.100
2780,-0.015,0.100
2781,-0.010,0.100
2782,-0.015,0.095
2783,-0.010,0.100
2784,-0.015,0.100
2785,-0.015,0.100
2786,-0.015,0.095
2787,-0.020,0.095
2788,-0.020,0.090
2789,-0.025,0.090
2790,-0.025,0.090
2791,-0.030,0.090
2792,-0.030,0.095
2793,-0.030,0.095
2794,-0.030,0.095
2795,-0.030,0.090
2796,-0.030,0.085
2797,-0.030,0.085
2798,-0.030,0.085
2799,-0.030,0.085
2800,-0.030,0.085
2801,-0.030,0.085
2802,-0.030,0.080
2803,-0.030,0.080
2804,-0.030,0.080
2805,-0.030,0.075
2806,-0.030,0.075
2807,-0.030,0.075
2808,-0.030,0.075
2809,-0.030,0.075
2810,-0.030,0.080
2811,-0.030,0.075
2812,-0.030,0.075
2813,-0.030,0.075
2814,-0.030,0.080
2815,-0.030,0.080
2816,-0.030,0.080
2817,-0.030,0.085
2818,-0.035,0.085
2819,-0.040,0.080
2820,-0.040,0.080
2821,-0.040,0.080
2822,-0.035,0.080
2823,-0.035,0.085
2824,-0.030,0.085
2825,-0.025,0.085
2826,-0.025,0.090
2827,-0.025,0.085
2828,-0.025,0.090
2829,-0.020,0.090
2830,-0.020,0.095
2831,-0.020,0.095
2832,-0.015,0.100
2833,-0.010,0.100
2834,-0.010,0.100
2835,-0.005,0.105
2836,-0.005,0.105
2837,0.000,0.115
2838,0.005,0.125
2839,0.015,0.140
2840,0.030,0.145
2841,0.035,0.160
2842,0.050,0.170
2843,0.050,0.185
2844,0.050,0.185
2845,0.055,0.185
2846,0.060,0.190
2847,0.070,0.200
2848,0.070,0.205
2849,0.070,0.210
2850,0.060,0.205
2851,0.055,0.195
2852,0.040,0.185
2853,0.030,0.170
2854,0.025,0.160
2855,0.020,0.160
2856,0.020,0.155
2857,0.015,0.150
2858,0.005,0.145
2859,0.000,0.140
2860,0.000,0.135
2861,-0.005,0.125
2862,-0.005,0.120
2863,0.000,0.120
2864,-0.005,0.120
2865,-0.005,0.120
2866,-0.005,0.120
2867,-0.010,0.120
2868,-0.010,0.120
2869,-0.010,0.120
2870,-0.010,0.120
2871,-0.010,0.120
2872,-0.010,0.120
2873,-0.010,0.120
2874,-0.010,0.125
2875,-0.010,0.125
2876,-0.010,0.130
2877,-0.010,0.125
2878,-0.010,0.130
2879,0.000,0.135
2880,0.005,0.145
2881,0.020,0.160
2882,0.040,0.175
2883,0.060,0.195
2884,0.090,0.220
2885,0.140,0.260
2886,0.220,0.320
2887,0.325,0.425
2888,0.440,0.540
2889,0.540,0.660
2890,0.595,0.730
2891,0.600,0.760
2892,0.570,0.740
2893,0.480,0.665
2894,0.400,0.585
2895,0.340,0.505
2896,0.295,0.460
2897,0.230,0.400
2898,0.155,0.330
2899,0.095,0.260
2900,0.045,0.200
2901,0.015,0.165
2902,0.000,0.145
2903,-0.010,0.135
2904,-0.020,0.125
2905,-0.025,0.115
2906,-0.030,0.105
2907,-0.035,0.100
2908,-0.040,0.090
2909,-0.045,0.090
2910,-0.050,0.085
2911,-0.055,0.080
2912,-0.055,0.075
2913,-0.055,0.075
2914,-0.060,0.075
2915,-0.055,0.075
2916,-0.055,0.070
2917,-0.055,0.070
2918,-0.055,0.065
2919,-0.060,0.065
2920,-0.060,0.060
2921,-0.060,0.060
2922,-0.050,0.065
2923,-0.050,0.060
2924,-0.050,0.060
2925,-0.050,0.065
2926,-0.050,0.065
2927,-0.055,0.065
2928,-0.050,0.060
2929,-0.050,0.065
2930,-0.045,0.065
2931,-0.040,0.065
2932,-0.045,0.065
2933,-0.045,0.070
2934,-0.045,0.065
2935,-0.045,0.070
2936,-0.045,0.065
2937,-0.045,0.070
2938,-0.040,0.070
2939,-0.040,0.070
2940,-0.035,0.070
2941,-0.035,0.075
2942,-0.030,0.080
2943,-0.025,0.080
2944,-0.020,0.085
2945,-0.015,0.085
2946,-0.015,0.095
2947,-0.005,0.095
2948,0.000,0.100
2949,0.000,0.110
2950,0.010,0.120
2951,0.020,0.125
2952,0.030,0.130
2953,0.040,0.140
2954,0.045,0.145
2955,0.055,0.155
2956,0.065,0.165
2957,0.080,0.170
2958,0.090,0.180
2959,0.100,0.185
2960,0.110,0.200
2961,0.120,0.205
2962,0.125,0.220
2963,0.135,0.225
2964,0.140,0.230
2965,0.145,0.235
2966,0.150,0.240
2967,0.155,0.240
2968,0.145,0.235
2969,0.140,0.230
2970,0.130,0.225
2971,0.125,0.220
2972,0.110,0.205
2973,0.100,0.195
2974,0.100,0.190
2975,0.085,0.180
2976,0.075,0.170
2977,0.060,0.155
2978,0.055,0.150
2979,0.045,0.140
2980,0.035,0.130
2981,0.030,0.120
2982,0.025,0.120
2983,0.020,0.115
2984,0.015,0.110
2985,0.015,0.110
2986,0.010,0.105
2987,0.010,0.105
2988,0.005,0.100
2989,0.005,0.100
2990,0.010,0.095
2991,0.005,0.095
2992,0.005,0.090
2993,0.000,0.085
2994,0.000,0.085
2995,0.000,0.080
2996,0.000,0.080
2997,0.000,0.080
2998,0.000,0.085
2999,0.000,0.085
3000,0.000,0.090
3001,0.005,0.095
3002,0.000,0.090
3003,0.000,0.095
3004,0.000,0.090
3005,0.000,0.090
3006,0.000,0.090
3007,0.000,0.090
3008,0.000,0.095
3009,0.000,0.095
3010,0.000,0.095
3011,0.000,0.095
3012,0.000,0.100
3013,0.005,0.100
3014,0.000,0.100
3015,0.005,0.105
3016,0.005,0.100
3017,0.005,0.095
3018,0.010,0.085
3019,0.015,0.085
3020,0.015,0.085
3021,0.010,0.085
3022,0.005,0.080
3023,0.000,0.080
3024,0.000,0.080
3025,0.000,0.080
3026,0.000,0.080
3027,-0.005,0.075
3028,0.000,0.075
3029,0.000,0.075
3030,-0.005,0.070
3031,-0.005,0.075
3032,-0.005,0.070
3033,-0.005,0.075
3034,-0.005,0.070
3035,-0.005,0.065
3036,-0.010,0.065
3037,-0.010,0.065
3038,-0.010,0.070
3039,-0.010,0.065
3040,-0.005,0.065
3041,-0.005,0.070
3042,-0.005,0.070
3043,-0.010,0.065
3044,-0.010,0.060
3045,-0.005,0.060
3046,-0.005,0.065
3047,-0.005,0.070
3048,-0.010,0.065
3049,-0.005,0.065
3050,-0.010,0.065
3051,-0.010,0.060
3052,-0.010,0.060
3053,-0.010,0.060
3054,-0.005,0.065
3055,-0.010,0.065
3056,-0.010,0.060
3057,-0.010,0.065
3058,-0.005,0.065
3059,-0.005,0.065
3060,-0.010,0.065
3061,-0.010,0.060
3062,-0.005,0.060
3063,-0.005,0.065
3064,0.000,0.070
3065,0.005,0.075
3066,0.005,0.085
3067,0.015,0.095
3068,0.025,0.100
3069,0.035,0.110
3070,0.045,0.120
3071,0.060,0.130
3072,0.070,0.140
3073,0.070,0.145
3074,0.075,0.150
3075,0.080,0.160
3076,0.085,0.170
3077,0.085,0.175
3078,0.085,0.175
3079,0.080,0.170
3080,0.070,0.160
3081,0.065,0.150
3082,0.055,0.145
3083,0.050,0.145
3084,0.045,0.135
3085,0.040,0.130
3086,0.035,0.115
3087,0.030,0.115
3088,0.030,0.105
3089,0.025,0.105
3090,0.025,0.105
3091,0.020,0.100
3092,0.015,0.100
3093,0.015,0.090
3094,0.015,0.090
3095,0.020,0.090
3096,0.020,0.090
3097,0.020,0.085
3098,0.015,0.085
3099,0.015,0.085
3100,0.015,0.085
3101,0.015,0.085
3102,0.020,0.085
3103,0.020,0.090
3104,0.020,0.090
3105,0.020,0.090
3106,0.020,0.090
3107,0.025,0.095
3108,0.035,0.100
3109,0.050,0.105
3110,0.065,0.120
3111,0.080,0.130
3112,0.105,0.155
3113,0.145,0.190
3114,0.205,0.240
3115,0.300,0.325
3116,0.410,0.450
3117,0.525,0.580
3118,0.590,0.680
3119,0.625,0.740
3120,0.595,0.735
3121,0.535,0.695
3122,0.445,0.595
3123,0.380,0.500
3124,0.340,0.435
3125,0.280,0.380
3126,0.215,0.315
3127,0.150,0.240
3128,0.100,0.180
3129,0.060,0.135
3130,0.045,0.110
3131,0.035,0.095
3132,0.025,0.085
3133,0.015,0.070
3134,0.005,0.065
3135,0.000,0.055
3136,-0.005,0.045
3137,-0.005,0.040
3138,-0.005,0.035
3139,-0.010,0.035
3140,-0.010,0.030
3141,-0.015,0.030
3142,-0.015,0.035
3143,-0.020,0.030
3144,-0.030,0.030
3145,-0.030,0.030
3146,-0.025,0.030
3147,-0.020,0.030
3148,-0.025,0.020
3149,-0.020,0.025
3150,-0.020,0.025
3151,-0.020,0.025
3152,-0.020,0.025
3153,-0.020,0.025
3154,-0.010,0.025
3155,-0.015,0.025
3156,-0.015,0.030
3157,-0.010,0.030
3158,-0.010,0.035
3159,-0.005,0.030
3160,0.000,0.035
3161,0.000,0.035
3162,0.000,0.040
3163,0.000,0.040
3164,0.000,0.045
3165,0.000,0.050
3166,0.000,0.045
3167,0.005,0.045
3168,0.005,0.045
3169,0.010,0.045
3170,0.015,0.050
3171,0.015,0.055
3172,0.020,0.060
3173,0.025,0.060
3174,0.030,0.065
3175,0.030,0.070
3176,0.040,0.075
3177,0.045,0.080
3178,0.055,0.090
3179,0.060,0.095
3180,0.070,0.105
3181,0.080,0.115
3182,0.090,0.125
3183,0.095,0.135
3184,0.105,0.145
3185,0.110,0.155
3186,0.115,0.165
3187,0.125,0.180
3188,0.140,0.190
3189,0.145,0.200
3190,0.155,0.210
3191,0.165,0.220
3192,0.175,0.225
3193,0.175,0.230
3194,0.180,0.240
3195,0.175,0.240
3196,0.175,0.240
3197,0.165,0.235
3198,0.160,0.235
3199,0.160,0.225
3200,0.145,0.215
3201,0.135,0.205
3202,0.120,0.190
3203,0.115,0.180
3204,0.105,0.165
3205,0.090,0.160
3206,0.085,0.150
3207,0.070,0.140
3208,0.065,0.130
3209,0.055,0.120
3210,0.050,0.120
3211,0.045,0.110
3212,0.040,0.110
3213,0.040,0.105
3214,0.035,0.100
3215,0.035,0.095
3216,0.030,0.095
3217,0.025,0.090
3218,0.020,0.085
3219,0.025,0.080
3220,0.020,0.080
3221,0.020,0.080
3222,0.020,0.080
3223,0.015,0.080
3224,0.015,0.085
3225,0.015,0.080
3226,0.015,0.080
3227,0.020,0.075
3228,0.025,0.080
3229,0.025,0.075
3230,0.020,0.075
3231,0.025,0.080
3232,0.025,0.080
3233,0.025,0.080
3234,0.025,0.075
3235,0.030,0.075
3236,0.030,0.075
3237,0.025,0.075
3238,0.025,0.075
3239,0.025,0.075
3240,0.025,0.080
3241,0.025,0.080
3242,0.025,0.080
3243,0.020,0.075
3244,0.025,0.075
3245,0.020,0.070
3246,0.020,0.070
3247,0.025,0.075
3248,0.025,0.070
3249,0.020,0.070
3250,0.020,0.070
3251,0.020,0.070
3252,0.015,0.065
3253,0.015,0.065
3254,0.010,0.065
3255,0.010,0.060
3256,0.010,0.060
3257,0.010,0.055
3258,0.010,0.050
3259,0.010,0.045
3260,0.010,0.040
3261,0.010,0.040
3262,0.010,0.040
3263,0.005,0.040
3264,0.005,0.040
3265,0.000,0.040
3266,0.000,0.040
3267,0.000,0.035
3268,0.000,0.035
3269,0.000,0.030
3270,0.000,0.030
3271,0.000,0.030
3272,0.000,0.025
3273,0.000,0.025
3274,0.000,0.025
3275,-0.005,0.020
3276,-0.005,0.025
3277,-0.005,0.020
3278,-0.005,0.025
3279,-0.005,0.025
3280,0.000,0.025
3281,0.000,0.030
3282,0.000,0.030
3283,0.000,0.030
3284,0.000,0.025
3285,0.000,0.025
3286,0.000,0.025
3287,0.000,0.025
3288,0.000,0.025
3289,0.000,0.025
3290,0.000,0.025
3291,-0.005,0.025
3292,-0.005,0.025
3293,-0.005,0.020
3294,0.000,0.020
3295,-0.005,0.020
3296,0.000,0.015
3297,0.000,0.020
3298,0.000,0.020
3299,0.000,0.020
3300,0.000,0.015
3301,0.000,0.015
3302,0.000,0.015
3303,0.005,0.015
3304,0.005,0.010
3305,0.005,0.015
3306,0.005,0.015
3307,0.005,0.020
3308,0.005,0.025
3309,0.010,0.030
3310,0.015,0.035
3311,0.030,0.040
3312,0.030,0.045
3313,0.035,0.055
3314,0.045,0.065
3315,0.050,0.070
3316,0.055,0.075
3317,0.060,0.075
3318,0.070,0.075
3319,0.075,0.085
3320,0.075,0.090
3321,0.075,0.090
3322,0.070,0.090
3323,0.060,0.080
3324,0.050,0.070
3325,0.040,0.060
3326,0.040,0.055
3327,0.035,0.055
3328,0.035,0.055
3329,0.030,0.055
3330,0.030,0.045
3331,0.025,0.040
3332,0.025,0.035
3333,0.030,0.030
3334,0.025,0.030
3335,0.025,0.025
3336,0.020,0.025
3337,0.020,0.025
3338,0.020,0.025
3339,0.015,0.025
3340,0.020,0.025
3341,0.015,0.025
3342,0.020,0.030
3343,0.020,0.030
3344,0.020,0.030
3345,0.020,0.030
3346,0.020,0.025
3347,0.020,0.025
3348,0.020,0.030
3349,0.025,0.035
3350,0.030,0.040
3351,0.040,0.050
3352,0.050,0.065
3353,0.070,0.080
3354,0.085,0.100
3355,0.115,0.125
3356,0.165,0.165
3357,0.225,0.230
3358,0.330,0.330
3359,0.435,0.445
3360,0.550,0.575
3361,0.610,0.660
3362,0.635,0.705
3363,0.615,0.700
3364,0.545,0.645
3365,0.455,0.555
3366,0.380,0.465
3367,0.320,0.400
3368,0.255,0.330
3369,0.190,0.255
3370,0.120,0.180
3371,0.070,0.115
3372,0.040,0.070
3373,0.020,0.045
3374,0.005,0.035
3375,0.000,0.020
3376,-0.010,0.010
3377,-0.020,0.005
3378,-0.025,0.000
3379,-0.025,-0.010
3380,-0.035,-0.015
3381,-0.035,-0.015
3382,-0.040,-0.025
3383,-0.045,-0.030
3384,-0.050,-0.030
3385,-0.055,-0.035
3386,-0.050,-0.030
3387,-0.055,-0.030
3388,-0.055,-0.030
3389,-0.055,-0.035
3390,-0.060,-0.030
3391,-0.060,-0.030
3392,-0.060,-0.030
3393,-0.060,-0.035
3394,-0.060,-0.035
3395,-0.055,-0.035
3396,-0.055,-0.035
3397,-0.055,-0.035
3398,-0.060,-0.040
3399,-0.065,-0.040
3400,-0.065,-0.040
3401,-0.060,-0.040
3402,-0.060,-0.035
3403,-0.060,-0.035
3404,-0.060,-0.035
3405,-0.055,-0.035
3406,-0.055,-0.030
3407,-0.055,-0.030
3408,-0.050,-0.030
3409,-0.050,-0.030
3410,-0.045,-0.035
3411,-0.040,-0.035
3412,-0.035,-0.040
3413,-0.030,-0.040
3414,-0.030,-0.035
3415,-0.020,-0.040
3416,-0.025,-0.035
3417,-0.020,-0.035
3418,-0.015,-0.030
3419,-0.010,-0.030
3420,-0.010,-0.025
3421,0.000,-0.020
3422,0.005,-0.015
3423,0.015,-0.005
3424,0.025,0.000
3425,0.035,0.010
3426,0.050,0.030
3427,0.055,0.040
3428,0.070,0.050
3429,0.080,0.060
3430,0.095,0.075
3431,0.110,0.085
3432,0.120,0.095
3433,0.130,0.110
3434,0.140,0.120
3435,0.145,0.130
3436,0.150,0.135
3437,0.155,0.145
3438,0.165,0.150
3439,0.160,0.150
3440,0.160,0.150
3441,0.150,0.145
3442,0.145,0.140
3443,0.135,0.130
3444,0.125,0.125
3445,0.115,0.115
3446,0.105,0.105
3447,0.095,0.095
3448,0.085,0.085
3449,0.080,0.075
3450,0.070,0.060
3451,0.060,0.050
3452,0.055,0.040
3453,0.045,0.035
3454,0.040,0.025
3455,0.035,0.020
3456,0.035,0.020
3457,0.025,0.015
3458,0.020,0.005
3459,0.015,0.000
3460,0.015,0.000
3461,0.015,0.000
3462,0.010,-0.005
3463,0.010,-0.005
3464,0.010,-0.010
3465,0.005,-0.005
3466,0.000,-0.010
3467,0.000,-0.010
3468,0.000,-0.015
3469,0.000,-0.015
3470,-0.005,-0.015
3471,-0.005,-0.010
3472,-0.005,-0.010
3473,-0.010,-0.010
3474,-0.010,-0.010
3475,-0.010,-0.010
3476,-0.005,-0.010
3477,-0.005,-0.010
3478,-0.005,-0.015
3479,-0.005,-0.015
3480,-0.005,-0.020
3481,0.000,-0.025
3482,-0.005,-0.025
3483,-0.005,-0.025
3484,-0.005,-0.025
3485,0.000,-0.025
3486,0.000,-0.025
3487,0.000,-0.030
3488,0.000,-0.030
3489,-0.005,-0.035
3490,0.000,-0.035
3491,-0.005,-0.035
3492,-0.005,-0.040
3493,-0.010,-0.040
3494,-0.010,-0.040
3495,-0.010,-0.040
3496,-0.010,-0.045
3497,-0.005,-0.045
3498,-0.010,-0.040
3499,-0.010,-0.040
3500,-0.015,-0.040
3501,-0.015,-0.045
3502,-0.015,-0.045
3503,-0.015,-0.045
3504,-0.015,-0.050
3505,-0.015,-0.050
3506,-0.015,-0.050
3507,-0.015,-0.050
3508,-0.015,-0.050
3509,-0.015,-0.050
3510,-0.015,-0.050
3511,-0.015,-0.050
3512,-0.015,-0.050
3513,-0.015,-0.050
3514,-0.015,-0.050
3515,-0.015,-0.045
3516,-0.020,-0.045
3517,-0.020,-0.045
3518,-0.020,-0.045
3519,-0.020,-0.045
3520,-0.020,-0.045
3521,-0.025,-0.045
3522,-0.025,-0.045
3523,-0.025,-0.045
3524,-0.025,-0.045
3525,-0.025,-0.045
3526,-0.025,-0.045
3527,-0.025,-0.045
3528,-0.025,-0.045
3529,-0.025,-0.045
3530,-0.030,-0.045
3531,-0.030,-0.045
3532,-0.030,-0.050
3533,-0.030,-0.050
3534,-0.035,-0.045
3535,-0.035,-0.050
3536,-0.035,-0.045
3537,-0.035,-0.045
3538,-0.035,-0.040
3539,-0.030,-0.045
3540,-0.030,-0.045
3541,-0.030,-0.045
3542,-0.030,-0.045
3543,-0.030,-0.045
3544,-0.025,-0.045
3545,-0.025,-0.045
3546,-0.025,-0.045
3547,-0.025,-0.045
3548,-0.020,-0.040
3549,-0.020,-0.040
3550,-0.020,-0.040
3551,-0.020,-0.035
3552,-0.015,-0.035
3553,-0.015,-0.035
3554,-0.010,-0.035
3555,-0.005,-0.035
3556,-0.005,-0.025
3557,-0.005,-0.020
3558,0.000,-0.020
3559,0.000,-0.015
3560,0.005,-0.010
3561,0.015,-0.005
3562,0.020,0.000
3563,0.025,0.005
3564,0.035,0.015
3565,0.045,0.020
3566,0.040,0.030
3567,0.050,0.035
3568,0.060,0.045
3569,0.065,0.050
3570,0.070,0.060
3571,0.075,0.065
3572,0.080,0.070
3573,0.070,0.065
3574,0.065,0.055
3575,0.055,0.050
3576,0.045,0.040
3577,0.035,0.035
3578,0.030,0.030
3579,0.025,0.030
3580,0.025,0.025
3581,0.020,0.025
3582,0.010,0.020
3583,0.005,0.015
3584,0.000,0.010
3585,-0.005,0.005
3586,-0.005,0.005
3587,-0.005,0.000
3588,-0.010,0.000
3589,-0.015,0.000
3590,-0.010,0.005
3591,-0.015,0.005
3592,-0.015,0.005
3593,-0.015,0.000
3594,-0.010,0.000
3595,-0.005,0.000
3596,-0.010,0.005
3597,-0.010,0.005
3598,-0.010,0.005
3599,-0.010,0.005
3600,-0.005,0.005
3601,-0.005,0.010
3602,0.000,0.015
3603,0.010,0.020
3604,0.020,0.030
3605,0.035,0.050
3606,0.055,0.070
3607,0.080,0.090
3608,0.120,0.115
3609,0.175,0.160
3610,0.265,0.240
3611,0.375,0.345
3612,0.485,0.475
3613,0.560,0.575
3614,0.590,0.635
3615,0.580,0.630
3616,0.525,0.585
3617,0.450,0.510
3618,0.365,0.415
3619,0.315,0.350
3620,0.255,0.290
3621,0.190,0.230
3622,0.125,0.160
3623,0.070,0.100
3624,0.040,0.050
3625,0.010,0.020
3626,0.000,0.005
3627,-0.010,-0.005
3628,-0.020,-0.010
3629,-0.025,-0.020
3630,-0.030,-0.025
3631,-0.035,-0.030
3632,-0.040,-0.035
3633,-0.045,-0.045
3634,-0.050,-0.050
3635,-0.050,-0.055
3636,-0.050,-0.055
3637,-0.055,-0.060
3638,-0.050,-0.060
3639,-0.050,-0.055
3640,-0.050,-0.055
3641,-0.050,-0.055
3642,-0.055,-0.055
3643,-0.055,-0.055
3644,-0.055,-0.055
3645,-0.055,-0.060
3646,-0.060,-0.060
3647,-0.055,-0.055
3648,-0.060,-0.055
3649,-0.060,-0.060
3650,-0.060,-0.065
3651,-0.060,-0.060
3652,-0.055,-0.060
3653,-0.060,-0.065
3654,-0.060,-0.065
3655,-0.065,-0.065
3656,-0.065,-0.065
3657,-0.070,-0.065
3658,-0.070,-0.070
3659,-0.070,-0.070
3660,-0.070,-0.065
3661,-0.070,-0.060
3662,-0.070,-0.060
3663,-0.065,-0.060
3664,-0.065,-0.060
3665,-0.060,-0.060
3666,-0.060,-0.060
3667,-0.060,-0.060
3668,-0.055,-0.055
3669,-0.050,-0.050
3670,-0.045,-0.045
3671,-0.035,-0.040
3672,-0.030,-0.030
3673,-0.020,-0.020
3674,-0.010,-0.005
3675,-0.005,0.000
3676,0.000,0.005
3677,0.010,0.015
3678,0.015,0.025
3679,0.025,0.035
3680,0.040,0.045
3681,0.050,0.060
3682,0.060,0.070
3683,0.075,0.085
3684,0.080,0.095
3685,0.095,0.110
3686,0.105,0.120
3687,0.115,0.130
3688,0.125,0.140
3689,0.130,0.145
3690,0.135,0.150
3691,0.135,0.150
3692,0.135,0.155
3693,0.130,0.150
3694,0.125,0.145
3695,0.115,0.140
3696,0.110,0.135
3697,0.105,0.130
3698,0.090,0.120
3699,0.085,0.105
3700,0.070,0.095
3701,0.060,0.080
3702,0.050,0.070
3703,0.040,0.060
3704,0.035,0.050
3705,0.025,0.045
3706,0.025,0.040
3707,0.015,0.035
3708,0.015,0.025
3709,0.005,0.020
3710,0.005,0.020
3711,0.000,0.015
3712,0.000,0.010
3713,0.000,0.010
3714,-0.005,0.010
3715,0.000,0.010
3716,-0.005,0.005
3717,-0.005,0.005
3718,-0.010,0.005
3719,-0.010,0.005
3720,-0.010,0.000
3721,-0.015,0.000
3722,-0.010,0.000
3723,-0.015,0.000
3724,-0.020,0.000
3725,-0.020,0.000
3726,-0.025,0.000
3727,-0.020,0.000
3728,-0.020,0.000
3729,-0.020,0.000
3730,-0.025,0.000
3731,-0.030,0.000
3732,-0.030,0.000
3733,-0.030,0.000
3734,-0.035,-0.005
3735,-0.030,-0.005
3736,-0.035,-0.005
3737,-0.035,-0.010
3738,-0.040,-0.010
3739,-0.040,-0.010
3740,-0.040,-0.010
3741,-0.040,-0.015
3742,-0.040,-0.015
3743,-0.040,-0.015
3744,-0.040,-0.015
3745,-0.040,-0.010
3746,-0.040,-0.010
3747,-0.040,-0.010
3748,-0.045,-0.015
3749,-0.045,-0.015
3750,-0.045,-0.020
3751,-0.045,-0.020
3752,-0.040,-0.020
3753,-0.040,-0.020
3754,-0.040,-0.020
3755,-0.045,-0.020
3756,-0.045,-0.020
3757,-0.045,-0.020
3758,-0.045,-0.020
3759,-0.045,-0.020
3760,-0.045,-0.025
3761,-0.045,-0.025
3762,-0.045,-0.025
3763,-0.050,-0.020
3764,-0.050,-0.020
3765,-0.050,-0.015
3766,-0.050,-0.015
3767,-0.050,-0.010
3768,-0.050,-0.010
3769,-0.055,-0.010
3770,-0.050,-0.005
3771,-0.045,-0.005
3772,-0.050,-0.005
3773,-0.050,-0.010
3774,-0.045,-0.010
3775,-0.050,-0.015
3776,-0.050,-0.015
3777,-0.050,-0.020
3778,-0.050,-0.020
3779,-0.050,-0.020
3780,-0.045,-0.020
3781,-0.040,-0.020
3782,-0.045,-0.020
3783,-0.050,-0.025
3784,-0.050,-0.020
3785,-0.045,-0.020
3786,-0.045,-0.020
3787,-0.045,-0.015
3788,-0.040,-0.010
3789,-0.040,-0.010
3790,-0.035,-0.010
3791,-0.030,-0.005
3792,-0.020,0.000
3793,-0.015,0.010
3794,-0.005,0.020
3795,0.000,0.030
3796,0.010,0.045
3797,0.025,0.055
3798,0.025,0.065
3799,0.030,0.075
3800,0.030,0.075
3801,0.035,0.080
3802,0.040,0.080
3803,0.050,0.090
3804,0.055,0.090
3805,0.045,0.085
3806,0.035,0.080
3807,0.030,0.070
3808,0.015,0.065
3809,0.010,0.055
3810,0.005,0.050
3811,0.005,0.045
3812,0.000,0.040
3813,0.000,0.035
3814,-0.015,0.030
3815,-0.020,0.025
3816,-0.020,0.020
3817,-0.020,0.020
3818,-0.020,0.015
3819,-0.020,0.010
3820,-0.015,0.015
3821,-0.015,0.015
3822,-0.020,0.015
3823,-0.020,0.015
3824,-0.020,0.010
3825,-0.020,0.015
3826,-0.020,0.015
3827,-0.015,0.010
3828,-0.020,0.010
3829,-0.015,0.015
3830,-0.015,0.020
3831,-0.015,0.015
3832,-0.015,0.020
3833,-0.010,0.020
3834,0.000,0.025
3835,0.010,0.035
3836,0.025,0.045
3837,0.040,0.065
3838,0.065,0.080
3839,0.095,0.105
3840,0.145,0.140
3841,0.220,0.210
3842,0.335,0.315
3843,0.455,0.440
3844,0.560,0.565
3845,0.610,0.640
3846,0.615,0.675
3847,0.570,0.640
3848,0.490,0.570
3849,0.405,0.475
3850,0.335,0.395
3851,0.290,0.340
3852,0.225,0.280
3853,0.160,0.210
3854,0.100,0.145
3855,0.055,0.090
3856,0.035,0.055
3857,0.010,0.040
3858,0.005,0.025
3859,-0.005,0.020
3860,-0.010,0.010
3861,-0.020,0.000
3862,-0.025,0.000
3863,-0.025,-0.005
3864,-0.035,-0.010
3865,-0.040,-0.015
3866,-0.040,-0.015
3867,-0.040,-0.020
3868,-0.040,-0.020
3869,-0.035,-0.025
3870,-0.035,-0.020
3871,-0.035,-0.020
3872,-0.035,-0.020
3873,-0.035,-0.020
3874,-0.030,-0.020
3875,-0.030,-0.025
3876,-0.035,-0.020
3877,-0.030,-0.020
3878,-0.030,-0.020
3879,-0.030,-0.020
3880,-0.030,-0.025
3881,-0.030,-0.020
3882,-0.030,-0.025
3883,-0.025,-0.030
3884,-0.020,-0.030
3885,-0.020,-0.030
3886,-0.015,-0.030
3887,-0.015,-0.030
3888,-0.015,-0.030
3889,-0.015,-0.035
3890,-0.015,-0.030
3891,-0.015,-0.030
3892,-0.010,-0.025
3893,-0.010,-0.020
3894,-0.005,-0.020
3895,-0.005,-0.010
3896,-0.005,-0.010
3897,0.000,-0.005
3898,0.000,-0.005
3899,0.000,0.000
3900,0.005,0.005
3901,0.010,0.010
3902,0.020,0.020
3903,0.030,0.025
3904,0.030,0.030
3905,0.035,0.035
3906,0.045,0.045
3907,0.050,0.055
3908,0.065,0.060
3909,0.070,0.065
3910,0.085,0.075
3911,0.090,0.085
3912,0.105,0.100
3913,0.115,0.110
3914,0.125,0.115
3915,0.135,0.120
3916,0.140,0.130
3917,0.155,0.140
3918,0.160,0.150
3919,0.165,0.160
3920,0.165,0.160
3921,0.165,0.160
3922,0.160,0.155
3923,0.155,0.150
3924,0.155,0.145
3925,0.145,0.140
3926,0.135,0.130
3927,0.125,0.120
3928,0.115,0.105
3929,0.100,0.095
3930,0.090,0.080
3931,0.080,0.070
3932,0.065,0.060
3933,0.060,0.055
3934,0.050,0.045
3935,0.040,0.040
3936,0.035,0.030
3937,0.025,0.025
3938,0.025,0.020
3939,0.015,0.010
3940,0.010,0.010
3941,0.005,0.005
3942,0.005,0.005
3943,0.000,0.000
3944,0.000,0.000
3945,0.000,0.000
3946,0.000,0.000
3947,0.000,0.000
3948,-0.005,0.000
3949,-0.005,-0.005
3950,-0.005,-0.010
3951,-0.005,-0.010
3952,0.000,-0.015
3953,0.000,-0.020
3954,0.000,-0.020
3955,-0.005,-0.020
3956,-0.005,-0.020
3957,-0.005,-0.025
3958,-0.005,-0.020
3959,-0.005,-0.020
3960,-0.005,-0.015
3961,0.000,-0.020
3962,0.000,-0.020
3963,0.000,-0.020
3964,-0.005,-0.020
3965,-0.005,-0.025
3966,-0.005,-0.025
3967,-0.005,-0.025
3968,-0.005,-0.025
3969,-0.005,-0.020
3970,-0.005,-0.020
3971,-0.010,-0.025
3972,-0.010,-0.025
3973,-0.010,-0.030
3974,-0.015,-0.030
3975,-0.020,-0.030
3976,-0.015,-0.030
3977,-0.015,-0.030
3978,-0.020,-0.030
3979,-0.020,-0.030
3980,-0.030,-0.035
3981,-0.025,-0.035
3982,-0.025,-0.035
3983,-0.020,-0.035
3984,-0.025,-0.035
3985,-0.020,-0.040
3986,-0.020,-0.040
3987,-0.020,-0.045
3988,-0.025,-0.040
3989,-0.025,-0.045
3990,-0.020,-0.045
3991,-0.025,-0.045
3992,-0.025,-0.045
3993,-0.025,-0.040
3994,-0.025,-0.040
3995,-0.025,-0.035
3996,-0.025,-0.040
3997,-0.020,-0.040
3998,-0.025,-0.040
3999,-0.025,-0.040
4000,-0.025,-0.040
4001,-0.025,-0.040
4002,-0.025,-0.035
4003,-0.025,-0.035
4004,-0.030,-0.035
4005,-0.030,-0.035
4006,-0.025,-0.040
4007,-0.030,-0.045
4008,-0.030,-0.045
4009,-0.030,-0.045
4010,-0.030,-0.045
4011,-0.030,-0.045
4012,-0.035,-0.050
4013,-0.030,-0.050
4014,-0.030,-0.050
4015,-0.035,-0.050
4016,-0.035,-0.050
4017,-0.030,-0.050
4018,-0.030,-0.050
4019,-0.030,-0.050
4020,-0.025,-0.050
4021,-0.030,-0.050
4022,-0.030,-0.050
4023,-0.035,-0.045
4024,-0.030,-0.045
4025,-0.025,-0.045
4026,-0.020,-0.040
4027,-0.010,-0.030
4028,0.000,-0.020
4029,0.005,-0.015
4030,0.010,-0.010
4031,0.020,0.000
4032,0.025,0.000
4033,0.025,0.005
4034,0.030,0.010
4035,0.040,0.020
4036,0.050,0.025
4037,0.050,0.030
4038,0.050,0.035
4039,0.045,0.030
4040,0.040,0.025
4041,0.030,0.015
4042,0.025,0.010
4043,0.020,0.005
4044,0.020,0.005
4045,0.015,0.005
4046,0.015,0.000
4047,0.010,0.000
4048,0.005,-0.005
4049,0.000,-0.010
4050,0.000,-0.015
4051,-0.005,-0.020
4052,-0.005,-0.020
4053,-0.010,-0.020
4054,-0.015,-0.020
4055,-0.015,-0.025
4056,-0.015,-0.030
4057,-0.020,-0.025
4058,-0.015,-0.020
4059,-0.020,-0.020
4060,-0.020,-0.020
4061,-0.025,-0.020
4062,-0.025,-0.020
4063,-0.025,-0.020
4064,-0.025,-0.020
4065,-0.020,-0.020
4066,-0.020,-0.015
4067,-0.020,-0.015
4068,-0.015,-0.010
4069,-0.005,0.000
4070,0.005,0.010
4071,0.020,0.020
4072,0.045,0.040
4073,0.065,0.060
4074,0.100,0.090
4075,0.150,0.140
4076,0.245,0.230
4077,0.350,0.345
4078,0.475,0.485
4079,0.565,0.595
4080,0.610,0.665
4081,0.615,0.680
4082,0.565,0.650
4083,0.490,0.575
4084,0.395,0.470
4085,0.330,0.385
4086,0.270,0.315
4087,0.210,0.245
4088,0.145,0.175
4089,0.085,0.110
4090,0.040,0.060
4091,0.005,0.015
4092,-0.010,-0.005
4093,-0.020,-0.015
4094,-0.030,-0.025
4095,-0.035,-0.035
4096,-0.050,-0.050
4097,-0.055,-0.055
4098,-0.060,-0.060
4099,-0.065,-0.060
4100,-0.070,-0.065
4101,-0.075,-0.070
4102,-0.075,-0.065
4103,-0.075,-0.075
4104,-0.080,-0.080
4105,-0.085,-0.085
4106,-0.085,-0.080
4107,-0.080,-0.085
4108,-0.085,-0.085
4109,-0.085,-0.080
4110,-0.080,-0.080
4111,-0.075,-0.080
4112,-0.080,-0.080
4113,-0.080,-0.080
4114,-0.080,-0.080
4115,-0.080,-0.075
4116,-0.075,-0.075
4117,-0.075,-0.080
4118,-0.070,-0.075
4119,-0.070,-0.075
4120,-0.070,-0.070
4121,-0.070,-0.070
4122,-0.070,-0.070
4123,-0.065,-0.075
4124,-0.060,-0.070
4125,-0.060,-0.070
4126,-0.060,-0.070
4127,-0.060,-0.065
4128,-0.060,-0.060
4129,-0.060,-0.055
4130,-0.060,-0.055
4131,-0.055,-0.050
4132,-0.055,-0.045
4133,-0.050,-0.045
4134,-0.050,-0.040
4135,-0.045,-0.040
4136,-0.045,-0.035
4137,-0.045,-0.035
4138,-0.040,-0.030
4139,-0.035,-0.025
4140,-0.025,-0.020
4141,-0.020,-0.010
4142,-0.010,-0.005
4143,0.000,0.005
4144,0.005,0.015
4145,0.010,0.020
4146,0.020,0.035
4147,0.035,0.045
4148,0.040,0.055
4149,0.050,0.065
4150,0.060,0.075
4151,0.075,0.090
4152,0.080,0.100
4153,0.090,0.110
4154,0.095,0.120
4155,0.095,0.130
4156,0.100,0.135
4157,0.100,0.140
4158,0.105,0.145
4159,0.100,0.140
4160,0.095,0.135
4161,0.085,0.125
4162,0.075,0.115
4163,0.070,0.110
4164,0.060,0.100
4165,0.050,0.090
4166,0.040,0.075
4167,0.030,0.070
4168,0.020,0.060
4169,0.015,0.055
4170,0.005,0.045
4171,-0.005,0.030
4172,-0.010,0.025
4173,-0.015,0.020
4174,-0.025,0.015
4175,-0.030,0.005
4176,-0.035,0.005
4177,-0.035,0.005
4178,-0.040,0.000
4179,-0.045,-0.005
4180,-0.045,-0.010
4181,-0.045,-0.010
4182,-0.045,-0.015
4183,-0.045,-0.015
4184,-0.045,-0.015
4185,-0.045,-0.015
4186,-0.045,-0.015
4187,-0.050,-0.020
4188,-0.055,-0.015
4189,-0.055,-0.020
4190,-0.055,-0.020
4191,-0.060,-0.020
4192,-0.060,-0.015
4193,-0.060,-0.015
4194,-0.060,-0.015
4195,-0.065,-0.015
4196,-0.065,-0.015
4197,-0.060,-0.015
4198,-0.060,-0.015
4199,-0.055,-0.015
4200,-0.060,-0.015
4201,-0.060,-0.020
4202,-0.065,-0.020
4203,-0.065,-0.025
4204,-0.065,-0.020
4205,-0.070,-0.025
4206,-0.070,-0.025
4207,-0.075,-0.025
4208,-0.070,-0.020
4209,-0.070,-0.025
4210,-0.075,-0.025
4211,-0.080,-0.025
4212,-0.080,-0.025
4213,-0.080,-0.025
4214,-0.080,-0.030
4215,-0.085,-0.030
4216,-0.085,-0.030
4217,-0.085,-0.030
4218,-0.080,-0.025
4219,-0.085,-0.030
4220,-0.085,-0.030
4221,-0.090,-0.035
4222,-0.085,-0.035
4223,-0.095,-0.035
4224,-0.095,-0.040
4225,-0.095,-0.040
4226,-0.095,-0.040
4227,-0.095,-0.040
4228,-0.095,-0.040
4229,-0.100,-0.040
4230,-0.105,-0.035
4231,-0.105,-0.035
4232,-0.105,-0.040
4233,-0.110,-0.040
4234,-0.105,-0.040
4235,-0.110,-0.040
4236,-0.110,-0.040
4237,-0.115,-0.040
4238,-0.115,-0.040
4239,-0.115,-0.040
4240,-0.115,-0.035
4241,-0.110,-0.040
4242,-0.110,-0.040
4243,-0.105,-0.040
4244,-0.105,-0.045
4245,-0.105,-0.045
4246,-0.110,-0.050
4247,-0.105,-0.050
4248,-0.110,-0.050
4249,-0.110,-0.055
4250,-0.110,-0.055
4251,-0.110,-0.050
4252,-0.105,-0.050
4253,-0.110,-0.055
4254,-0.110,-0.055
4255,-0.115,-0.060
4256,-0.115,-0.055
4257,-0.115,-0.060
4258,-0.115,-0.060
4259,-0.115,-0.060
4260,-0.115,-0.060
4261,-0.115,-0.055
4262,-0.115,-0.055
4263,-0.115,-0.055
4264,-0.110,-0.055
4265,-0.110,-0.060
4266,-0.105,-0.060
4267,-0.100,-0.055
4268,-0.100,-0.050
4269,-0.100,-0.045
4270,-0.090,-0.040
4271,-0.085,-0.040
4272,-0.080,-0.030
4273,-0.070,-0.020
4274,-0.065,-0.010
4275,-0.060,0.000
4276,-0.055,0.000
4277,-0.050,0.010
4278,-0.040,0.015
4279,-0.030,0.025
4280,-0.025,0.035
4281,-0.020,0.040
4282,-0.020,0.045
4283,-0.015,0.050
4284,-0.015,0.050
4285,-0.025,0.050
4286,-0.035,0.040
4287,-0.045,0.025
4288,-0.055,0.015
4289,-0.060,0.010
4290,-0.065,0.005
4291,-0.070,0.000
4292,-0.075,0.000
4293,-0.080,-0.005
4294,-0.090,-0.010
4295,-0.095,-0.020
4296,-0.100,-0.025
4297,-0.095,-0.025
4298,-0.100,-0.025
4299,-0.105,-0.030
4300,-0.110,-0.035
4301,-0.110,-0.035
4302,-0.110,-0.035
4303,-0.110,-0.035
4304,-0.105,-0.035
4305,-0.110,-0.035
4306,-0.110,-0.040
4307,-0.110,-0.040
4308,-0.110,-0.040
4309,-0.105,-0.040
4310,-0.105,-0.040
4311,-0.100,-0.040
4312,-0.100,-0.045
4313,-0.100,-0.040
4314,-0.095,-0.040
4315,-0.090,-0.030
4316,-0.080,-0.025
4317,-0.065,-0.010
4318,-0.050,0.000
4319,-0.030,0.020
4320,0.000,0.050
4321,0.030,0.090
4322,0.090,0.150
4323,0.180,0.250
4324,0.295,0.385
4325,0.400,0.510
4326,0.490,0.625
4327,0.520,0.665
4328,0.515,0.675
4329,0.455,0.615
4330,0.360,0.525
4331,0.285,0.430
4332,0.225,0.350
4333,0.180,0.290
4334,0.105,0.215
4335,0.040,0.140
4336,-0.015,0.070
4337,-0.055,0.020
4338,-0.080,-0.005
4339,-0.090,-0.025
4340,-0.100,-0.035
4341,-0.105,-0.040
4342,-0.110,-0.050
4343,-0.120,-0.055
4344,-0.125,-0.060
4345,-0.130,-0.060
4346,-0.140,-0.070
4347,-0.140,-0.070
4348,-0.145,-0.075
4349,-0.140,-0.075
4350,-0.140,-0.075
4351,-0.140,-0.075
4352,-0.140,-0.075
4353,-0.140,-0.075
4354,-0.140,-0.080
4355,-0.145,-0.080
4356,-0.140,-0.075
4357,-0.145,-0.075
4358,-0.150,-0.080
4359,-0.145,-0.075
4360,-0.145,-0.070
4361,-0.145,-0.070
4362,-0.150,-0.070
4363,-0.155,-0.070
4364,-0.155,-0.070
4365,-0.155,-0.070
4366,-0.155,-0.070
4367,-0.160,-0.070
4368,-0.155,-0.070
4369,-0.160,-0.065
4370,-0.160,-0.065
4371,-0.165,-0.070
4372,-0.160,-0.070
4373,-0.160,-0.065
4374,-0.160,-0.065
4375,-0.155,-0.065
4376,-0.155,-0.070
4377,-0.145,-0.070
4378,-0.145,-0.070
4379,-0.135,-0.075
4380,-0.135,-0.075
4381,-0.135,-0.075
4382,-0.125,-0.070
4383,-0.120,-0.070
4384,-0.110,-0.060
4385,-0.100,-0.050
4386,-0.090,-0.040
4387,-0.085,-0.030
4388,-0.080,-0.025
4389,-0.070,-0.015
4390,-0.060,0.000
4391,-0.050,0.010
4392,-0.040,0.020
4393,-0.030,0.035
4394,-0.015,0.050
4395,-0.005,0.060
4396,0.000,0.075
4397,0.010,0.090
4398,0.020,0.100
4399,0.035,0.110
4400,0.045,0.120
4401,0.055,0.135
4402,0.060,0.145
4403,0.065,0.155
4404,0.060,0.155
4405,0.060,0.155
4406,0.060,0.150
4407,0.055,0.140
4408,0.050,0.130
4409,0.040,0.115
4410,0.030,0.110
4411,0.020,0.100
4412,0.010,0.095
4413,0.000,0.080
4414,-0.005,0.070
4415,-0.015,0.060
4416,-0.025,0.050
4417,-0.035,0.040
4418,-0.040,0.035
4419,-0.045,0.030
4420,-0.055,0.020
4421,-0.060,0.010
4422,-0.070,0.005
4423,-0.070,0.000
4424,-0.075,-0.005
4425,-0.075,-0.005
4426,-0.080,-0.005
4427,-0.085,-0.010
4428,-0.090,-0.015
4429,-0.095,-0.020
4430,-0.095,-0.020
4431,-0.090,-0.025
4432,-0.095,-0.025
4433,-0.095,-0.030
4434,-0.100,-0.030
4435,-0.100,-0.030
4436,-0.100,-0.030
4437,-0.105,-0.035
4438,-0.105,-0.035
4439,-0.110,-0.035
4440,-0.110,-0.035
4441,-0.110,-0.035
4442,-0.110,-0.040
4443,-0.110,-0.040
4444,-0.110,-0.040
4445,-0.110,-0.040
4446,-0.110,-0.040
4447,-0.115,-0.045
4448,-0.115,-0.045
4449,-0.120,-0.045
4450,-0.115,-0.055
4451,-0.115,-0.055
4452,-0.115,-0.060
4453,-0.120,-0.060
4454,-0.120,-0.060
4455,-0.125,-0.065
4456,-0.125,-0.065
4457,-0.120,-0.065
4458,-0.120,-0.070
4459,-0.120,-0.070
4460,-0.125,-0.070
4461,-0.120,-0.075
4462,-0.130,-0.080
4463,-0.130,-0.080
4464,-0.130,-0.085
4465,-0.130,-0.080
4466,-0.130,-0.080
4467,-0.130,-0.085
4468,-0.130,-0.080
4469,-0.135,-0.080
4470,-0.135,-0.080
4471,-0.140,-0.085
4472,-0.140,-0.085
4473,-0.135,-0.085
4474,-0.135,-0.085
4475,-0.135,-0.085
4476,-0.135,-0.085
4477,-0.135,-0.085
4478,-0.140,-0.085
4479,-0.140,-0.085
4480,-0.145,-0.090
4481,-0.145,-0.090
4482,-0.145,-0.090
4483,-0.145,-0.085
4484,-0.145,-0.080
4485,-0.150,-0.080
4486,-0.145,-0.080
4487,-0.145,-0.085
4488,-0.145,-0.085
4489,-0.140,-0.085
4490,-0.140,-0.085
4491,-0.140,-0.090
4492,-0.140,-0.090
4493,-0.140,-0.085
4494,-0.140,-0.090
4495,-0.145,-0.090
4496,-0.140,-0.090
4497,-0.140,-0.085
4498,-0.135,-0.085
4499,-0.135,-0.085
4500,-0.130,-0.080
4501,-0.125,-0.080
4502,-0.125,-0.075
4503,-0.125,-0.070
4504,-0.130,-0.070
4505,-0.125,-0.070
4506,-0.120,-0.065
4507,-0.120,-0.060
4508,-0.110,-0.050
4509,-0.100,-0.040
4510,-0.090,-0.025
4511,-0.080,-0.015
4512,-0.070,-0.005
4513,-0.060,0.000
4514,-0.055,0.010
4515,-0.055,0.015
4516,-0.055,0.020
4517,-0.045,0.030
4518,-0.040,0.040
4519,-0.040,0.040
4520,-0.045,0.035
4521,-0.055,0.025
4522,-0.065,0.015
4523,-0.075,0.005
4524,-0.085,0.000
4525,-0.090,-0.005
4526,-0.095,-0.005
4527,-0.100,-0.005
4528,-0.110,-0.010
4529,-0.110,-0.020
4530,-0.120,-0.030
4531,-0.120,-0.030
4532,-0.120,-0.035
4533,-0.125,-0.035
4534,-0.125,-0.035
4535,-0.125,-0.035
4536,-0.120,-0.035
4537,-0.125,-0.035
4538,-0.125,-0.035
4539,-0.125,-0.040
4540,-0.125,-0.040
4541,-0.120,-0.040
4542,-0.115,-0.040
4543,-0.110,-0.040
4544,-0.115,-0.040
4545,-0.115,-0.040
4546,-0.115,-0.040
4547,-0.115,-0.035
4548,-0.110,-0.035
4549,-0.105,-0.035
4550,-0.095,-0.025
4551,-0.090,-0.015
4552,-0.080,0.000
4553,-0.065,0.015
4554,-0.045,0.040
4555,-0.020,0.070
4556,0.015,0.105
4557,0.080,0.170
4558,0.175,0.270
4559,0.295,0.395
4560,0.405,0.530
4561,0.475,0.615
4562,0.495,0.660
4563,0.460,0.625
4564,0.390,0.560
4565,0.305,0.460
4566,0.230,0.375
4567,0.185,0.325
4568,0.130,0.260
4569,0.065,0.195
4570,0.000,0.120
4571,-0.045,0.060
4572,-0.075,0.025
4573,-0.090,0.005
4574,-0.100,-0.005
4575,-0.115,-0.015
4576,-0.125,-0.020
4577,-0.130,-0.030
4578,-0.140,-0.035
4579,-0.145,-0.040
4580,-0.145,-0.045
4581,-0.145,-0.045
4582,-0.150,-0.045
4583,-0.145,-0.045
4584,-0.145,-0.040
4585,-0.145,-0.040
4586,-0.145,-0.040
4587,-0.150,-0.040
4588,-0.145,-0.040
4589,-0.145,-0.040
4590,-0.150,-0.035
4591,-0.145,-0.035
4592,-0.145,-0.035
4593,-0.145,-0.035
4594,-0.145,-0.035
4595,-0.145,-0.035
4596,-0.145,-0.035
4597,-0.145,-0.040
4598,-0.150,-0.040
4599,-0.150,-0.035
4600,-0.145,-0.035
4601,-0.150,-0.035
4602,-0.150,-0.030
4603,-0.150,-0.025
4604,-0.145,-0.025
4605,-0.150,-0.020
4606,-0.150,-0.020
4607,-0.145,-0.020
4608,-0.145,-0.015
4609,-0.145,-0.015
4610,-0.145,-0.015
4611,-0.140,-0.015
4612,-0.140,-0.015
4613,-0.135,-0.010
4614,-0.135,-0.010
4615,-0.135,-0.005
4616,-0.130,0.000
4617,-0.125,0.000
4618,-0.115,0.005
4619,-0.115,0.010
4620,-0.110,0.015
4621,-0.105,0.020
4622,-0.100,0.030
4623,-0.090,0.030
4624,-0.085,0.035
4625,-0.075,0.045
4626,-0.065,0.055
4627,-0.055,0.065
4628,-0.050,0.075
4629,-0.040,0.085
4630,-0.030,0.095
4631,-0.015,0.110
4632,-0.005,0.125
4633,0.000,0.135
4634,0.005,0.150
4635,0.015,0.160
4636,0.020,0.170
4637,0.020,0.175
4638,0.020,0.175
4639,0.020,0.175
4640,0.020,0.170
4641,0.010,0.165
4642,0.005,0.160
4643,0.000,0.150
4644,-0.005,0.145
4645,-0.020,0.130
4646,-0.025,0.120
4647,-0.035,0.105
4648,-0.050,0.095
4649,-0.060,0.085
4650,-0.065,0.075
4651,-0.075,0.065
4652,-0.080,0.060
4653,-0.090,0.055
4654,-0.095,0.050
4655,-0.100,0.040
4656,-0.105,0.035
4657,-0.115,0.030
4658,-0.120,0.025
4659,-0.120,0.020
4660,-0.125,0.015
4661,-0.135,0.015
4662,-0.135,0.010
4663,-0.135,0.010
4664,-0.140,0.005
4665,-0.140,0.005
4666,-0.140,0.000
4667,-0.145,0.000
4668,-0.145,0.000
4669,-0.145,0.000
4670,-0.145,0.000
4671,-0.150,0.000
4672,-0.150,0.000
4673,-0.150,-0.005
4674,-0.150,0.000
4675,-0.150,0.000
4676,-0.150,0.000
4677,-0.150,0.000
4678,-0.150,0.000
4679,-0.155,0.000
4680,-0.155,0.000
4681,-0.160,0.000
4682,-0.160,0.000
4683,-0.160,0.000
4684,-0.160,0.000
4685,-0.165,0.000
4686,-0.165,0.000
4687,-0.165,0.000
4688,-0.170,0.000
4689,-0.170,0.000
4690,-0.175,-0.005
4691,-0.175,-0.005
4692,-0.170,-0.005
4693,-0.170,-0.005
4694,-0.175,-0.005
4695,-0.175,-0.005
4696,-0.175,-0.005
4697,-0.180,-0.005
4698,-0.180,-0.005
4699,-0.180,-0.010
4700,-0.185,-0.010
4701,-0.185,-0.010
4702,-0.190,-0.010
4703,-0.190,-0.010
4704,-0.190,-0.015
4705,-0.185,-0.015
4706,-0.190,-0.020
4707,-0.185,-0.020
4708,-0.190,-0.020
4709,-0.190,-0.020
4710,-0.190,-0.015
4711,-0.190,-0.015
4712,-0.195,-0.020
4713,-0.200,-0.020
4714,-0.195,-0.020
4715,-0.195,-0.020
4716,-0.200,-0.015
4717,-0.200,-0.015
4718,-0.195,-0.010
4719,-0.200,-0.010
4720,-0.195,-0.010
4721,-0.200,-0.010
4722,-0.195,-0.010
4723,-0.195,-0.010
4724,-0.200,-0.010
4725,-0.200,-0.005
4726,-0.200,-0.010
4727,-0.200,-0.010
4728,-0.200,-0.010
4729,-0.200,-0.010
4730,-0.205,-0.015
4731,-0.205,-0.015
4732,-0.200,-0.010
4733,-0.200,-0.015
4734,-0.195,-0.015
4735,-0.195,-0.015
4736,-0.200,-0.015
4737,-0.200,-0.020
4738,-0.200,-0.020
4739,-0.200,-0.020
4740,-0.200,-0.020
4741,-0.195,-0.020
4742,-0.190,-0.010
4743,-0.185,0.000
4744,-0.180,0.005
4745,-0.170,0.015
4746,-0.165,0.025
4747,-0.160,0.025
4748,-0.150,0.030
4749,-0.150,0.035
4750,-0.145,0.040
4751,-0.140,0.050
4752,-0.125,0.055
4753,-0.125,0.060
4754,-0.130,0.055
4755,-0.140,0.045
4756,-0.145,0.040
4757,-0.155,0.030
4758,-0.160,0.025
4759,-0.165,0.020
4760,-0.165,0.020
4761,-0.170,0.015
4762,-0.175,0.015
4763,-0.180,0.010
4764,-0.185,0.005
4765,-0.190,0.000
4766,-0.190,0.000
4767,-0.185,0.000
4768,-0.185,0.000
4769,-0.190,0.000
4770,-0.190,0.000
4771,-0.190,0.000
4772,-0.190,0.000
4773,-0.185,0.000
4774,-0.185,0.000
4775,-0.185,0.000
4776,-0.185,0.000
4777,-0.180,0.005
4778,-0.185,0.005
4779,-0.180,0.005
4780,-0.180,0.005
4781,-0.180,0.010
4782,-0.175,0.010
4783,-0.175,0.015
4784,-0.170,0.020
4785,-0.160,0.035
4786,-0.145,0.050
4787,-0.130,0.065
4788,-0.115,0.085
4789,-0.090,0.110
4790,-0.050,0.145
4791,0.000,0.210
4792,0.090,0.315
4793,0.195,0.440
4794,0.300,0.575
4795,0.380,0.675
4796,0.410,0.725
4797,0.410,0.715
4798,0.355,0.665
4799,0.270,0.575
4800,0.195,0.485
4801,0.140,0.420
4802,0.085,0.355
4803,0.020,0.285
4804,-0.040,0.200
4805,-0.095,0.130
4806,-0.135,0.075
4807,-0.160,0.040
4808,-0.175,0.025
4809,-0.180,0.015
4810,-0.190,0.005
4811,-0.200,-0.005
4812,-0.210,-0.010
4813,-0.215,-0.020
4814,-0.225,-0.030
4815,-0.235,-0.030
4816,-0.230,-0.035
4817,-0.235,-0.035
4818,-0.235,-0.040
4819,-0.240,-0.045
4820,-0.240,-0.045
4821,-0.240,-0.050
4822,-0.245,-0.050
4823,-0.245,-0.050
4824,-0.245,-0.050
4825,-0.245,-0.050
4826,-0.240,-0.055
4827,-0.240,-0.055
4828,-0.245,-0.060
4829,-0.245,-0.060
4830,-0.245,-0.060
4831,-0.245,-0.060
4832,-0.240,-0.055
4833,-0.245,-0.055
4834,-0.240,-0.050
4835,-0.240,-0.045
4836,-0.240,-0.045
4837,-0.240,-0.050
4838,-0.235,-0.050
4839,-0.230,-0.050
4840,-0.235,-0.045
4841,-0.235,-0.045
4842,-0.235,-0.040
4843,-0.230,-0.035
4844,-0.230,-0.035
4845,-0.230,-0.035
4846,-0.230,-0.035
4847,-0.225,-0.035
4848,-0.225,-0.030
4849,-0.220,-0.025
4850,-0.215,-0.020
4851,-0.215,-0.015
4852,-0.205,-0.010
4853,-0.200,-0.005
4854,-0.195,-0.005
4855,-0.190,0.000
4856,-0.180,0.005
4857,-0.170,0.015
4858,-0.165,0.025
4859,-0.155,0.035
4860,-0.150,0.045
4861,-0.140,0.055
4862,-0.135,0.060
4863,-0.120,0.075
4864,-0.110,0.085
4865,-0.095,0.095
4866,-0.090,0.110
4867,-0.080,0.130
4868,-0.070,0.140
4869,-0.055,0.150
4870,-0.055,0.160
4871,-0.050,0.165
4872,-0.040,0.170
4873,-0.045,0.170
4874,-0.050,0.170
4875,-0.055,0.165
4876,-0.060,0.160
4877,-0.070,0.150
4878,-0.080,0.140
4879,-0.085,0.130
4880,-0.100,0.115
4881,-0.110,0.105
4882,-0.120,0.095
4883,-0.125,0.085
4884,-0.135,0.075
4885,-0.145,0.065
4886,-0.155,0.060
4887,-0.160,0.050
4888,-0.165,0.045
4889,-0.175,0.035
4890,-0.180,0.030
4891,-0.180,0.025
4892,-0.185,0.025
4893,-0.185,0.020
4894,-0.190,0.015
4895,-0.190,0.010
4896,-0.195,0.005
4897,-0.195,0.005
4898,-0.200,0.000
4899,-0.200,0.000
4900,-0.200,0.000
4901,-0.205,0.000
4902,-0.200,0.000
4903,-0.210,0.000
4904,-0.210,-0.005
4905,-0.205,-0.005
4906,-0.210,-0.005
4907,-0.205,-0.010
4908,-0.210,-0.010
4909,-0.205,-0.010
4910,-0.210,-0.010
4911,-0.215,-0.010
4912,-0.220,-0.015
4913,-0.220,-0.015
4914,-0.215,-0.020
4915,-0.220,-0.025
4916,-0.220,-0.025
4917,-0.220,-0.020
4918,-0.215,-0.020
4919,-0.220,-0.020
4920,-0.215,-0.025
4921,-0.215,-0.025
4922,-0.215,-0.030
4923,-0.215,-0.030
4924,-0.215,-0.035
4925,-0.215,-0.030
4926,-0.215,-0.030
4927,-0.220,-0.035
4928,-0.220,-0.035
4929,-0.225,-0.035
4930,-0.225,-0.040
4931,-0.220,-0.040
4932,-0.225,-0.040
4933,-0.225,-0.040
4934,-0.225,-0.040
4935,-0.225,-0.040
4936,-0.225,-0.045
4937,-0.225,-0.045
4938,-0.225,-0.045
4939,-0.225,-0.045
4940,-0.225,-0.045
4941,-0.225,-0.045
4942,-0.230,-0.045
4943,-0.230,-0.045
4944,-0.230,-0.050
4945,-0.230,-0.055
4946,-0.230,-0.060
4947,-0.230,-0.060
4948,-0.235,-0.060
4949,-0.235,-0.060
4950,-0.235,-0.060
4951,-0.240,-0.060
4952,-0.235,-0.060
4953,-0.240,-0.060
4954,-0.230,-0.060
4955,-0.235,-0.060
4956,-0.235,-0.060
4957,-0.235,-0.060
4958,-0.240,-0.060
4959,-0.235,-0.060
4960,-0.240,-0.065
4961,-0.235,-0.065
4962,-0.240,-0.065
4963,-0.240,-0.065
4964,-0.240,-0.070
4965,-0.240,-0.070
4966,-0.235,-0.065
4967,-0.235,-0.065
4968,-0.235,-0.070
4969,-0.240,-0.070
4970,-0.240,-0.075
4971,-0.240,-0.075
4972,-0.240,-0.070
4973,-0.235,-0.075
4974,-0.240,-0.075
4975,-0.240,-0.070
4976,-0.240,-0.075
4977,-0.240,-0.075
4978,-0.245,-0.080
4979,-0.245,-0.075
4980,-0.240,-0.075
4981,-0.240,-0.080
4982,-0.240,-0.080
4983,-0.240,-0.080
4984,-0.240,-0.075
4985,-0.240,-0.080
4986,-0.245,-0.080
4987,-0.245,-0.085
4988,-0.240,-0.080
4989,-0.235,-0.080
4990,-0.235,-0.080
4991,-0.235,-0.080
4992,-0.235,-0.080
4993,-0.235,-0.080
4994,-0.235,-0.085
4995,-0.235,-0.080
4996,-0.230,-0.080
4997,-0.230,-0.075
4998,-0.220,-0.065
4999,-0.215,-0.055
5000,-0.210,-0.045
5001,-0.205,-0.035
5002,-0.200,-0.030
5003,-0.195,-0.025
5004,-0.195,-0.015
5005,-0.185,-0.005
5006,-0.170,0.000
5007,-0.170,0.010
5008,-0.160,0.020
5009,-0.160,0.025
5010,-0.160,0.030
5011,-0.165,0.025
5012,-0.170,0.015
5013,-0.175,0.010
5014,-0.185,0.000
5015,-0.190,-0.005
5016,-0.195,-0.005
5017,-0.195,-0.005
5018,-0.195,-0.010
5019,-0.200,-0.015
5020,-0.205,-0.020
5021,-0.210,-0.025
5022,-0.215,-0.030
5023,-0.220,-0.035
5024,-0.220,-0.030
5025,-0.220,-0.035
5026,-0.225,-0.040
5027,-0.225,-0.040
5028,-0.225,-0.040
5029,-0.220,-0.040
5030,-0.225,-0.040
5031,-0.225,-0.040
5032,-0.225,-0.040
5033,-0.225,-0.040
5034,-0.225,-0.035
5035,-0.230,-0.040
5036,-0.225,-0.045
5037,-0.230,-0.045
5038,-0.225,-0.040
5039,-0.220,-0.040
5040,-0.215,-0.035
5041,-0.205,-0.025
5042,-0.195,-0.010
5043,-0.185,0.000
5044,-0.170,0.015
5045,-0.150,0.035
5046,-0.125,0.070
5047,-0.090,0.120
5048,-0.020,0.195
5049,0.065,0.315
5050,0.170,0.445
5051,0.265,0.580
5052,0.315,0.645
5053,0.325,0.680
5054,0.300,0.645
5055,0.240,0.575
5056,0.165,0.485
5057,0.100,0.395
5058,0.060,0.335
5059,0.000,0.260
5060,-0.060,0.185
5061,-0.130,0.105
5062,-0.180,0.040
5063,-0.210,0.000
5064,-0.225,-0.020
5065,-0.235,-0.035
5066,-0.245,-0.050
5067,-0.255,-0.060
5068,-0.255,-0.070
5069,-0.265,-0.075
5070,-0.265,-0.080
5071,-0.265,-0.090
5072,-0.270,-0.095
5073,-0.275,-0.100
5074,-0.275,-0.100
5075,-0.280,-0.100
5076,-0.280,-0.095
5077,-0.280,-0.095
5078,-0.285,-0.100
5079,-0.285,-0.100
5080,-0.285,-0.105
5081,-0.285,-0.105
5082,-0.285,-0.105
5083,-0.285,-0.100
5084,-0.285,-0.100
5085,-0.285,-0.105
5086,-0.285,-0.105
5087,-0.290,-0.105
5088,-0.285,-0.105
5089,-0.290,-0.110
5090,-0.295,-0.110
5091,-0.290,-0.110
5092,-0.290,-0.110
5093,-0.290,-0.115
5094,-0.290,-0.120
5095,-0.290,-0.115
5096,-0.290,-0.115
5097,-0.290,-0.115
5098,-0.290,-0.120
5099,-0.295,-0.115
5100,-0.290,-0.115
5101,-0.290,-0.120
5102,-0.290,-0.115
5103,-0.290,-0.115
5104,-0.285,-0.110
5105,-0.280,-0.105
5106,-0.280,-0.100
5107,-0.270,-0.095
5108,-0.270,-0.090
5109,-0.260,-0.080
5110,-0.260,-0.080
5111,-0.250,-0.070
5112,-0.245,-0.060
5113,-0.240,-0.050
5114,-0.230,-0.040
5115,-0.220,-0.035
5116,-0.210,-0.025
5117,-0.200,-0.010
5118,-0.185,0.000
5119,-0.180,0.010
5120,-0.165,0.025
5121,-0.160,0.040
5122,-0.145,0.055
5123,-0.130,0.065
5124,-0.120,0.085
5125,-0.105,0.095
5126,-0.095,0.110
5127,-0.090,0.115
5128,-0.095,0.120
5129,-0.090,0.125
5130,-0.090,0.125
5131,-0.090,0.125
5132,-0.095,0.120
5133,-0.100,0.115
5134,-0.105,0.110
5135,-0.115,0.100
5136,-0.125,0.090
5137,-0.135,0.075
5138,-0.145,0.060
5139,-0.155,0.050
5140,-0.160,0.035
5141,-0.170,0.025
5142,-0.180,0.015
5143,-0.190,0.005
5144,-0.200,0.000
5145,-0.205,-0.005
5146,-0.210,-0.015
5147,-0.215,-0.020
5148,-0.220,-0.030
5149,-0.220,-0.035
5150,-0.225,-0.035
5151,-0.230,-0.040
5152,-0.230,-0.045
5153,-0.235,-0.050
5154,-0.240,-0.055
5155,-0.245,-0.060
5156,-0.245,-0.065
5157,-0.245,-0.070
5158,-0.250,-0.070
5159,-0.250,-0.070
5160,-0.255,-0.075
5161,-0.255,-0.075
5162,-0.260,-0.080
5163,-0.260,-0.080
5164,-0.265,-0.080
5165,-0.270,-0.085
5166,-0.265,-0.080
5167,-0.275,-0.085
5168,-0.280,-0.080
5169,-0.280,-0.080
5170,-0.275,-0.085
5171,-0.280,-0.090
5172,-0.280,-0.090
5173,-0.280,-0.090
5174,-0.280,-0.090
5175,-0.275,-0.085
5176,-0.280,-0.090
5177,-0.280,-0.090
5178,-0.280,-0.090
5179,-0.280,-0.090
5180,-0.280,-0.090
5181,-0.280,-0.085
5182,-0.280,-0.085
5183,-0.285,-0.085
5184,-0.280,-0.085
5185,-0.285,-0.090
5186,-0.285,-0.090
5187,-0.290,-0.090
5188,-0.290,-0.090
5189,-0.290,-0.090
5190,-0.295,-0.090
5191,-0.290,-0.090
5192,-0.290,-0.090
5193,-0.285,-0.090
5194,-0.295,-0.090
5195,-0.295,-0.090
5196,-0.295,-0.095
5197,-0.295,-0.090
5198,-0.290,-0.090
5199,-0.290,-0.090
5200,-0.285,-0.085
5201,-0.290,-0.085
5202,-0.290,-0.085
5203,-0.295,-0.090
5204,-0.295,-0.085
5205,-0.295,-0.085
5206,-0.295,-0.085
5207,-0.295,-0.085
5208,-0.300,-0.085
5209,-0.300,-0.085
5210,-0.305,-0.085
5211,-0.305,-0.085
5212,-0.305,-0.085
5213,-0.305,-0.085
5214,-0.305,-0.085
5215,-0.310,-0.085
5216,-0.310,-0.085
5217,-0.310,-0.085
5218,-0.310,-0.085
5219,-0.315,-0.085
5220,-0.315,-0.085
5221,-0.315,-0.085
5222,-0.315,-0.085
5223,-0.320,-0.085
5224,-0.320,-0.085
5225,-0.320,-0.080
5226,-0.320,-0.080
5227,-0.325,-0.080
5228,-0.325,-0.080
5229,-0.325,-0.080
5230,-0.320,-0.080
5231,-0.315,-0.080
5232,-0.310,-0.075
5233,-0.310,-0.070
5234,-0.305,-0.070
5235,-0.300,-0.070
5236,-0.295,-0.065
5237,-0.290,-0.060
5238,-0.285,-0.055
5239,-0.285,-0.050
5240,-0.280,-0.040
5241,-0.275,-0.025
5242,-0.270,-0.020
5243,-0.265,-0.015
5244,-0.260,-0.010
5245,-0.250,-0.005
5246,-0.250,0.000
5247,-0.240,0.010
5248,-0.230,0.025
5249,-0.225,0.035
5250,-0.220,0.040
5251,-0.225,0.040
5252,-0.230,0.035
5253,-0.235,0.030
5254,-0.240,0.025
5255,-0.250,0.015
5256,-0.255,0.010
5257,-0.260,0.000
5258,-0.270,0.000
5259,-0.270,-0.005
5260,-0.275,-0.010
5261,-0.280,-0.015
5262,-0.290,-0.020
5263,-0.295,-0.025
5264,-0.295,-0.030
5265,-0.300,-0.030
5266,-0.295,-0.030
5267,-0.300,-0.035
5268,-0.295,-0.035
5269,-0.305,-0.035
5270,-0.300,-0.035
5271,-0.300,-0.040
5272,-0.305,-0.040
5273,-0.300,-0.040
5274,-0.305,-0.040
5275,-0.300,-0.035
5276,-0.305,-0.035
5277,-0.300,-0.035
5278,-0.300,-0.030
5279,-0.295,-0.030
5280,-0.295,-0.030
5281,-0.295,-0.025
5282,-0.285,-0.020
5283,-0.280,-0.015
5284,-0.270,-0.010
5285,-0.265,0.000
5286,-0.245,0.015
5287,-0.230,0.030
5288,-0.210,0.055
5289,-0.180,0.085
5290,-0.125,0.145
5291,-0.050,0.230
5292,0.050,0.350
5293,0.160,0.480
5294,0.240,0.595
5295,0.280,0.655
5296,0.280,0.670
5297,0.240,0.625
5298,0.160,0.540
5299,0.085,0.450
5300,0.030,0.380
5301,-0.010,0.325
5302,-0.075,0.255
5303,-0.135,0.170
5304,-0.195,0.095
5305,-0.240,0.045
5306,-0.265,0.010
5307,-0.280,0.000
5308,-0.290,-0.010
5309,-0.295,-0.020
5310,-0.305,-0.030
5311,-0.310,-0.035
5312,-0.315,-0.040
5313,-0.320,-0.050
5314,-0.320,-0.055
5315,-0.325,-0.055
5316,-0.320,-0.060
5317,-0.325,-0.060
5318,-0.325,-0.060
5319,-0.325,-0.060
5320,-0.320,-0.060
5321,-0.325,-0.060
5322,-0.330,-0.055
5323,-0.325,-0.050
5324,-0.330,-0.050
5325,-0.325,-0.050
5326,-0.330,-0.050
5327,-0.325,-0.045
5328,-0.330,-0.045
5329,-0.330,-0.045
5330,-0.330,-0.045
5331,-0.330,-0.050
5332,-0.325,-0.050
5333,-0.325,-0.050
5334,-0.320,-0.050
5335,-0.325,-0.050
5336,-0.320,-0.050
5337,-0.320,-0.050
5338,-0.320,-0.050
5339,-0.320,-0.050
5340,-0.320,-0.045
5341,-0.315,-0.045
5342,-0.315,-0.045
5343,-0.310,-0.045
5344,-0.315,-0.050
5345,-0.315,-0.050
5346,-0.310,-0.050
5347,-0.310,-0.045
5348,-0.305,-0.040
5349,-0.305,-0.035
5350,-0.300,-0.035
5351,-0.300,-0.035
5352,-0.295,-0.030
5353,-0.290,-0.025
5354,-0.280,-0.015
5355,-0.270,-0.010
5356,-0.265,0.000
5357,-0.255,0.010
5358,-0.250,0.020
5359,-0.240,0.030
5360,-0.230,0.040
5361,-0.215,0.055
5362,-0.205,0.065
5363,-0.195,0.080
5364,-0.180,0.095
5365,-0.170,0.110
5366,-0.160,0.120
5367,-0.150,0.135
5368,-0.145,0.145
5369,-0.135,0.155
5370,-0.135,0.155
5371,-0.135,0.160
5372,-0.130,0.160
5373,-0.135,0.160
5374,-0.135,0.160
5375,-0.140,0.155
5376,-0.150,0.150
5377,-0.160,0.140
5378,-0.170,0.125
5379,-0.175,0.115
5380,-0.190,0.100
5381,-0.200,0.085
5382,-0.205,0.075
5383,-0.220,0.070
5384,-0.230,0.065
5385,-0.240,0.055
5386,-0.245,0.045
5387,-0.255,0.035
5388,-0.255,0.025
5389,-0.265,0.020
5390,-0.265,0.020
5391,-0.270,0.015
5392,-0.275,0.015
5393,-0.275,0.010
5394,-0.285,0.005
5395,-0.280,0.000
5396,-0.290,0.000
5397,-0.290,0.000
5398,-0.290,0.000
5399,-0.295,0.005
5400,-0.290,0.005
5401,-0.295,0.000
5402,-0.290,0.000
5403,-0.300,0.000
5404,-0.300,0.000
5405,-0.295,-0.005
5406,-0.300,0.000
5407,-0.295,-0.005
5408,-0.295,-0.005
5409,-0.290,-0.005
5410,-0.295,-0.005
5411,-0.295,-0.005
5412,-0.295,-0.005
5413,-0.295,-0.005
5414,-0.295,-0.010
5415,-0.295,-0.005
5416,-0.295,-0.010
5417,-0.300,-0.010
5418,-0.295,-0.010
5419,-0.295,-0.015
5420,-0.295,-0.015
5421,-0.295,-0.020
5422,-0.295,-0.020
5423,-0.290,-0.015
5424,-0.290,-0.010
5425,-0.290,-0.010
5426,-0.295,-0.010
5427,-0.295,-0.010
5428,-0.295,-0.010
5429,-0.295,-0.015
5430,-0.295,-0.015
5431,-0.295,-0.020
5432,-0.295,-0.020
5433,-0.295,-0.020
5434,-0.295,-0.025
5435,-0.300,-0.025
5436,-0.300,-0.025
5437,-0.300,-0.025
5438,-0.305,-0.025
5439,-0.305,-0.025
5440,-0.305,-0.025
5441,-0.305,-0.025
5442,-0.310,-0.025
5443,-0.310,-0.030
5444,-0.310,-0.035
5445,-0.310,-0.035
5446,-0.315,-0.035
5447,-0.315,-0.035
5448,-0.315,-0.035
5449,-0.310,-0.035
5450,-0.310,-0.040
5451,-0.315,-0.040
5452,-0.315,-0.040
5453,-0.315,-0.045
5454,-0.310,-0.045
5455,-0.310,-0.045
5456,-0.315,-0.045
5457,-0.310,-0.040
5458,-0.315,-0.045
5459,-0.310,-0.045
5460,-0.310,-0.050
5461,-0.310,-0.045
5462,-0.310,-0.045
5463,-0.305,-0.045
5464,-0.305,-0.045
5465,-0.305,-0.045
5466,-0.295,-0.045
5467,-0.295,-0.040
5468,-0.290,-0.035
5469,-0.280,-0.030
5470,-0.270,-0.020
5471,-0.260,-0.010
5472,-0.250,0.000
5473,-0.235,0.010
5474,-0.230,0.020
5475,-0.220,0.030
5476,-0.215,0.035
5477,-0.205,0.045
5478,-0.205,0.050
5479,-0.205,0.055
5480,-0.205,0.055
5481,-0.205,0.055
5482,-0.210,0.050
5483,-0.220,0.040
5484,-0.225,0.030
5485,-0.230,0.025
5486,-0.235,0.015
5487,-0.240,0.010
5488,-0.240,0.005
5489,-0.245,0.000
5490,-0.250,0.000
5491,-0.255,-0.005
5492,-0.265,-0.015
5493,-0.260,-0.020
5494,-0.265,-0.020
5495,-0.270,-0.020
5496,-0.265,-0.025
5497,-0.270,-0.025
5498,-0.265,-0.025
5499,-0.270,-0.025
5500,-0.270,-0.035
5501,-0.275,-0.040
5502,-0.270,-0.035
5503,-0.270,-0.035
5504,-0.270,-0.035
5505,-0.270,-0.035
5506,-0.265,-0.030
5507,-0.265,-0.025
5508,-0.265,-0.030
5509,-0.265,-0.035
5510,-0.265,-0.030
5511,-0.260,-0.025
5512,-0.250,-0.020
5513,-0.240,-0.010
5514,-0.225,0.000
5515,-0.205,0.015
5516,-0.185,0.040
5517,-0.160,0.065
5518,-0.115,0.110
5519,-0.045,0.175
5520,0.055,0.280
5521,0.165,0.405
5522,0.275,0.525
5523,0.330,0.605
5524,0.350,0.635
5525,0.320,0.615
5526,0.250,0.555
5527,0.165,0.460
5528,0.100,0.380
5529,0.050,0.310
5530,-0.010,0.250
5531,-0.075,0.170
5532,-0.135,0.100
5533,-0.185,0.045
5534,-0.220,0.005
5535,-0.240,-0.020
5536,-0.245,-0.035
5537,-0.255,-0.050
5538,-0.265,-0.060
5539,-0.270,-0.070
5540,-0.280,-0.075
5541,-0.285,-0.085
5542,-0.290,-0.090
5543,-0.290,-0.090
5544,-0.295,-0.100
5545,-0.295,-0.100
5546,-0.295,-0.100
5547,-0.295,-0.095
5548,-0.295,-0.095
5549,-0.295,-0.095
5550,-0.295,-0.095
5551,-0.295,-0.095
5552,-0.290,-0.095
5553,-0.290,-0.100
5554,-0.290,-0.095
5555,-0.285,-0.095
5556,-0.285,-0.090
5557,-0.285,-0.090
5558,-0.285,-0.095
5559,-0.285,-0.090
5560,-0.290,-0.090
5561,-0.285,-0.085
5562,-0.290,-0.085
5563,-0.285,-0.085
5564,-0.285,-0.080
5565,-0.290,-0.080
5566,-0.285,-0.080
5567,-0.285,-0.080
5568,-0.285,-0.080
5569,-0.285,-0.080
5570,-0.280,-0.075
5571,-0.275,-0.075
5572,-0.275,-0.075
5573,-0.270,-0.070
5574,-0.270,-0.070
5575,-0.270,-0.065
5576,-0.270,-0.060
5577,-0.265,-0.055
5578,-0.265,-0.050
5579,-0.260,-0.050
5580,-0.255,-0.045
5581,-0.250,-0.040
5582,-0.245,-0.035
5583,-0.240,-0.030
5584,-0.230,-0.025
5585,-0.220,-0.020
5586,-0.210,-0.010
5587,-0.205,-0.005
5588,-0.195,0.000
5589,-0.185,0.010
5590,-0.180,0.020
5591,-0.170,0.030
5592,-0.160,0.040
5593,-0.150,0.050
5594,-0.140,0.065
5595,-0.130,0.075
5596,-0.120,0.085
5597,-0.115,0.100
5598,-0.110,0.105
5599,-0.110,0.115
5600,-0.105,0.115
5601,-0.110,0.115
5602,-0.110,0.110
5603,-0.115,0.105
5604,-0.115,0.100
5605,-0.130,0.095
5606,-0.140,0.085
5607,-0.145,0.075
5608,-0.160,0.065
5609,-0.170,0.055
5610,-0.180,0.040
5611,-0.185,0.030
5612,-0.195,0.020
5613,-0.200,0.015
5614,-0.210,0.010
5615,-0.215,0.005
5616,-0.220,-0.005
5617,-0.230,-0.010
5618,-0.230,-0.015
5619,-0.235,-0.020
5620,-0.240,-0.025
5621,-0.245,-0.025
5622,-0.245,-0.025
5623,-0.245,-0.030
5624,-0.250,-0.030
5625,-0.250,-0.035
5626,-0.260,-0.040
5627,-0.255,-0.045
5628,-0.265,-0.045
5629,-0.265,-0.045
5630,-0.260,-0.045
5631,-0.265,-0.040
5632,-0.265,-0.040
5633,-0.270,-0.040
5634,-0.260,-0.040
5635,-0.265,-0.040
5636,-0.265,-0.040
5637,-0.265,-0.040
5638,-0.265,-0.040
5639,-0.260,-0.040
5640,-0.260,-0.040
5641,-0.265,-0.040
5642,-0.270,-0.045
5643,-0.265,-0.045
5644,-0.265,-0.045
5645,-0.265,-0.040
5646,-0.265,-0.045
5647,-0.265,-0.040
5648,-0.265,-0.040
5649,-0.265,-0.040
5650,-0.270,-0.045
5651,-0.270,-0.050
5652,-0.270,-0.050
5653,-0.270,-0.050
5654,-0.270,-0.050
5655,-0.270,-0.050
5656,-0.270,-0.050
5657,-0.270,-0.050
5658,-0.270,-0.050
5659,-0.270,-0.055
5660,-0.275,-0.055
5661,-0.280,-0.055
5662,-0.280,-0.060
5663,-0.275,-0.060
5664,-0.280,-0.060
5665,-0.280,-0.060
5666,-0.280,-0.060
5667,-0.285,-0.065
5668,-0.285,-0.065
5669,-0.285,-0.070
5670,-0.285,-0.065
5671,-0.290,-0.065
5672,-0.295,-0.065
5673,-0.300,-0.060
5674,-0.300,-0.060
5675,-0.295,-0.065
5676,-0.295,-0.075
5677,-0.295,-0.075
5678,-0.295,-0.080
5679,-0.295,-0.080
5680,-0.295,-0.080
5681,-0.295,-0.080
5682,-0.290,-0.080
5683,-0.295,-0.080
5684,-0.290,-0.080
5685,-0.295,-0.080
5686,-0.285,-0.085
5687,-0.295,-0.085
5688,-0.295,-0.080
5689,-0.290,-0.080
5690,-0.290,-0.080
5691,-0.285,-0.080
5692,-0.295,-0.080
5693,-0.285,-0.080
5694,-0.290,-0.080
5695,-0.290,-0.085
5696,-0.285,-0.080
5697,-0.285,-0.075
5698,-0.280,-0.080
5699,-0.285,-0.080
5700,-0.280,-0.080
5701,-0.280,-0.080
5702,-0.270,-0.070
5703,-0.270,-0.060
5704,-0.255,-0.050
5705,-0.245,-0.045
5706,-0.235,-0.030
5707,-0.230,-0.020
5708,-0.235,-0.015
5709,-0.230,-0.015
5710,-0.230,-0.010
5711,-0.215,0.000
5712,-0.200,0.015
5713,-0.195,0.025
5714,-0.190,0.030
5715,-0.190,0.030
5716,-0.195,0.030
5717,-0.200,0.025
5718,-0.205,0.020
5719,-0.210,0.020
5720,-0.210,0.015
5721,-0.215,0.010
5722,-0.215,0.010
5723,-0.210,0.005
5724,-0.215,0.005
5725,-0.220,0.000
5726,-0.230,0.000
5727,-0.235,-0.005
5728,-0.240,-0.015
5729,-0.245,-0.020
5730,-0.245,-0.020
5731,-0.250,-0.020
5732,-0.250,-0.020
5733,-0.255,-0.025
5734,-0.255,-0.025
5735,-0.255,-0.025
5736,-0.255,-0.025
5737,-0.250,-0.030
5738,-0.250,-0.030
5739,-0.250,-0.025
5740,-0.255,-0.025
5741,-0.250,-0.025
5742,-0.250,-0.025
5743,-0.245,-0.025
5744,-0.240,-0.025
5745,-0.240,-0.030
5746,-0.240,-0.025
5747,-0.235,-0.020
5748,-0.225,-0.010
5749,-0.210,0.000
5750,-0.195,0.015
5751,-0.175,0.035
5752,-0.150,0.055
5753,-0.110,0.095
5754,-0.045,0.150
5755,0.040,0.245
5756,0.150,0.375
5757,0.255,0.490
5758,0.340,0.600
5759,0.370,0.655
5760,0.370,0.665
5761,0.330,0.625
5762,0.240,0.550
5763,0.160,0.455
5764,0.105,0.380
5765,0.055,0.325
5766,-0.010,0.250
5767,-0.080,0.170
5768,-0.140,0.095
5769,-0.190,0.040
5770,-0.215,0.005
5771,-0.230,-0.010
5772,-0.240,-0.025
5773,-0.250,-0.035
5774,-0.260,-0.045
5775,-0.270,-0.060
5776,-0.275,-0.070
5777,-0.275,-0.080
5778,-0.285,-0.085
5779,-0.285,-0.080
5780,-0.285,-0.085
5781,-0.285,-0.085
5782,-0.285,-0.085
5783,-0.285,-0.085
5784,-0.285,-0.090
5785,-0.290,-0.090
5786,-0.285,-0.085
5787,-0.285,-0.085
5788,-0.285,-0.085
5789,-0.290,-0.080
5790,-0.290,-0.080
5791,-0.290,-0.080
5792,-0.290,-0.085
5793,-0.290,-0.085
5794,-0.290,-0.090
5795,-0.290,-0.085
5796,-0.290,-0.090
5797,-0.290,-0.090
5798,-0.290,-0.090
5799,-0.290,-0.095
5800,-0.285,-0.095
5801,-0.290,-0.095
5802,-0.285,-0.095
5803,-0.285,-0.090
5804,-0.280,-0.090
5805,-0.275,-0.085
5806,-0.275,-0.085
5807,-0.270,-0.080
5808,-0.270,-0.080
5809,-0.265,-0.075
5810,-0.265,-0.075
5811,-0.265,-0.075
5812,-0.260,-0.070
5813,-0.255,-0.065
5814,-0.255,-0.060
5815,-0.255,-0.060
5816,-0.250,-0.055
5817,-0.245,-0.050
5818,-0.240,-0.045
5819,-0.235,-0.040
5820,-0.225,-0.040
5821,-0.220,-0.030
5822,-0.215,-0.020
5823,-0.205,-0.010
5824,-0.195,0.000
5825,-0.180,0.010
5826,-0.170,0.020
5827,-0.160,0.035
5828,-0.150,0.045
5829,-0.135,0.060
5830,-0.125,0.075
5831,-0.110,0.095
5832,-0.095,0.105
5833,-0.090,0.115
5834,-0.085,0.120
5835,-0.080,0.130
5836,-0.075,0.135
5837,-0.075,0.140
5838,-0.080,0.140
5839,-0.080,0.135
5840,-0.085,0.135
5841,-0.095,0.125
5842,-0.105,0.115
5843,-0.110,0.100
5844,-0.125,0.090
5845,-0.135,0.080
5846,-0.150,0.065
5847,-0.160,0.055
5848,-0.165,0.045
5849,-0.170,0.040
5850,-0.175,0.030
5851,-0.185,0.020
5852,-0.190,0.010
5853,-0.200,0.005
5854,-0.200,0.005
5855,-0.200,0.000
5856,-0.205,0.000
5857,-0.210,0.000
5858,-0.215,-0.010
5859,-0.220,-0.010
5860,-0.225,-0.015
5861,-0.225,-0.015
5862,-0.225,-0.015
5863,-0.225,-0.020
5864,-0.225,-0.020
5865,-0.225,-0.020
5866,-0.225,-0.020
5867,-0.230,-0.020
5868,-0.230,-0.020
5869,-0.230,-0.020
5870,-0.230,-0.020
5871,-0.225,-0.025
5872,-0.220,-0.025
5873,-0.220,-0.025
5874,-0.225,-0.025
5875,-0.225,-0.025
5876,-0.230,-0.025
5877,-0.230,-0.030
5878,-0.230,-0.030
5879,-0.225,-0.030
5880,-0.225,-0.025
5881,-0.225,-0.030
5882,-0.220,-0.025
5883,-0.220,-0.025
5884,-0.225,-0.025
5885,-0.225,-0.025
5886,-0.225,-0.025
5887,-0.225,-0.025
5888,-0.225,-0.025
5889,-0.225,-0.020
5890,-0.230,-0.020
5891,-0.225,-0.025
5892,-0.230,-0.025
5893,-0.230,-0.025
5894,-0.235,-0.025
5895,-0.230,-0.025
5896,-0.235,-0.025
5897,-0.240,-0.025
5898,-0.235,-0.025
5899,-0.240,-0.025
5900,-0.235,-0.025
5901,-0.240,-0.030
5902,-0.235,-0.030
5903,-0.240,-0.030
5904,-0.240,-0.030
5905,-0.240,-0.030
5906,-0.240,-0.025
5907,-0.240,-0.025
5908,-0.245,-0.030
5909,-0.245,-0.030
5910,-0.245,-0.030
5911,-0.245,-0.030
5912,-0.250,-0.035
5913,-0.245,-0.030
5914,-0.245,-0.030
5915,-0.245,-0.030
5916,-0.245,-0.030
5917,-0.250,-0.030
5918,-0.245,-0.030
5919,-0.250,-0.030
5920,-0.245,-0.030
5921,-0.240,-0.035
5922,-0.240,-0.035
5923,-0.235,-0.035
5924,-0.235,-0.035
5925,-0.225,-0.035
5926,-0.230,-0.045
5927,-0.225,-0.045
5928,-0.225,-0.045
5929,-0.220,-0.040
5930,-0.215,-0.040
5931,-0.210,-0.035
5932,-0.210,-0.035
5933,-0.215,-0.035
5934,-0.210,-0.035
5935,-0.215,-0.035
5936,-0.205,-0.025
5937,-0.205,-0.025
5938,-0.200,-0.025
5939,-0.195,-0.020
5940,-0.185,-0.010
5941,-0.180,0.000
5942,-0.175,0.005
5943,-0.175,0.010
5944,-0.170,0.015
5945,-0.170,0.020
5946,-0.165,0.020
5947,-0.145,0.030
5948,-0.140,0.045
5949,-0.130,0.055
5950,-0.130,0.060
5951,-0.130,0.060
5952,-0.135,0.055
5953,-0.145,0.050
5954,-0.145,0.040
5955,-0.155,0.035
5956,-0.160,0.030
5957,-0.165,0.025
5958,-0.170,0.015
5959,-0.170,0.010
5960,-0.170,0.010
5961,-0.175,0.005
5962,-0.180,0.000
5963,-0.185,0.000
5964,-0.190,-0.005
5965,-0.200,-0.010
5966,-0.200,-0.015
5967,-0.205,-0.020
5968,-0.205,-0.020
5969,-0.205,-0.025
5970,-0.205,-0.030
5971,-0.205,-0.030
5972,-0.200,-0.025
5973,-0.200,-0.030
5974,-0.205,-0.035
5975,-0.200,-0.035
5976,-0.200,-0.030
5977,-0.195,-0.030
5978,-0.195,-0.030
5979,-0.195,-0.025
5980,-0.195,-0.025
5981,-0.190,-0.020
5982,-0.190,-0.020
5983,-0.185,-0.015
5984,-0.180,-0.010
5985,-0.165,0.000
5986,-0.150,0.010
5987,-0.135,0.025
5988,-0.110,0.050
5989,-0.075,0.075
5990,-0.030,0.120
5991,0.045,0.190
5992,0.145,0.300
5993,0.260,0.425
5994,0.365,0.560
5995,0.420,0.635
5996,0.425,0.680
5997,0.385,0.655
5998,0.300,0.575
5999,0.225,0.480
6000,0.160,0.390
6001,0.115,0.335
6002,0.050,0.265
6003,-0.015,0.195
6004,-0.075,0.115
6005,-0.120,0.055
6006,-0.140,0.015
6007,-0.155,0.000
6008,-0.165,-0.015
6009,-0.175,-0.030
6010,-0.185,-0.040
6011,-0.185,-0.050
6012,-0.190,-0.055
6013,-0.195,-0.065
6014,-0.200,-0.065
6015,-0.200,-0.065
6016,-0.200,-0.070
6017,-0.205,-0.070
6018,-0.200,-0.070
6019,-0.200,-0.070
6020,-0.200,-0.070
6021,-0.195,-0.065
6022,-0.195,-0.065
6023,-0.200,-0.065
6024,-0.200,-0.070
6025,-0.200,-0.070
6026,-0.200,-0.065
6027,-0.200,-0.065
6028,-0.205,-0.065
6029,-0.200,-0.060
6030,-0.205,-0.055
6031,-0.205,-0.055
6032,-0.205,-0.050
6033,-0.200,-0.055
6034,-0.200,-0.050
6035,-0.195,-0.055
6036,-0.195,-0.055
6037,-0.190,-0.055
6038,-0.190,-0.050
6039,-0.190,-0.050
6040,-0.190,-0.050
6041,-0.185,-0.050
6042,-0.185,-0.050
6043,-0.185,-0.050
6044,-0.185,-0.050
6045,-0.180,-0.050
6046,-0.180,-0.050
6047,-0.175,-0.045
6048,-0.175,-0.045
6049,-0.175,-0.045
6050,-0.165,-0.040
6051,-0.165,-0.035
6052,-0.155,-0.030
6053,-0.150,-0.025
6054,-0.145,-0.020
6055,-0.135,-0.010
6056,-0.130,0.000
6057,-0.125,0.005
6058,-0.120,0.010
6059,-0.105,0.025
6060,-0.095,0.035
6061,-0.085,0.050
6062,-0.075,0.060
6063,-0.065,0.080
6064,-0.050,0.090
6065,-0.040,0.100
6066,-0.030,0.110
6067,-0.020,0.120
6068,-0.015,0.130
6069,-0.010,0.140
6070,-0.005,0.150
6071,-0.005,0.155
6072,-0.005,0.155
6073,-0.005,0.155
6074,-0.005,0.150
6075,-0.015,0.140
6076,-0.020,0.135
6077,-0.035,0.120
6078,-0.040,0.115
6079,-0.050,0.105
6080,-0.055,0.095
6081,-0.065,0.085
6082,-0.080,0.070
6083,-0.085,0.060
6084,-0.095,0.050
6085,-0.105,0.040
6086,-0.115,0.030
6087,-0.120,0.025
6088,-0.125,0.015
6089,-0.135,0.010
6090,-0.140,0.005
6091,-0.140,0.000
6092,-0.145,0.000
6093,-0.145,0.000
6094,-0.150,-0.005
6095,-0.150,-0.005
6096,-0.150,-0.005
6097,-0.150,-0.005
6098,-0.155,-0.010
6099,-0.155,-0.010
6100,-0.155,-0.010
6101,-0.155,-0.010
6102,-0.155,-0.010
6103,-0.150,-0.010
6104,-0.145,-0.010
6105,-0.150,-0.010
6106,-0.155,-0.010
6107,-0.155,-0.010
6108,-0.155,-0.010
6109,-0.150,-0.010
6110,-0.150,-0.015
6111,-0.155,-0.015
6112,-0.155,-0.015
6113,-0.155,-0.010
6114,-0.155,-0.010
6115,-0.160,-0.010
6116,-0.160,-0.015
6117,-0.160,-0.015
6118,-0.160,-0.010
6119,-0.160,-0.015
6120,-0.160,-0.015
6121,-0.160,-0.015
6122,-0.165,-0.010
6123,-0.165,-0.015
6124,-0.170,-0.020
6125,-0.170,-0.020
6126,-0.175,-0.020
6127,-0.170,-0.020
6128,-0.180,-0.020
6129,-0.180,-0.020
6130,-0.175,-0.025
6131,-0.180,-0.025
6132,-0.180,-0.025
6133,-0.180,-0.030
6134,-0.180,-0.030
6135,-0.185,-0.030
6136,-0.185,-0.030
6137,-0.190,-0.025
6138,-0.190,-0.025
6139,-0.185,-0.025
6140,-0.185,-0.025
6141,-0.185,-0.025
6142,-0.190,-0.025
6143,-0.185,-0.025
6144,-0.185,-0.025
6145,-0.180,-0.020
6146,-0.180,-0.025
6147,-0.180,-0.030
6148,-0.175,-0.030
6149,-0.175,-0.030
6150,-0.180,-0.030
6151,-0.180,-0.030
6152,-0.180,-0.025
6153,-0.175,-0.025
6154,-0.180,-0.025
6155,-0.175,-0.025
6156,-0.170,-0.025
6157,-0.175,-0.025
6158,-0.175,-0.020
6159,-0.170,-0.020
6160,-0.170,-0.020
6161,-0.165,-0.010
6162,-0.165,-0.005
6163,-0.155,0.000
6164,-0.155,0.005
6165,-0.150,0.010
6166,-0.140,0.015
6167,-0.135,0.025
6168,-0.125,0.035
6169,-0.120,0.040
6170,-0.120,0.050
6171,-0.120,0.050
6172,-0.115,0.050
6173,-0.105,0.060
6174,-0.095,0.070
6175,-0.090,0.080
6176,-0.095,0.080
6177,-0.100,0.080
6178,-0.105,0.080
6179,-0.105,0.075
6180,-0.115,0.075
6181,-0.120,0.065
6182,-0.125,0.050
6183,-0.130,0.050
6184,-0.130,0.045
6185,-0.130,0.045
6186,-0.125,0.045
6187,-0.135,0.040
6188,-0.145,0.040
6189,-0.150,0.035
6190,-0.155,0.030
6191,-0.155,0.020
6192,-0.160,0.020
6193,-0.165,0.020
6194,-0.165,0.015
6195,-0.165,0.015
6196,-0.165,0.015
6197,-0.165,0.020
6198,-0.165,0.010
6199,-0.165,0.010
6200,-0.160,0.010
6201,-0.160,0.015
6202,-0.150,0.015
6203,-0.155,0.020
6204,-0.155,0.025
6205,-0.155,0.030
6206,-0.155,0.030
6207,-0.150,0.030
6208,-0.150,0.040
6209,-0.135,0.045
6210,-0.125,0.060
6211,-0.110,0.075
6212,-0.095,0.100
6213,-0.070,0.125
6214,-0.035,0.160
6215,0.020,0.215
6216,0.110,0.305
6217,0.215,0.435
6218,0.320,0.560
6219,0.395,0.680
6220,0.420,0.730
6221,0.405,0.740
6222,0.355,0.695
6223,0.270,0.600
6224,0.205,0.510
6225,0.150,0.430
6226,0.100,0.375
6227,0.035,0.300
6228,-0.015,0.230
6229,-0.070,0.155
6230,-0.100,0.100
6231,-0.115,0.070
6232,-0.130,0.050
6233,-0.140,0.040
6234,-0.150,0.030
6235,-0.160,0.020
6236,-0.160,0.010
6237,-0.165,0.005
6238,-0.165,0.000
6239,-0.170,0.000
6240,-0.175,0.000
6241,-0.175,0.000
6242,-0.170,0.000
6243,-0.170,-0.005
6244,-0.170,-0.005
6245,-0.165,-0.005
6246,-0.170,-0.005
6247,-0.170,-0.005
6248,-0.170,-0.005
6249,-0.175,0.000
6250,-0.170,0.000
6251,-0.175,0.000
6252,-0.175,0.000
6253,-0.175,0.000
6254,-0.170,0.005
6255,-0.175,0.000
6256,-0.180,0.000
6257,-0.180,0.000
6258,-0.180,0.000
6259,-0.180,0.000
6260,-0.180,0.000
6261,-0.170,0.000
6262,-0.170,0.005
6263,-0.170,0.005
6264,-0.170,0.005
6265,-0.170,0.005
6266,-0.165,0.005
6267,-0.165,0.005
6268,-0.165,0.010
6269,-0.160,0.010
6270,-0.160,0.015
6271,-0.155,0.020
6272,-0.150,0.025
6273,-0.150,0.025
6274,-0.150,0.035
6275,-0.145,0.040
6276,-0.140,0.045
6277,-0.135,0.055
6278,-0.135,0.060
6279,-0.130,0.070
6280,-0.120,0.070
6281,-0.115,0.080
6282,-0.105,0.085
6283,-0.095,0.095
6284,-0.085,0.100
6285,-0.080,0.110
6286,-0.070,0.120
6287,-0.060,0.135
6288,-0.055,0.145
6289,-0.045,0.155
6290,-0.035,0.165
6291,-0.030,0.175
6292,-0.025,0.185
6293,-0.015,0.185
6294,-0.010,0.195
6295,-0.010,0.200
6296,-0.010,0.205
6297,-0.005,0.200
6298,-0.010,0.190
6299,-0.010,0.185
6300,-0.020,0.180
6301,-0.025,0.175
6302,-0.030,0.165
6303,-0.040,0.155
6304,-0.050,0.140
6305,-0.060,0.125
6306,-0.070,0.115
6307,-0.080,0.100
6308,-0.090,0.090
6309,-0.095,0.080
6310,-0.105,0.075
6311,-0.110,0.065
6312,-0.115,0.060
6313,-0.115,0.050
6314,-0.125,0.040
6315,-0.130,0.035
6316,-0.135,0.030
6317,-0.140,0.030
6318,-0.140,0.025
6319,-0.140,0.025
6320,-0.145,0.020
6321,-0.150,0.020
6322,-0.150,0.015
6323,-0.155,0.010
6324,-0.155,0.010
6325,-0.155,0.005
6326,-0.155,0.005
6327,-0.155,0.005
6328,-0.155,0.005
6329,-0.150,0.000
6330,-0.155,0.000
6331,-0.160,0.005
6332,-0.155,0.000
6333,-0.160,0.000
6334,-0.160,0.000
6335,-0.160,0.000
6336,-0.155,0.000
6337,-0.160,0.000
6338,-0.160,0.000
6339,-0.160,0.000
6340,-0.160,0.000
6341,-0.160,0.000
6342,-0.160,0.000
6343,-0.155,0.000
6344,-0.160,0.005
6345,-0.160,0.005
6346,-0.160,0.000
6347,-0.165,0.000
6348,-0.160,0.000
6349,-0.160,0.000
6350,-0.160,0.000
6351,-0.155,0.000
6352,-0.155,0.000
6353,-0.160,0.000
6354,-0.160,0.000
6355,-0.155,0.000
6356,-0.160,-0.005
6357,-0.160,-0.010
6358,-0.160,-0.010
6359,-0.155,-0.010
6360,-0.160,-0.010
6361,-0.160,-0.010
6362,-0.160,-0.015
6363,-0.165,-0.015
6364,-0.160,-0.015
6365,-0.165,-0.020
6366,-0.165,-0.020
6367,-0.165,-0.020
6368,-0.165,-0.015
6369,-0.165,-0.015
6370,-0.165,-0.020
6371,-0.170,-0.025
6372,-0.165,-0.025
6373,-0.170,-0.025
6374,-0.175,-0.025
6375,-0.175,-0.030
6376,-0.175,-0.025
6377,-0.175,-0.025
6378,-0.175,-0.030
6379,-0.180,-0.030
6380,-0.180,-0.030
6381,-0.180,-0.030
6382,-0.180,-0.025
6383,-0.185,-0.030
6384,-0.180,-0.030
6385,-0.180,-0.030
6386,-0.180,-0.030
6387,-0.180,-0.030
6388,-0.170,-0.030
6389,-0.170,-0.030
6390,-0.170,-0.030
6391,-0.160,-0.025
6392,-0.155,-0.030
6393,-0.150,-0.025
6394,-0.145,-0.020
6395,-0.140,-0.020
6396,-0.140,-0.015
6397,-0.135,-0.010
6398,-0.120,0.000
6399,-0.110,0.010
6400,-0.105,0.015
6401,-0.100,0.015
6402,-0.100,0.020
6403,-0.100,0.020
6404,-0.090,0.030
6405,-0.080,0.040
6406,-0.075,0.055
6407,-0.070,0.060
6408,-0.070,0.060
6409,-0.075,0.055
6410,-0.080,0.055
6411,-0.080,0.045
6412,-0.090,0.040
6413,-0.095,0.035
6414,-0.095,0.025
6415,-0.100,0.020
6416,-0.100,0.020
6417,-0.100,0.020
6418,-0.100,0.020
6419,-0.110,0.015
6420,-0.120,0.010
6421,-0.125,0.005
6422,-0.135,0.000
6423,-0.135,-0.005
6424,-0.140,-0.005
6425,-0.140,-0.010
6426,-0.145,-0.005
6427,-0.145,-0.010
6428,-0.145,-0.010
6429,-0.140,-0.010
6430,-0.135,-0.015
6431,-0.130,-0.020
6432,-0.130,-0.030
6433,-0.130,-0.030
6434,-0.130,-0.020
6435,-0.125,-0.015
6436,-0.125,-0.015
6437,-0.125,-0.015
6438,-0.120,-0.015
6439,-0.115,-0.015
6440,-0.110,-0.015
6441,-0.105,-0.005
6442,-0.095,0.005
6443,-0.080,0.025
6444,-0.060,0.045
6445,-0.040,0.070
6446,-0.010,0.100
6447,0.045,0.160
6448,0.125,0.250
6449,0.230,0.370
6450,0.330,0.500
6451,0.400,0.610
6452,0.420,0.665
6453,0.405,0.680
6454,0.355,0.635
6455,0.285,0.550
6456,0.215,0.450
6457,0.165,0.375
6458,0.115,0.315
6459,0.060,0.245
6460,0.005,0.165
6461,-0.040,0.090
6462,-0.080,0.035
6463,-0.095,0.000
6464,-0.110,-0.020
6465,-0.115,-0.030
6466,-0.120,-0.040
6467,-0.130,-0.050
6468,-0.135,-0.055
6469,-0.140,-0.065
6470,-0.135,-0.065
6471,-0.140,-0.070
6472,-0.145,-0.075
6473,-0.145,-0.080
6474,-0.145,-0.080
6475,-0.145,-0.075
6476,-0.145,-0.075
6477,-0.140,-0.075
6478,-0.145,-0.075
6479,-0.140,-0.075
6480,-0.140,-0.075
6481,-0.145,-0.070
6482,-0.140,-0.075
6483,-0.140,-0.075
6484,-0.140,-0.070
6485,-0.140,-0.075
6486,-0.140,-0.075
6487,-0.145,-0.080
6488,-0.145,-0.075
6489,-0.140,-0.080
6490,-0.140,-0.080
6491,-0.140,-0.080
6492,-0.135,-0.075
6493,-0.135,-0.075
6494,-0.140,-0.075
6495,-0.135,-0.075
6496,-0.135,-0.070
6497,-0.140,-0.070
6498,-0.135,-0.070
6499,-0.135,-0.070
6500,-0.130,-0.065
6501,-0.130,-0.060
6502,-0.130,-0.060
6503,-0.130,-0.060
6504,-0.130,-0.055
6505,-0.130,-0.055
6506,-0.125,-0.055
6507,-0.125,-0.050
6508,-0.125,-0.045
6509,-0.120,-0.040
6510,-0.115,-0.035
6511,-0.110,-0.030
6512,-0.105,-0.025
6513,-0.095,-0.020
6514,-0.090,-0.010
6515,-0.080,-0.005
6516,-0.070,0.000
6517,-0.065,0.010
6518,-0.050,0.020
6519,-0.040,0.030
6520,-0.030,0.045
6521,-0.015,0.055
6522,0.000,0.070
6523,0.000,0.085
6524,0.005,0.095
6525,0.015,0.105
6526,0.020,0.115
6527,0.025,0.125
6528,0.025,0.130
6529,0.025,0.125
6530,0.025,0.130
6531,0.025,0.125
6532,0.015,0.120
6533,0.010,0.115
6534,0.005,0.105
6535,0.000,0.100
6536,-0.010,0.090
6537,-0.020,0.080
6538,-0.030,0.065
6539,-0.040,0.055
6540,-0.045,0.045
6541,-0.055,0.035
6542,-0.060,0.030
6543,-0.060,0.025
6544,-0.070,0.015
6545,-0.070,0.010
6546,-0.080,0.000
6547,-0.085,0.000
6548,-0.090,-0.005
6549,-0.090,-0.005
6550,-0.090,-0.010
6551,-0.095,-0.005
6552,-0.095,-0.005
6553,-0.100,-0.010
6554,-0.105,-0.015
6555,-0.110,-0.015
6556,-0.110,-0.010
6557,-0.115,-0.015
6558,-0.115,-0.015
6559,-0.110,-0.010
6560,-0.110,-0.015
6561,-0.110,-0.015
6562,-0.110,-0.020
6563,-0.110,-0.015
6564,-0.115,-0.020
6565,-0.115,-0.020
6566,-0.115,-0.015
6567,-0.115,-0.015
6568,-0.115,-0.015
6569,-0.120,-0.020
6570,-0.120,-0.025
6571,-0.120,-0.025
6572,-0.120,-0.025
6573,-0.120,-0.030
6574,-0.120,-0.030
6575,-0.115,-0.025
6576,-0.120,-0.020
6577,-0.120,-0.020
6578,-0.125,-0.020
6579,-0.120,-0.020
6580,-0.120,-0.020
6581,-0.120,-0.020
6582,-0.120,-0.020
6583,-0.120,-0.020
6584,-0.120,-0.020
6585,-0.120,-0.020
6586,-0.125,-0.020
6587,-0.130,-0.025
6588,-0.130,-0.025
6589,-0.125,-0.030
6590,-0.125,-0.030
6591,-0.130,-0.030
6592,-0.130,-0.030
6593,-0.125,-0.035
6594,-0.125,-0.040
6595,-0.130,-0.040
6596,-0.130,-0.045
6597,-0.130,-0.045
6598,-0.135,-0.045
6599,-0.135,-0.045
6600,-0.135,-0.045
6601,-0.135,-0.050
6602,-0.135,-0.045
6603,-0.135,-0.050
6604,-0.140,-0.045
6605,-0.140,-0.050
6606,-0.140,-0.045
6607,-0.140,-0.040
6608,-0.135,-0.040
6609,-0.130,-0.035
6610,-0.130,-0.035
6611,-0.135,-0.040
6612,-0.135,-0.040
6613,-0.130,-0.040
6614,-0.125,-0.040
6615,-0.125,-0.035
6616,-0.120,-0.035
6617,-0.120,-0.030
6618,-0.120,-0.030
6619,-0.120,-0.025
6620,-0.115,-0.020
6621,-0.115,-0.020
6622,-0.110,-0.015
6623,-0.110,-0.010
6624,-0.110,-0.005
6625,-0.105,0.000
6626,-0.105,0.000
6627,-0.095,0.000
6628,-0.095,0.010
6629,-0.090,0.015
6630,-0.090,0.025
6631,-0.085,0.030
6632,-0.080,0.025
6633,-0.080,0.030
6634,-0.075,0.030
6635,-0.070,0.040
6636,-0.060,0.055
6637,-0.055,0.060
6638,-0.050,0.070
6639,-0.055,0.065
6640,-0.055,0.060
6641,-0.065,0.055
6642,-0.070,0.050
6643,-0.075,0.045
6644,-0.080,0.040
6645,-0.090,0.035
6646,-0.090,0.025
6647,-0.090,0.025
6648,-0.090,0.025
6649,-0.090,0.020
6650,-0.095,0.020
6651,-0.105,0.015
6652,-0.105,0.010
6653,-0.110,0.000
6654,-0.115,0.000
6655,-0.115,0.000
6656,-0.115,-0.005
6657,-0.115,-0.005
6658,-0.120,-0.005
6659,-0.115,-0.005
