'sample interval','ECG1','ECG2'
'0.004 sec','mV','mV'
0,-0.135,-0.125
1,-0.125,-0.125
2,-0.125,-0.125
3,-0.125,-0.125
4,-0.125,-0.125
5,-0.120,-0.125
6,-0.115,-0.125
7,-0.115,-0.120
8,-0.115,-0.115
9,-0.120,-0.115
10,-0.125,-0.115
11,-0.125,-0.115
12,-0.125,-0.115
13,-0.115,-0.115
14,-0.105,-0.115
15,-0.110,-0.115
16,-0.115,-0.115
17,-0.110,-0.115
18,-0.105,-0.115
19,-0.105,-0.115
20,-0.105,-0.115
21,-0.110,-0.115
22,-0.115,-0.115
23,-0.115,-0.110
24,-0.115,-0.105
25,-0.115,-0.105
26,-0.115,-0.105
27,-0.115,-0.110
28,-0.115,-0.115
29,-0.110,-0.115
30,-0.105,-0.115
31,-0.105,-0.110
32,-0.105,-0.105
33,-0.105,-0.105
34,-0.105,-0.105
35,-0.105,-0.110
36,-0.105,-0.115
37,-0.100,-0.115
38,-0.095,-0.115
39,-0.100,-0.110
40,-0.105,-0.105
41,-0.105,-0.105
42,-0.105,-0.110
43,-0.105,-0.115
44,-0.100,-0.110
45,-0.095,-0.105
46,-0.095,-0.105
47,-0.095,-0.105
48,-0.095,-0.105
49,-0.095,-0.105
50,-0.095,-0.105
51,-0.095,-0.105
52,-0.095,-0.105
53,-0.095,-0.105
54,-0.095,-0.105
55,-0.095,-0.105
56,-0.100,-0.105
57,-0.105,-0.105
58,-0.100,-0.105
59,-0.095,-0.105
60,-0.090,-0.105
61,-0.085,-0.105
62,-0.085,-0.105
63,-0.085,-0.105
64,-0.085,-0.105
65,-0.085,-0.105
66,-0.085,-0.105
67,-0.085,-0.105
68,-0.085,-0.100
69,-0.085,-0.095
70,-0.080,-0.100
71,-0.075,-0.105
72,-0.075,-0.100
73,-0.075,-0.095
74,-0.075,-0.095
75,-0.060,-0.095
76,-0.040,-0.090
77,-0.035,-0.080
78,-0.030,-0.070
79,-0.025,-0.060
80,-0.020,-0.050
81,-0.010,-0.045
82,0.000,-0.050
83,0.005,-0.055
84,0.005,-0.055
85,0.010,-0.055
86,0.015,-0.055
87,0.020,-0.065
88,0.025,-0.075
89,0.030,-0.070
90,0.035,-0.065
91,0.025,-0.065
92,0.015,-0.065
93,0.010,-0.065
94,0.005,-0.065
95,0.000,-0.075
96,-0.010,-0.085
97,-0.040,-0.080
98,-0.065,-0.075
99,-0.075,-0.085
100,-0.085,-0.100
101,-0.090,-0.115
102,-0.095,-0.125
103,-0.100,-0.125
104,-0.105,-0.125
105,-0.105,-0.125
106,-0.105,-0.125
107,-0.100,-0.125
108,-0.095,-0.125
109,-0.095,-0.125
110,-0.095,-0.125
111,-0.095,-0.120
112,-0.095,-0.115
113,-0.095,-0.120
114,-0.095,-0.125
115,-0.090,-0.125
116,-0.085,-0.125
117,-0.085,-0.120
118,-0.085,-0.115
119,-0.085,-0.115
120,-0.080,-0.115
121,-0.070,-0.120
122,-0.055,-0.125
123,-0.040,-0.125
124,0.005,-0.125
125,-0.035,-0.125
126,0.195,-0.145
127,0.345,-0.160
128,0.655,-0.270
129,0.945,-0.385
130,1.050,-0.520
131,1.130,-0.635
132,1.005,-0.650
133,0.850,-0.665
134,0.550,-0.670
135,0.260,-0.655
136,0.020,-0.570
137,-0.155,-0.465
138,-0.170,-0.325
139,-0.170,-0.190
140,-0.115,-0.080
141,-0.075,0.010
142,-0.070,0.055
143,-0.065,0.080
144,-0.075,0.060
145,-0.085,0.040
146,-0.100,0.015
147,-0.105,0.000
148,-0.105,-0.015
149,-0.110,-0.025
150,-0.120,-0.025
151,-0.125,-0.025
152,-0.120,-0.030
153,-0.115,-0.035
154,-0.110,-0.035
155,-0.105,-0.035
156,-0.105,-0.035
157,-0.105,-0.035
158,-0.105,-0.035
159,-0.105,-0.035
160,-0.105,-0.035
161,-0.105,-0.035
162,-0.105,-0.035
163,-0.105,-0.035
164,-0.100,-0.035
165,-0.095,-0.035
166,-0.095,-0.030
167,-0.095,-0.030
168,-0.095,-0.035
169,-0.085,-0.035
170,-0.075,-0.035
171,-0.075,-0.030
172,-0.075,-0.025
173,-0.070,-0.020
174,-0.065,-0.015
175,-0.055,-0.020
176,-0.045,-0.025
177,-0.045,-0.020
178,-0.045,-0.015
179,-0.035,-0.015
180,-0.025,-0.015
181,-0.015,-0.005
182,-0.005,0.005
183,-0.005,0.005
184,0.000,0.005
185,0.015,0.005
186,0.030,0.005
187,0.050,0.015
188,0.070,0.030
189,0.085,0.040
190,0.100,0.045
191,0.115,0.050
192,0.135,0.055
193,0.155,0.060
194,0.170,0.070
195,0.190,0.080
196,0.205,0.090
197,0.225,0.100
198,0.240,0.110
199,0.250,0.120
200,0.270,0.125
201,0.290,0.125
202,0.305,0.130
203,0.320,0.140
204,0.330,0.150
205,0.340,0.160
206,0.345,0.165
207,0.350,0.165
208,0.355,0.165
209,0.355,0.165
210,0.345,0.160
211,0.335,0.155
212,0.320,0.150
213,0.305,0.145
214,0.270,0.135
215,0.235,0.125
216,0.210,0.105
217,0.180,0.085
218,0.150,0.065
219,0.115,0.045
220,0.075,0.035
221,0.040,0.025
222,0.020,0.010
223,-0.005,-0.010
224,-0.035,-0.030
225,-0.060,-0.045
226,-0.080,-0.055
227,-0.095,-0.065
228,-0.100,-0.075
229,-0.110,-0.085
230,-0.135,-0.090
231,-0.145,-0.095
232,-0.145,-0.100
233,-0.145,-0.105
234,-0.150,-0.110
235,-0.155,-0.115
236,-0.155,-0.115
237,-0.155,-0.115
238,-0.155,-0.120
239,-0.155,-0.125
240,-0.160,-0.125
241,-0.165,-0.125
242,-0.160,-0.125
243,-0.155,-0.125
244,-0.155,-0.125
245,-0.160,-0.125
246,-0.170,-0.120
247,-0.170,-0.115
248,-0.160,-0.120
249,-0.155,-0.125
250,-0.155,-0.125
251,-0.155,-0.120
252,-0.155,-0.115
253,-0.150,-0.115
254,-0.145,-0.115
255,-0.150,-0.120
256,-0.155,-0.125
257,-0.155,-0.125
258,-0.155,-0.125
259,-0.155,-0.120
260,-0.155,-0.115
261,-0.160,-0.115
262,-0.165,-0.115
263,-0.160,-0.120
264,-0.155,-0.125
265,-0.150,-0.125
266,-0.145,-0.125
267,-0.145,-0.120
268,-0.145,-0.115
269,-0.145,-0.120
270,-0.145,-0.125
271,-0.145,-0.125
272,-0.145,-0.125
273,-0.150,-0.125
274,-0.155,-0.125
275,-0.155,-0.120
276,-0.155,-0.115
277,-0.155,-0.120
278,-0.155,-0.125
279,-0.155,-0.130
280,-0.155,-0.135
281,-0.155,-0.130
282,-0.155,-0.125
283,-0.160,-0.125
284,-0.165,-0.125
285,-0.160,-0.130
286,-0.155,-0.135
287,-0.155,-0.135
288,-0.155,-0.135
289,-0.160,-0.135
290,-0.165,-0.135
291,-0.160,-0.130
292,-0.160,-0.125
293,-0.165,-0.125
294,-0.160,-0.125
295,-0.155,-0.125
296,-0.155,-0.125
297,-0.155,-0.125
298,-0.155,-0.125
299,-0.155,-0.125
300,-0.155,-0.130
301,-0.155,-0.135
302,-0.155,-0.135
303,-0.155,-0.135
304,-0.155,-0.130
305,-0.155,-0.125
306,-0.160,-0.125
307,-0.165,-0.125
308,-0.160,-0.125
309,-0.155,-0.125
310,-0.155,-0.125
311,-0.155,-0.125
312,-0.150,-0.125
313,-0.145,-0.125
314,-0.145,-0.125
315,-0.145,-0.125
316,-0.150,-0.125
317,-0.155,-0.125
318,-0.150,-0.125
319,-0.145,-0.125
320,-0.145,-0.125
321,-0.145,-0.125
322,-0.150,-0.120
323,-0.155,-0.115
324,-0.150,-0.120
325,-0.145,-0.125
326,-0.145,-0.125
327,-0.145,-0.125
328,-0.140,-0.125
329,-0.135,-0.125
330,-0.135,-0.125
331,-0.135,-0.125
332,-0.135,-0.125
333,-0.135,-0.125
334,-0.135,-0.125
335,-0.135,-0.120
336,-0.135,-0.115
337,-0.140,-0.120
338,-0.145,-0.125
339,-0.140,-0.130
340,-0.135,-0.135
341,-0.135,-0.130
342,-0.135,-0.125
343,-0.130,-0.120
344,-0.125,-0.115
345,-0.125,-0.120
346,-0.125,-0.125
347,-0.125,-0.125
348,-0.125,-0.125
349,-0.125,-0.125
350,-0.125,-0.125
351,-0.125,-0.125
352,-0.125,-0.125
353,-0.125,-0.120
354,-0.125,-0.115
355,-0.125,-0.120
356,-0.125,-0.125
357,-0.125,-0.125
358,-0.125,-0.125
359,-0.120,-0.120
360,-0.115,-0.115
361,-0.115,-0.115
362,-0.115,-0.115
363,-0.115,-0.115
364,-0.115,-0.115
365,-0.115,-0.115
366,-0.115,-0.115
367,-0.115,-0.115
368,-0.120,-0.115
369,-0.130,-0.115
370,-0.135,-0.115
371,-0.130,-0.115
372,-0.125,-0.115
373,-0.120,-0.120
374,-0.115,-0.125
375,-0.115,-0.125
376,-0.105,-0.115
377,-0.105,-0.115
378,-0.110,-0.115
379,-0.115,-0.115
380,-0.115,-0.115
381,-0.115,-0.115
382,-0.110,-0.115
383,-0.105,-0.115
384,-0.110,-0.115
385,-0.115,-0.115
386,-0.110,-0.115
387,-0.105,-0.115
388,-0.105,-0.115
389,-0.105,-0.115
390,-0.105,-0.110
391,-0.105,-0.105
392,-0.100,-0.110
393,-0.095,-0.115
394,-0.100,-0.110
395,-0.105,-0.105
396,-0.105,-0.110
397,-0.105,-0.115
398,-0.105,-0.110
399,-0.105,-0.105
400,-0.110,-0.105
401,-0.115,-0.105
402,-0.110,-0.110
403,-0.105,-0.115
404,-0.100,-0.110
405,-0.095,-0.105
406,-0.090,-0.100
407,-0.075,-0.095
408,-0.060,-0.095
409,-0.055,-0.095
410,-0.050,-0.090
411,-0.045,-0.075
412,-0.045,-0.060
413,-0.040,-0.055
414,-0.030,-0.055
415,-0.025,-0.055
416,-0.025,-0.050
417,-0.025,-0.055
418,-0.025,-0.065
419,-0.005,-0.075
420,0.015,-0.085
421,0.015,-0.080
422,0.015,-0.075
423,0.010,-0.070
424,0.005,-0.065
425,-0.010,-0.070
426,-0.025,-0.075
427,-0.035,-0.085
428,-0.050,-0.095
429,-0.075,-0.090
430,-0.095,-0.085
431,-0.115,-0.095
432,-0.125,-0.110
433,-0.125,-0.125
434,-0.125,-0.135
435,-0.125,-0.135
436,-0.125,-0.135
437,-0.120,-0.130
438,-0.115,-0.125
439,-0.115,-0.125
440,-0.115,-0.125
441,-0.120,-0.125
442,-0.125,-0.125
443,-0.125,-0.130
444,-0.125,-0.135
445,-0.120,-0.130
446,-0.115,-0.125
447,-0.120,-0.125
448,-0.125,-0.125
449,-0.120,-0.130
450,-0.110,-0.135
451,-0.100,-0.135
452,-0.090,-0.135
453,-0.080,-0.130
454,-0.065,-0.125
455,-0.050,-0.130
456,0.000,-0.140
457,0.050,-0.150
458,0.205,-0.160
459,0.370,-0.175
460,0.690,-0.310
461,1.000,-0.440
462,1.095,-0.560
463,1.175,-0.665
464,1.050,-0.680
465,0.900,-0.695
466,0.590,-0.710
467,0.295,-0.705
468,0.025,-0.600
469,-0.175,-0.480
470,-0.180,-0.330
471,-0.175,-0.195
472,-0.130,-0.080
473,-0.095,0.005
474,-0.095,0.035
475,-0.095,0.050
476,-0.105,0.030
477,-0.120,0.010
478,-0.135,-0.005
479,-0.145,-0.015
480,-0.145,-0.020
481,-0.145,-0.025
482,-0.145,-0.025
483,-0.145,-0.025
484,-0.140,-0.025
485,-0.135,-0.025
486,-0.135,-0.025
487,-0.140,-0.025
488,-0.150,-0.030
489,-0.155,-0.035
490,-0.150,-0.035
491,-0.145,-0.035
492,-0.140,-0.030
493,-0.135,-0.025
494,-0.140,-0.025
495,-0.145,-0.025
496,-0.140,-0.025
497,-0.135,-0.025
498,-0.130,-0.025
499,-0.125,-0.025
500,-0.125,-0.025
501,-0.110,-0.020
502,-0.105,-0.015
503,-0.105,-0.015
504,-0.105,-0.015
505,-0.100,-0.010
506,-0.095,-0.005
507,-0.090,-0.005
508,-0.085,-0.005
509,-0.080,0.000
510,-0.075,0.005
511,-0.070,0.005
512,-0.065,0.005
513,-0.050,0.015
514,-0.035,0.025
515,-0.025,0.030
516,-0.010,0.035
517,0.005,0.040
518,0.015,0.045
519,0.025,0.055
520,0.040,0.065
521,0.055,0.070
522,0.070,0.080
523,0.085,0.090
524,0.100,0.100
525,0.110,0.110
526,0.125,0.120
527,0.145,0.130
528,0.165,0.140
529,0.185,0.150
530,0.205,0.160
531,0.225,0.170
532,0.245,0.180
533,0.260,0.190
534,0.270,0.195
535,0.280,0.200
536,0.295,0.205
537,0.310,0.210
538,0.315,0.220
539,0.320,0.230
540,0.320,0.235
541,0.310,0.230
542,0.295,0.220
543,0.285,0.215
544,0.265,0.200
545,0.245,0.185
546,0.220,0.170
547,0.195,0.155
548,0.165,0.135
549,0.130,0.115
550,0.095,0.085
551,0.060,0.065
552,0.030,0.045
553,0.000,0.020
554,-0.025,0.000
555,-0.050,-0.015
556,-0.075,-0.025
557,-0.095,-0.040
558,-0.105,-0.060
559,-0.115,-0.075
560,-0.125,-0.085
561,-0.135,-0.095
562,-0.145,-0.095
563,-0.155,-0.095
564,-0.160,-0.100
565,-0.165,-0.110
566,-0.165,-0.120
567,-0.165,-0.125
568,-0.170,-0.125
569,-0.175,-0.125
570,-0.175,-0.125
571,-0.175,-0.125
572,-0.175,-0.125
573,-0.175,-0.125
574,-0.180,-0.125
575,-0.185,-0.125
576,-0.185,-0.130
577,-0.185,-0.135
578,-0.180,-0.130
579,-0.175,-0.125
580,-0.175,-0.125
581,-0.175,-0.125
582,-0.170,-0.125
583,-0.165,-0.125
584,-0.165,-0.135
585,-0.165,-0.130
586,-0.165,-0.125
587,-0.165,-0.120
588,-0.165,-0.115
589,-0.175,-0.120
590,-0.185,-0.125
591,-0.175,-0.125
592,-0.165,-0.125
593,-0.165,-0.125
594,-0.165,-0.125
595,-0.165,-0.120
596,-0.165,-0.115
597,-0.160,-0.120
598,-0.155,-0.125
599,-0.155,-0.125
600,-0.155,-0.125
601,-0.155,-0.120
602,-0.155,-0.115
603,-0.155,-0.115
604,-0.155,-0.115
605,-0.170,-0.115
606,-0.175,-0.115
607,-0.170,-0.120
608,-0.165,-0.125
609,-0.165,-0.125
610,-0.165,-0.125
611,-0.165,-0.120
612,-0.165,-0.115
613,-0.160,-0.120
614,-0.155,-0.125
615,-0.160,-0.125
616,-0.165,-0.125
617,-0.170,-0.125
618,-0.175,-0.125
619,-0.170,-0.120
620,-0.170,-0.115
621,-0.180,-0.120
622,-0.185,-0.125
623,-0.180,-0.125
624,-0.175,-0.125
625,-0.175,-0.125
626,-0.165,-0.120
627,-0.165,-0.115
628,-0.165,-0.125
629,-0.165,-0.135
630,-0.165,-0.135
631,-0.165,-0.135
632,-0.165,-0.135
633,-0.165,-0.135
634,-0.160,-0.130
635,-0.155,-0.125
636,-0.165,-0.125
637,-0.175,-0.125
638,-0.165,-0.125
639,-0.155,-0.125
640,-0.155,-0.125
641,-0.155,-0.125
642,-0.155,-0.125
643,-0.155,-0.125
644,-0.155,-0.125
645,-0.155,-0.125
646,-0.155,-0.125
647,-0.155,-0.125
648,-0.155,-0.125
649,-0.155,-0.125
650,-0.150,-0.120
651,-0.145,-0.115
652,-0.150,-0.120
653,-0.155,-0.125
654,-0.150,-0.125
655,-0.145,-0.125
656,-0.145,-0.120
657,-0.145,-0.115
658,-0.145,-0.115
659,-0.145,-0.115
660,-0.145,-0.115
661,-0.145,-0.115
662,-0.140,-0.120
663,-0.135,-0.125
664,-0.135,-0.120
665,-0.135,-0.115
666,-0.135,-0.115
667,-0.140,-0.115
668,-0.145,-0.115
669,-0.140,-0.115
670,-0.135,-0.115
671,-0.135,-0.115
672,-0.135,-0.115
673,-0.130,-0.110
674,-0.125,-0.105
675,-0.125,-0.105
676,-0.125,-0.105
677,-0.125,-0.105
678,-0.125,-0.105
679,-0.125,-0.110
680,-0.125,-0.115
681,-0.125,-0.110
682,-0.125,-0.105
683,-0.120,-0.110
684,-0.115,-0.115
685,-0.115,-0.110
686,-0.115,-0.105
687,-0.115,-0.105
688,-0.115,-0.105
689,-0.115,-0.105
690,-0.115,-0.105
691,-0.115,-0.105
692,-0.115,-0.105
693,-0.115,-0.110
694,-0.115,-0.115
695,-0.115,-0.110
696,-0.115,-0.105
697,-0.110,-0.100
698,-0.105,-0.095
699,-0.110,-0.095
700,-0.115,-0.095
701,-0.110,-0.100
702,-0.105,-0.105
703,-0.105,-0.105
704,-0.105,-0.105
705,-0.105,-0.100
706,-0.105,-0.095
707,-0.105,-0.100
708,-0.105,-0.105
709,-0.105,-0.105
710,-0.100,-0.100
711,-0.095,-0.095
712,-0.105,-0.095
713,-0.115,-0.095
714,-0.110,-0.095
715,-0.105,-0.095
716,-0.100,-0.095
717,-0.095,-0.095
718,-0.095,-0.095
719,-0.095,-0.095
720,-0.090,-0.095
721,-0.085,-0.095
722,-0.090,-0.095
723,-0.095,-0.095
724,-0.095,-0.095
725,-0.095,-0.095
726,-0.090,-0.090
727,-0.085,-0.085
728,-0.095,-0.090
729,-0.105,-0.095
730,-0.090,-0.100
731,-0.085,-0.105
732,-0.085,-0.100
733,-0.085,-0.095
734,-0.085,-0.090
735,-0.085,-0.085
736,-0.080,-0.090
737,-0.075,-0.095
738,-0.075,-0.090
739,-0.065,-0.085
740,-0.040,-0.085
741,-0.035,-0.075
742,-0.030,-0.060
743,-0.025,-0.055
744,-0.030,-0.050
745,-0.025,-0.045
746,-0.010,-0.045
747,-0.005,-0.045
748,0.000,-0.040
749,0.005,-0.035
750,0.005,-0.035
751,0.020,-0.050
752,0.035,-0.055
753,0.035,-0.060
754,0.035,-0.065
755,0.035,-0.060
756,0.035,-0.055
757,0.020,-0.050
758,0.005,-0.045
759,-0.005,-0.055
760,-0.015,-0.065
761,-0.025,-0.070
762,-0.040,-0.075
763,-0.060,-0.075
764,-0.075,-0.075
765,-0.080,-0.085
766,-0.085,-0.095
767,-0.085,-0.105
768,-0.085,-0.115
769,-0.090,-0.120
770,-0.095,-0.125
771,-0.095,-0.120
772,-0.095,-0.115
773,-0.095,-0.110
774,-0.095,-0.105
775,-0.100,-0.110
776,-0.105,-0.115
777,-0.105,-0.115
778,-0.105,-0.115
779,-0.100,-0.115
780,-0.095,-0.115
781,-0.095,-0.115
782,-0.095,-0.115
783,-0.090,-0.115
784,-0.080,-0.115
785,-0.070,-0.115
786,-0.055,-0.115
787,-0.040,-0.115
788,-0.025,-0.115
789,-0.010,-0.115
790,0.070,-0.120
791,0.150,-0.130
792,0.380,-0.165
793,0.610,-0.200
794,0.895,-0.375
795,1.155,-0.550
796,1.185,-0.615
797,1.195,-0.675
798,1.005,-0.690
799,0.795,-0.705
800,0.475,-0.695
801,0.180,-0.660
802,-0.030,-0.540
803,-0.180,-0.410
804,-0.160,-0.265
805,-0.135,-0.140
806,-0.095,-0.045
807,-0.065,0.020
808,-0.075,0.040
809,-0.085,0.050
810,-0.090,0.030
811,-0.095,0.015
812,-0.105,0.005
813,-0.115,-0.005
814,-0.115,-0.005
815,-0.115,-0.005
816,-0.115,-0.005
817,-0.115,-0.005
818,-0.120,-0.010
819,-0.125,-0.015
820,-0.125,-0.015
821,-0.125,-0.015
822,-0.125,-0.015
823,-0.125,-0.015
824,-0.130,-0.015
825,-0.130,-0.015
826,-0.120,-0.020
827,-0.115,-0.025
828,-0.115,-0.020
829,-0.115,-0.015
830,-0.115,-0.010
831,-0.110,-0.005
832,-0.100,-0.005
833,-0.095,-0.005
834,-0.095,-0.015
835,-0.095,-0.010
836,-0.095,-0.005
837,-0.090,0.000
838,-0.085,0.005
839,-0.085,0.000
840,-0.085,-0.005
841,-0.075,0.000
842,-0.065,0.005
843,-0.060,0.010
844,-0.055,0.015
845,-0.045,0.020
846,-0.035,0.025
847,-0.025,0.025
848,-0.015,0.025
849,-0.005,0.030
850,0.010,0.035
851,0.025,0.040
852,0.035,0.050
853,0.045,0.065
854,0.055,0.075
855,0.070,0.080
856,0.085,0.090
857,0.110,0.100
858,0.130,0.110
859,0.145,0.120
860,0.165,0.130
861,0.185,0.140
862,0.210,0.150
863,0.235,0.160
864,0.250,0.170
865,0.260,0.180
866,0.275,0.185
867,0.290,0.190
868,0.305,0.205
869,0.320,0.220
870,0.325,0.225
871,0.330,0.225
872,0.340,0.225
873,0.350,0.225
874,0.355,0.225
875,0.355,0.225
876,0.330,0.220
877,0.315,0.215
878,0.295,0.195
879,0.275,0.175
880,0.240,0.155
881,0.200,0.135
882,0.165,0.110
883,0.130,0.085
884,0.090,0.065
885,0.050,0.040
886,0.020,0.015
887,-0.010,-0.005
888,-0.030,-0.020
889,-0.050,-0.040
890,-0.070,-0.055
891,-0.085,-0.065
892,-0.095,-0.075
893,-0.110,-0.085
894,-0.125,-0.095
895,-0.135,-0.105
896,-0.135,-0.110
897,-0.135,-0.115
898,-0.140,-0.115
899,-0.150,-0.115
900,-0.160,-0.120
901,-0.165,-0.125
902,-0.165,-0.125
903,-0.165,-0.125
904,-0.160,-0.130
905,-0.155,-0.135
906,-0.155,-0.130
907,-0.155,-0.125
908,-0.150,-0.130
909,-0.145,-0.135
910,-0.150,-0.135
911,-0.155,-0.135
912,-0.150,-0.135
913,-0.145,-0.135
914,-0.145,-0.135
915,-0.145,-0.135
916,-0.145,-0.130
917,-0.145,-0.125
918,-0.145,-0.125
919,-0.145,-0.130
920,-0.145,-0.135
921,-0.145,-0.130
922,-0.145,-0.125
923,-0.145,-0.125
924,-0.145,-0.125
925,-0.145,-0.130
926,-0.145,-0.135
927,-0.140,-0.135
928,-0.135,-0.135
929,-0.135,-0.130
930,-0.135,-0.125
931,-0.140,-0.125
932,-0.145,-0.125
933,-0.145,-0.130
934,-0.145,-0.135
935,-0.145,-0.135
936,-0.145,-0.135
937,-0.145,-0.130
938,-0.145,-0.125
939,-0.140,-0.130
940,-0.135,-0.135
941,-0.140,-0.135
942,-0.145,-0.135
943,-0.150,-0.135
944,-0.155,-0.135
945,-0.150,-0.135
946,-0.145,-0.135
947,-0.150,-0.135
948,-0.155,-0.135
949,-0.155,-0.140
950,-0.155,-0.145
951,-0.150,-0.145
952,-0.145,-0.145
953,-0.145,-0.145
954,-0.145,-0.145
955,-0.140,-0.150
956,-0.135,-0.155
957,-0.140,-0.150
958,-0.145,-0.145
959,-0.155,-0.155
960,-0.155,-0.155
961,-0.155,-0.155
962,-0.155,-0.150
963,-0.155,-0.145
964,-0.155,-0.150
965,-0.155,-0.155
966,-0.150,-0.155
967,-0.145,-0.155
968,-0.145,-0.155
969,-0.145,-0.155
970,-0.140,-0.155
971,-0.135,-0.155
972,-0.140,-0.160
973,-0.145,-0.165
974,-0.145,-0.165
975,-0.145,-0.165
976,-0.140,-0.160
977,-0.135,-0.155
978,-0.140,-0.160
979,-0.145,-0.165
980,-0.145,-0.165
981,-0.145,-0.165
982,-0.140,-0.165
983,-0.135,-0.165
984,-0.135,-0.165
985,-0.130,-0.165
986,-0.120,-0.165
987,-0.120,-0.165
988,-0.130,-0.170
989,-0.135,-0.175
990,-0.130,-0.170
991,-0.125,-0.165
992,-0.125,-0.165
993,-0.125,-0.165
994,-0.130,-0.165
995,-0.135,-0.165
996,-0.130,-0.170
997,-0.125,-0.175
998,-0.120,-0.170
999,-0.115,-0.165
1000,-0.115,-0.165
1001,-0.120,-0.165
1002,-0.115,-0.165
1003,-0.115,-0.170
1004,-0.115,-0.175
1005,-0.115,-0.175
1006,-0.115,-0.175
1007,-0.110,-0.175
1008,-0.105,-0.175
1009,-0.115,-0.175
1010,-0.125,-0.175
1011,-0.120,-0.175
1012,-0.115,-0.175
1013,-0.110,-0.180
1014,-0.105,-0.185
1015,-0.105,-0.185
1016,-0.105,-0.185
1017,-0.100,-0.180
1018,-0.095,-0.175
1019,-0.100,-0.180
1020,-0.105,-0.185
1021,-0.105,-0.185
1022,-0.105,-0.185
1023,-0.100,-0.185
1024,-0.095,-0.185
1025,-0.100,-0.185
1026,-0.105,-0.185
1027,-0.105,-0.190
1028,-0.105,-0.195
1029,-0.100,-0.195
1030,-0.095,-0.195
1031,-0.095,-0.190
1032,-0.095,-0.185
1033,-0.090,-0.190
1034,-0.085,-0.195
1035,-0.090,-0.200
1036,-0.095,-0.205
1037,-0.090,-0.200
1038,-0.085,-0.195
1039,-0.085,-0.195
1040,-0.085,-0.195
1041,-0.090,-0.195
1042,-0.095,-0.200
1043,-0.095,-0.205
1044,-0.090,-0.200
1045,-0.085,-0.195
1046,-0.085,-0.200
1047,-0.085,-0.205
1048,-0.085,-0.200
1049,-0.085,-0.195
1050,-0.080,-0.205
1051,-0.075,-0.215
1052,-0.075,-0.210
1053,-0.075,-0.205
1054,-0.080,-0.205
1055,-0.085,-0.205
1056,-0.085,-0.205
1057,-0.085,-0.205
1058,-0.085,-0.210
1059,-0.085,-0.215
1060,-0.075,-0.215
1061,-0.060,-0.215
1062,-0.045,-0.210
1063,-0.035,-0.200
1064,-0.030,-0.190
1065,-0.025,-0.185
1066,-0.025,-0.180
1067,-0.020,-0.175
1068,-0.005,-0.175
1069,0.005,-0.175
1070,0.005,-0.175
1071,0.005,-0.175
1072,0.010,-0.175
1073,0.020,-0.185
1074,0.030,-0.200
1075,0.035,-0.205
1076,0.040,-0.200
1077,0.040,-0.195
1078,0.030,-0.190
1079,0.020,-0.185
1080,0.010,-0.185
1081,0.000,-0.200
1082,-0.010,-0.220
1083,-0.035,-0.225
1084,-0.065,-0.215
1085,-0.075,-0.225
1086,-0.085,-0.235
1087,-0.095,-0.245
1088,-0.105,-0.255
1089,-0.105,-0.260
1090,-0.105,-0.265
1091,-0.100,-0.265
1092,-0.095,-0.265
1093,-0.095,-0.265
1094,-0.095,-0.265
1095,-0.095,-0.265
1096,-0.095,-0.265
1097,-0.095,-0.270
1098,-0.095,-0.275
1099,-0.095,-0.270
1100,-0.095,-0.265
1101,-0.095,-0.265
1102,-0.095,-0.265
1103,-0.090,-0.265
1104,-0.085,-0.265
1105,-0.085,-0.265
1106,-0.080,-0.265
1107,-0.065,-0.270
1108,-0.050,-0.275
1109,-0.040,-0.275
1110,0.000,-0.275
1111,0.055,-0.280
1112,0.185,-0.295
1113,0.355,-0.310
1114,0.625,-0.415
1115,0.930,-0.560
1116,1.040,-0.675
1117,1.095,-0.780
1118,0.970,-0.805
1119,0.800,-0.805
1120,0.530,-0.805
1121,0.245,-0.805
1122,0.020,-0.715
1123,-0.200,-0.610
1124,-0.190,-0.475
1125,-0.215,-0.605
1126,-0.110,-0.230
1127,-0.065,-0.125
1128,-0.070,-0.105
1129,-0.075,-0.085
1130,-0.085,-0.110
1131,-0.095,-0.135
1132,-0.100,-0.155
1133,-0.105,-0.175
1134,-0.115,-0.180
1135,-0.125,-0.185
1136,-0.120,-0.190
1137,-0.115,-0.195
1138,-0.115,-0.195
1139,-0.115,-0.195
1140,-0.110,-0.195
1141,-0.105,-0.195
1142,-0.105,-0.195
1143,-0.105,-0.195
1144,-0.110,-0.200
1145,-0.115,-0.205
1146,-0.115,-0.205
1147,-0.115,-0.205
1148,-0.110,-0.200
1149,-0.105,-0.195
1150,-0.105,-0.195
1151,-0.105,-0.195
1152,-0.100,-0.195
1153,-0.095,-0.195
1154,-0.090,-0.195
1155,-0.085,-0.195
1156,-0.080,-0.195
1157,-0.075,-0.195
1158,-0.070,-0.195
1159,-0.065,-0.195
1160,-0.060,-0.190
1161,-0.055,-0.185
1162,-0.050,-0.185
1163,-0.040,-0.185
1164,-0.030,-0.180
1165,-0.025,-0.175
1166,-0.025,-0.170
1167,-0.010,-0.160
1168,0.005,-0.155
1169,0.015,-0.150
1170,0.025,-0.145
1171,0.040,-0.140
1172,0.055,-0.135
1173,0.070,-0.130
1174,0.085,-0.125
1175,0.100,-0.120
1176,0.115,-0.115
1177,0.130,-0.110
1178,0.150,-0.105
1179,0.170,-0.090
1180,0.185,-0.075
1181,0.205,-0.070
1182,0.220,-0.065
1183,0.240,-0.060
1184,0.255,-0.055
1185,0.265,-0.045
1186,0.280,-0.035
1187,0.300,-0.030
1188,0.320,-0.025
1189,0.330,-0.020
1190,0.335,-0.015
1191,0.340,-0.010
1192,0.345,-0.005
1193,0.345,-0.005
1194,0.345,-0.005
1195,0.340,-0.005
1196,0.325,-0.005
1197,0.310,-0.010
1198,0.290,-0.020
1199,0.265,-0.030
1200,0.230,-0.045
1201,0.195,-0.060
1202,0.160,-0.075
1203,0.120,-0.090
1204,0.085,-0.105
1205,0.050,-0.120
1206,0.020,-0.140
1207,-0.010,-0.160
1208,-0.035,-0.175
1209,-0.065,-0.195
1210,-0.085,-0.205
1211,-0.105,-0.215
1212,-0.120,-0.225
1213,-0.135,-0.235
1214,-0.145,-0.245
1215,-0.155,-0.255
1216,-0.165,-0.260
1217,-0.175,-0.265
1218,-0.175,-0.265
1219,-0.175,-0.265
1220,-0.175,-0.265
1221,-0.175,-0.265
1222,-0.180,-0.270
1223,-0.185,-0.275
1224,-0.185,-0.275
1225,-0.185,-0.275
1226,-0.185,-0.275
1227,-0.185,-0.275
1228,-0.190,-0.275
1229,-0.195,-0.275
1230,-0.190,-0.275
1231,-0.185,-0.275
1232,-0.185,-0.275
1233,-0.185,-0.275
1234,-0.180,-0.270
1235,-0.175,-0.265
1236,-0.180,-0.265
1237,-0.185,-0.265
1238,-0.180,-0.270
1239,-0.175,-0.275
1240,-0.175,-0.270
1241,-0.175,-0.265
1242,-0.180,-0.265
1243,-0.185,-0.265
1244,-0.180,-0.265
1245,-0.175,-0.265
1246,-0.180,-0.270
1247,-0.185,-0.275
1248,-0.180,-0.270
1249,-0.175,-0.265
1250,-0.175,-0.265
1251,-0.175,-0.265
1252,-0.175,-0.265
1253,-0.170,-0.260
1254,-0.165,-0.255
1255,-0.170,-0.260
1256,-0.175,-0.265
1257,-0.180,-0.265
1258,-0.185,-0.265
1259,-0.185,-0.260
1260,-0.185,-0.255
1261,-0.185,-0.260
1262,-0.185,-0.265
1263,-0.185,-0.265
1264,-0.185,-0.265
1265,-0.190,-0.265
1266,-0.195,-0.265
1267,-0.190,-0.265
1268,-0.185,-0.265
1269,-0.185,-0.265
1270,-0.185,-0.265
1271,-0.190,-0.265
1272,-0.195,-0.265
1273,-0.195,-0.270
1274,-0.195,-0.275
1275,-0.195,-0.270
1276,-0.195,-0.265
1277,-0.200,-0.265
1278,-0.205,-0.265
1279,-0.200,-0.270
1280,-0.195,-0.275
1281,-0.195,-0.270
1282,-0.195,-0.265
1283,-0.195,-0.260
1284,-0.195,-0.255
1285,-0.195,-0.255
1286,-0.195,-0.255
1287,-0.190,-0.260
1288,-0.185,-0.265
1289,-0.185,-0.265
1290,-0.185,-0.265
1291,-0.190,-0.260
1292,-0.195,-0.260
1293,-0.195,-0.265
1294,-0.190,-0.265
1295,-0.185,-0.265
1296,-0.185,-0.265
1297,-0.185,-0.265
1298,-0.180,-0.260
1299,-0.175,-0.255
1300,-0.180,-0.260
1301,-0.185,-0.265
1302,-0.185,-0.260
1303,-0.185,-0.255
1304,-0.180,-0.255
1305,-0.175,-0.255
1306,-0.180,-0.250
1307,-0.185,-0.245
1308,-0.185,-0.250
1309,-0.185,-0.255
1310,-0.180,-0.255
1311,-0.175,-0.255
1312,-0.175,-0.250
1313,-0.175,-0.245
1314,-0.170,-0.245
1315,-0.165,-0.245
1316,-0.170,-0.245
1317,-0.175,-0.245
1318,-0.170,-0.245
1319,-0.165,-0.245
1320,-0.165,-0.240
1321,-0.165,-0.235
1322,-0.170,-0.240
1323,-0.175,-0.245
1324,-0.170,-0.240
1325,-0.165,-0.235
1326,-0.165,-0.235
1327,-0.165,-0.235
1328,-0.160,-0.235
1329,-0.155,-0.235
1330,-0.155,-0.235
1331,-0.155,-0.235
1332,-0.160,-0.235
1333,-0.165,-0.235
1334,-0.155,-0.235
1335,-0.150,-0.230
1336,-0.145,-0.225
1337,-0.155,-0.225
1338,-0.165,-0.225
1339,-0.160,-0.225
1340,-0.155,-0.225
1341,-0.155,-0.225
1342,-0.155,-0.225
1343,-0.150,-0.220
1344,-0.145,-0.215
1345,-0.145,-0.220
1346,-0.145,-0.225
1347,-0.145,-0.225
1348,-0.145,-0.225
1349,-0.145,-0.220
1350,-0.145,-0.215
1351,-0.145,-0.215
1352,-0.145,-0.215
1353,-0.145,-0.215
1354,-0.145,-0.215
1355,-0.145,-0.215
1356,-0.145,-0.215
1357,-0.140,-0.215
1358,-0.135,-0.215
1359,-0.135,-0.215
1360,-0.135,-0.215
1361,-0.135,-0.210
1362,-0.135,-0.205
1363,-0.135,-0.205
1364,-0.135,-0.205
1365,-0.135,-0.205
1366,-0.135,-0.205
1367,-0.130,-0.205
1368,-0.125,-0.205
1369,-0.130,-0.200
1370,-0.135,-0.195
1371,-0.135,-0.195
1372,-0.135,-0.195
1373,-0.130,-0.190
1374,-0.120,-0.185
1375,-0.125,-0.185
1376,-0.090,-0.180
1377,-0.075,-0.175
1378,-0.070,-0.165
1379,-0.065,-0.155
1380,-0.065,-0.145
1381,-0.065,-0.135
1382,-0.055,-0.135
1383,-0.045,-0.135
1384,-0.045,-0.135
1385,-0.045,-0.135
1386,-0.040,-0.140
1387,-0.035,-0.145
1388,-0.020,-0.155
1389,-0.005,-0.165
1390,0.000,-0.155
1391,0.000,-0.145
1392,-0.015,-0.140
1393,-0.025,-0.135
1394,-0.030,-0.145
1395,-0.035,-0.155
1396,-0.050,-0.160
1397,-0.065,-0.160
1398,-0.090,-0.150
1399,-0.110,-0.150
1400,-0.125,-0.160
1401,-0.135,-0.170
1402,-0.135,-0.185
1403,-0.135,-0.195
1404,-0.135,-0.195
1405,-0.135,-0.195
1406,-0.130,-0.190
1407,-0.125,-0.185
1408,-0.125,-0.185
1409,-0.125,-0.185
1410,-0.125,-0.180
1411,-0.125,-0.175
1412,-0.125,-0.180
1413,-0.125,-0.185
1414,-0.125,-0.180
1415,-0.125,-0.175
1416,-0.125,-0.175
1417,-0.120,-0.175
1418,-0.115,-0.175
1419,-0.110,-0.175
1420,-0.105,-0.175
1421,-0.085,-0.175
1422,-0.065,-0.175
1423,-0.045,-0.175
1424,-0.010,-0.175
1425,0.085,-0.185
1426,0.220,-0.200
1427,0.485,-0.240
1428,0.750,-0.320
1429,1.000,-0.500
1430,1.175,-0.635
1431,1.155,-0.675
1432,1.065,-0.705
1433,0.825,-0.715
1434,0.555,-0.720
1435,0.225,-0.700
1436,-0.020,-0.625
1437,-0.175,-0.485
1438,-0.225,-0.350
1439,-0.160,-0.210
1440,-0.120,-0.105
1441,-0.105,-0.020
1442,-0.095,0.015
1443,-0.100,0.020
1444,-0.105,0.015
1445,-0.110,-0.005
1446,-0.120,-0.025
1447,-0.130,-0.040
1448,-0.135,-0.045
1449,-0.135,-0.050
1450,-0.135,-0.055
1451,-0.135,-0.050
1452,-0.135,-0.045
1453,-0.135,-0.045
1454,-0.135,-0.045
1455,-0.130,-0.045
1456,-0.125,-0.045
1457,-0.125,-0.050
1458,-0.125,-0.055
1459,-0.135,-0.055
1460,-0.125,-0.050
1461,-0.115,-0.045
1462,-0.120,-0.045
1463,-0.125,-0.045
1464,-0.120,-0.045
1465,-0.115,-0.045
1466,-0.110,-0.040
1467,-0.105,-0.035
1468,-0.100,-0.030
1469,-0.095,-0.025
1470,-0.090,-0.025
1471,-0.085,-0.025
1472,-0.085,-0.025
1473,-0.085,-0.025
1474,-0.080,-0.020
1475,-0.075,-0.015
1476,-0.065,-0.010
1477,-0.055,-0.005
1478,-0.055,0.000
1479,-0.055,0.005
1480,-0.040,0.010
1481,-0.030,0.015
1482,-0.020,0.015
1483,-0.010,0.020
1484,0.005,0.030
1485,0.020,0.040
1486,0.035,0.050
1487,0.050,0.060
1488,0.060,0.070
1489,0.075,0.080
1490,0.090,0.090
1491,0.110,0.095
1492,0.130,0.100
1493,0.150,0.115
1494,0.170,0.130
1495,0.185,0.140
1496,0.200,0.150
1497,0.220,0.160
1498,0.240,0.170
1499,0.260,0.180
1500,0.245,0.175
1501,0.300,0.210
1502,0.315,0.225
1503,0.325,0.230
1504,0.335,0.235
1505,0.340,0.240
1506,0.345,0.245
1507,0.350,0.250
1508,0.355,0.255
1509,0.345,0.250
1510,0.335,0.245
1511,0.320,0.235
1512,0.300,0.225
1513,0.280,0.210
1514,0.255,0.190
1515,0.220,0.170
1516,0.185,0.150
1517,0.150,0.135
1518,0.115,0.115
1519,0.085,0.085
1520,0.055,0.060
1521,0.020,0.045
1522,-0.005,0.030
1523,-0.030,0.015
1524,-0.055,0.000
1525,-0.085,-0.015
1526,-0.095,-0.030
1527,-0.100,-0.040
1528,-0.110,-0.045
1529,-0.120,-0.050
1530,-0.125,-0.055
1531,-0.130,-0.060
1532,-0.135,-0.065
1533,-0.135,-0.065
1534,-0.135,-0.070
1535,-0.140,-0.080
1536,-0.145,-0.085
1537,-0.145,-0.085
1538,-0.145,-0.085
1539,-0.145,-0.080
1540,-0.145,-0.075
1541,-0.150,-0.075
1542,-0.150,-0.075
1543,-0.145,-0.075
1544,-0.140,-0.075
1545,-0.135,-0.075
1546,-0.130,-0.075
1547,-0.125,-0.075
1548,-0.125,-0.070
1549,-0.125,-0.065
1550,-0.130,-0.065
1551,-0.135,-0.065
1552,-0.135,-0.065
1553,-0.135,-0.065
1554,-0.130,-0.065
1555,-0.125,-0.065
1556,-0.130,-0.065
1557,-0.135,-0.065
1558,-0.135,-0.065
1559,-0.135,-0.065
1560,-0.130,-0.065
1561,-0.125,-0.065
1562,-0.120,-0.060
1563,-0.115,-0.055
1564,-0.115,-0.055
1565,-0.115,-0.055
1566,-0.120,-0.060
1567,-0.125,-0.065
1568,-0.125,-0.060
1569,-0.125,-0.055
1570,-0.120,-0.055
1571,-0.120,-0.055
1572,-0.130,-0.055
1573,-0.135,-0.055
1574,-0.130,-0.060
1575,-0.125,-0.065
1576,-0.125,-0.060
1577,-0.125,-0.055
1578,-0.125,-0.055
1579,-0.125,-0.055
1580,-0.120,-0.060
1581,-0.115,-0.065
1582,-0.120,-0.065
1583,-0.125,-0.065
1584,-0.125,-0.055
1585,-0.125,-0.055
1586,-0.125,-0.055
1587,-0.135,-0.055
1588,-0.145,-0.055
1589,-0.140,-0.055
1590,-0.135,-0.055
1591,-0.130,-0.060
1592,-0.125,-0.065
1593,-0.125,-0.060
1594,-0.125,-0.055
1595,-0.120,-0.055
1596,-0.115,-0.055
1597,-0.120,-0.055
1598,-0.125,-0.055
1599,-0.125,-0.055
1600,-0.125,-0.055
1601,-0.120,-0.055
1602,-0.115,-0.055
1603,-0.125,-0.055
1604,-0.135,-0.055
1605,-0.130,-0.055
1606,-0.125,-0.055
1607,-0.120,-0.055
1608,-0.115,-0.055
1609,-0.115,-0.050
1610,-0.115,-0.045
1611,-0.110,-0.045
1612,-0.105,-0.045
1613,-0.110,-0.045
1614,-0.115,-0.045
1615,-0.110,-0.045
1616,-0.105,-0.045
1617,-0.105,-0.040
1618,-0.110,-0.035
1619,-0.120,-0.035
1620,-0.125,-0.035
1621,-0.120,-0.040
1622,-0.115,-0.045
1623,-0.110,-0.045
1624,-0.105,-0.045
1625,-0.105,-0.045
1626,-0.100,-0.035
1627,-0.095,-0.035
1628,-0.100,-0.035
1629,-0.105,-0.035
1630,-0.105,-0.035
1631,-0.105,-0.035
1632,-0.100,-0.035
1633,-0.095,-0.035
1634,-0.105,-0.035
1635,-0.115,-0.035
1636,-0.110,-0.035
1637,-0.105,-0.035
1638,-0.100,-0.035
1639,-0.095,-0.035
1640,-0.090,-0.035
1641,-0.085,-0.035
1642,-0.085,-0.030
1643,-0.085,-0.025
1644,-0.090,-0.030
1645,-0.095,-0.035
1646,-0.090,-0.035
1647,-0.085,-0.035
1648,-0.085,-0.035
1649,-0.085,-0.035
1650,-0.090,-0.030
1651,-0.095,-0.025
1652,-0.090,-0.030
1653,-0.085,-0.035
1654,-0.085,-0.035
1655,-0.085,-0.035
1656,-0.080,-0.030
1657,-0.075,-0.025
1658,-0.075,-0.025
1659,-0.075,-0.025
1660,-0.075,-0.025
1661,-0.075,-0.025
1662,-0.070,-0.025
1663,-0.065,-0.025
1664,-0.070,-0.020
1665,-0.075,-0.015
1666,-0.080,-0.015
1667,-0.080,-0.020
1668,-0.075,-0.025
1669,-0.070,-0.025
1670,-0.065,-0.025
1671,-0.065,-0.025
1672,-0.065,-0.025
1673,-0.065,-0.020
1674,-0.065,-0.015
1675,-0.070,-0.020
1676,-0.075,-0.025
1677,-0.070,-0.025
1678,-0.065,-0.025
1679,-0.060,-0.025
1680,-0.055,-0.025
1681,-0.065,-0.020
1682,-0.075,-0.015
1683,-0.070,-0.020
1684,-0.065,-0.025
1685,-0.060,-0.020
1686,-0.055,-0.015
1687,-0.055,-0.015
1688,-0.055,-0.015
1689,-0.050,-0.015
1690,-0.045,-0.015
1691,-0.050,-0.015
1692,-0.055,-0.015
1693,-0.055,-0.015
1694,-0.055,-0.015
1695,-0.050,-0.015
1696,-0.045,-0.015
1697,-0.045,-0.010
1698,-0.035,-0.005
1699,-0.020,0.000
1700,-0.010,0.010
1701,0.000,0.020
1702,0.005,0.030
1703,0.010,0.040
1704,0.020,0.045
1705,0.030,0.045
1706,0.035,0.045
1707,0.040,0.045
1708,0.045,0.045
1709,0.045,0.035
1710,0.060,0.020
1711,0.075,0.005
1712,0.065,0.015
1713,0.055,0.025
1714,0.050,0.025
1715,0.045,0.025
1716,0.040,0.015
1717,0.035,0.005
1718,0.020,0.005
1719,0.000,0.005
1720,-0.020,0.005
1721,-0.035,0.005
1722,-0.050,-0.005
1723,-0.065,-0.015
1724,-0.065,-0.025
1725,-0.065,-0.035
1726,-0.065,-0.035
1727,-0.065,-0.035
1728,-0.070,-0.035
1729,-0.075,-0.035
1730,-0.075,-0.035
1731,-0.075,-0.035
1732,-0.070,-0.035
1733,-0.065,-0.035
1734,-0.065,-0.035
1735,-0.065,-0.035
1736,-0.060,-0.030
1737,-0.055,-0.025
1738,-0.060,-0.030
1739,-0.065,-0.035
1740,-0.060,-0.035
1741,-0.050,-0.035
1742,-0.040,-0.035
1743,-0.030,-0.035
1744,-0.020,-0.035
1745,0.005,-0.035
1746,0.030,-0.040
1747,0.150,-0.050
1748,0.275,-0.060
1749,0.575,-0.110
1750,0.285,-0.065
1751,1.075,-0.355
1752,1.265,-0.545
1753,1.225,-0.580
1754,1.165,-0.615
1755,0.920,-0.630
1756,0.660,-0.640
1757,0.340,-0.600
1758,0.050,-0.540
1759,-0.100,-0.395
1760,-0.200,-0.255
1761,-0.130,-0.125
1762,-0.070,-0.005
1763,-0.050,0.075
1764,-0.035,0.135
1765,-0.040,0.135
1766,-0.045,0.130
1767,-0.055,0.110
1768,-0.065,0.095
1769,-0.075,0.085
1770,-0.085,0.075
1771,-0.085,0.070
1772,-0.085,0.065
1773,-0.085,0.065
1774,-0.090,0.065
1775,-0.100,0.070
1776,-0.105,0.075
1777,-0.100,0.075
1778,-0.095,0.075
1779,-0.090,0.070
1780,-0.085,0.065
1781,-0.085,0.065
1782,-0.085,0.065
1783,-0.080,0.070
1784,-0.075,0.075
1785,-0.075,0.075
1786,-0.075,0.075
1787,-0.075,0.075
1788,-0.075,0.075
1789,-0.075,0.075
1790,-0.075,0.075
1791,-0.070,0.075
1792,-0.065,0.080
1793,-0.065,0.085
1794,-0.060,0.080
1795,-0.055,0.075
1796,-0.045,0.075
1797,-0.035,0.075
1798,-0.030,0.085
1799,-0.025,0.095
1800,-0.020,0.095
1801,-0.015,0.095
1802,-0.010,0.100
1803,-0.005,0.105
1804,0.005,0.105
1805,0.015,0.105
1806,0.025,0.115
1807,0.035,0.125
1808,0.040,0.135
1809,0.050,0.145
1810,0.070,0.145
1811,0.090,0.150
1812,0.105,0.165
1813,0.125,0.180
1814,0.145,0.190
1815,0.160,0.195
1816,0.175,0.200
1817,0.190,0.210
1818,0.205,0.220
1819,0.225,0.230
1820,0.245,0.240
1821,0.270,0.255
1822,0.295,0.270
1823,0.305,0.275
1824,0.310,0.280
1825,0.330,0.290
1826,0.350,0.300
1827,0.360,0.305
1828,0.370,0.310
1829,0.375,0.315
1830,0.380,0.320
1831,0.385,0.325
1832,0.385,0.325
1833,0.380,0.320
1834,0.365,0.305
1835,0.340,0.295
1836,0.315,0.285
1837,0.290,0.265
1838,0.265,0.245
1839,0.220,0.220
1840,0.185,0.195
1841,0.150,0.170
1842,0.120,0.145
1843,0.085,0.125
1844,0.050,0.100
1845,0.030,0.080
1846,0.010,0.065
1847,-0.010,0.050
1848,-0.030,0.030
1849,-0.045,0.015
1850,-0.060,0.005
1851,-0.075,-0.005
1852,-0.085,-0.015
1853,-0.090,-0.020
1854,-0.095,-0.025
1855,-0.110,-0.030
1856,-0.115,-0.035
1857,-0.110,-0.040
1858,-0.105,-0.045
1859,-0.110,-0.045
1860,-0.115,-0.045
1861,-0.115,-0.045
1862,-0.115,-0.045
1863,-0.115,-0.050
1864,-0.115,-0.055
1865,-0.115,-0.055
1866,-0.115,-0.055
1867,-0.115,-0.055
1868,-0.115,-0.055
1869,-0.115,-0.050
1870,-0.115,-0.045
1871,-0.115,-0.050
1872,-0.115,-0.055
1873,-0.115,-0.055
1874,-0.115,-0.055
1875,-0.115,-0.055
1876,-0.105,-0.050
1877,-0.105,-0.045
1878,-0.105,-0.050
1879,-0.105,-0.055
1880,-0.105,-0.050
1881,-0.105,-0.045
1882,-0.105,-0.050
1883,-0.105,-0.055
1884,-0.105,-0.050
1885,-0.105,-0.045
1886,-0.110,-0.045
1887,-0.115,-0.045
1888,-0.110,-0.050
1889,-0.105,-0.055
1890,-0.105,-0.055
1891,-0.105,-0.055
1892,-0.105,-0.055
1893,-0.105,-0.055
1894,-0.105,-0.055
1895,-0.105,-0.055
1896,-0.110,-0.055
1897,-0.115,-0.055
1898,-0.115,-0.055
1899,-0.115,-0.055
1900,-0.115,-0.055
1901,-0.115,-0.055
1902,-0.120,-0.060
1903,-0.125,-0.065
1904,-0.120,-0.060
1905,-0.115,-0.055
1906,-0.115,-0.060
1907,-0.115,-0.065
1908,-0.115,-0.065
1909,-0.115,-0.065
1910,-0.120,-0.065
1911,-0.125,-0.065
1912,-0.120,-0.065
1913,-0.115,-0.065
1914,-0.115,-0.065
1915,-0.115,-0.065
1916,-0.120,-0.065
1917,-0.125,-0.070
1918,-0.125,-0.075
1919,-0.120,-0.070
1920,-0.115,-0.065
1921,-0.115,-0.065
1922,-0.115,-0.065
1923,-0.110,-0.065
1924,-0.105,-0.065
1925,-0.110,-0.065
1926,-0.115,-0.065
1927,-0.115,-0.065
1928,-0.115,-0.065
1929,-0.115,-0.065
1930,-0.115,-0.065
1931,-0.120,-0.065
1932,-0.125,-0.065
1933,-0.120,-0.070
1934,-0.115,-0.075
1935,-0.115,-0.070
1936,-0.115,-0.065
1937,-0.110,-0.065
1938,-0.105,-0.065
1939,-0.100,-0.065
1940,-0.100,-0.065
1941,-0.110,-0.070
1942,-0.115,-0.075
1943,-0.110,-0.070
1944,-0.105,-0.065
1945,-0.105,-0.060
1946,-0.105,-0.055
1947,-0.110,-0.060
1948,-0.115,-0.065
1949,-0.110,-0.065
1950,-0.105,-0.065
1951,-0.100,-0.065
1952,-0.095,-0.065
1953,-0.095,-0.065
1954,-0.095,-0.065
1955,-0.090,-0.065
1956,-0.085,-0.065
1957,-0.090,-0.070
1958,-0.095,-0.075
1959,-0.095,-0.065
1960,-0.090,-0.065
1961,-0.085,-0.065
1962,-0.095,-0.065
1963,-0.105,-0.065
1964,-0.095,-0.065
1965,-0.085,-0.065
1966,-0.085,-0.065
1967,-0.085,-0.065
1968,-0.085,-0.065
1969,-0.085,-0.065
1970,-0.080,-0.065
1971,-0.075,-0.065
1972,-0.080,-0.065
1973,-0.085,-0.065
1974,-0.085,-0.065
1975,-0.085,-0.065
1976,-0.080,-0.065
1977,-0.075,-0.065
1978,-0.085,-0.065
1979,-0.095,-0.065
1980,-0.090,-0.065
1981,-0.085,-0.065
1982,-0.080,-0.065
1983,-0.075,-0.065
1984,-0.075,-0.065
1985,-0.075,-0.065
1986,-0.070,-0.065
1987,-0.065,-0.065
1988,-0.070,-0.065
1989,-0.075,-0.065
1990,-0.075,-0.065
1991,-0.075,-0.065
1992,-0.070,-0.065
1993,-0.065,-0.065
1994,-0.070,-0.065
1995,-0.075,-0.065
1996,-0.070,-0.070
1997,-0.065,-0.075
1998,-0.065,-0.070
1999,-0.065,-0.065
2000,-0.065,-0.065
2001,-0.065,-0.065
2002,-0.065,-0.065
2003,-0.070,-0.065
2004,-0.075,-0.065
2005,-0.070,-0.065
2006,-0.065,-0.065
2007,-0.065,-0.065
2008,-0.065,-0.065
2009,-0.070,-0.065
2010,-0.075,-0.065
2011,-0.070,-0.065
2012,-0.065,-0.065
2013,-0.065,-0.065
2014,-0.065,-0.065
2015,-0.060,-0.065
2016,-0.050,-0.065
2017,-0.035,-0.060
2018,-0.025,-0.055
2019,-0.015,-0.050
2020,-0.005,-0.045
2021,-0.010,-0.030
2022,-0.010,-0.025
2023,0.000,-0.020
2024,0.005,-0.015
2025,0.010,-0.015
2026,0.015,-0.015
2027,0.015,-0.020
2028,0.025,-0.025
2029,0.040,-0.030
2030,0.050,-0.035
2031,0.060,-0.040
2032,0.065,-0.040
2033,0.060,-0.030
2034,0.050,-0.025
2035,0.040,-0.030
2036,0.035,-0.035
2037,0.030,-0.035
2038,0.010,-0.040
2039,-0.010,-0.050
2040,-0.030,-0.055
2041,-0.050,-0.050
2042,-0.065,-0.055
2043,-0.075,-0.065
2044,-0.075,-0.080
2045,-0.075,-0.095
2046,-0.075,-0.090
2047,-0.075,-0.085
2048,-0.075,-0.085
2049,-0.075,-0.085
2050,-0.075,-0.090
2051,-0.075,-0.095
2052,-0.075,-0.090
2053,-0.075,-0.085
2054,-0.075,-0.090
2055,-0.075,-0.095
2056,-0.075,-0.090
2057,-0.075,-0.085
2058,-0.075,-0.085
2059,-0.075,-0.085
2060,-0.065,-0.090
2061,-0.055,-0.095
2062,-0.050,-0.090
2063,-0.040,-0.085
2064,-0.025,-0.085
2065,-0.005,-0.090
2066,0.020,-0.100
2067,0.095,-0.110
2068,0.205,-0.120
2069,0.405,-0.160
2070,0.665,-0.215
2071,0.890,-0.350
2072,1.105,-0.520
2073,1.130,-0.595
2074,1.080,-0.635
2075,0.885,-0.645
2076,0.650,-0.650
2077,0.370,-0.630
2078,0.085,-0.590
2079,-0.070,-0.470
2080,-0.200,-0.340
2081,-0.150,-0.205
2082,-0.080,-0.070
2083,-0.065,0.010
2084,-0.045,0.095
2085,-0.055,0.095
2086,-0.065,0.095
2087,-0.075,0.070
2088,-0.085,0.045
2089,-0.085,0.025
2090,-0.085,0.005
2091,-0.090,0.005
2092,-0.095,0.005
2093,-0.090,0.005
2094,-0.085,0.005
2095,-0.085,0.005
2096,-0.085,0.005
2097,-0.090,0.000
2098,-0.095,-0.005
2099,-0.090,-0.005
2100,-0.085,-0.005
2101,-0.080,-0.005
2102,-0.075,-0.005
2103,-0.085,-0.005
2104,-0.095,-0.005
2105,-0.080,-0.005
2106,-0.075,-0.005
2107,-0.070,0.000
2108,-0.065,0.005
2109,-0.060,0.005
2110,-0.055,0.005
2111,-0.050,0.005
2112,-0.045,0.005
2113,-0.045,0.000
2114,-0.045,0.000
2115,-0.040,0.010
2116,-0.035,0.015
2117,-0.030,0.010
2118,-0.025,0.010
2119,-0.020,0.020
2120,-0.010,0.025
2121,0.000,0.025
2122,0.010,0.025
2123,0.020,0.025
2124,0.030,0.025
2125,0.025,0.025
2126,0.060,0.035
2127,0.075,0.045
2128,0.090,0.050
2129,0.105,0.055
2130,0.120,0.060
2131,0.135,0.065
2132,0.155,0.075
2133,0.175,0.085
2134,0.185,0.095
2135,0.200,0.105
2136,0.225,0.110
2137,0.245,0.115
2138,0.260,0.120
2139,0.280,0.130
2140,0.295,0.145
2141,0.310,0.155
2142,0.330,0.155
2143,0.350,0.155
2144,0.365,0.160
2145,0.375,0.165
2146,0.380,0.170
2147,0.385,0.175
2148,0.390,0.180
2149,0.390,0.185
2150,0.375,0.185
2151,0.360,0.180
2152,0.345,0.170
2153,0.325,0.160
2154,0.305,0.150
2155,0.270,0.135
2156,0.230,0.120
2157,0.200,0.105
2158,0.175,0.090
2159,0.140,0.070
2160,0.105,0.050
2161,0.065,0.030
2162,0.030,0.010
2163,0.010,0.000
2164,-0.010,-0.010
2165,-0.035,-0.025
2166,-0.060,-0.040
2167,-0.075,-0.055
2168,-0.085,-0.065
2169,-0.095,-0.075
2170,-0.105,-0.085
2171,-0.115,-0.085
2172,-0.125,-0.085
2173,-0.120,-0.085
2174,-0.115,-0.085
2175,-0.125,-0.090
2176,-0.135,-0.095
2177,-0.140,-0.100
2178,-0.145,-0.105
2179,-0.140,-0.105
2180,-0.135,-0.105
2181,-0.140,-0.110
2182,-0.145,-0.115
2183,-0.145,-0.115
2184,-0.145,-0.115
2185,-0.140,-0.110
2186,-0.135,-0.105
2187,-0.130,-0.110
2188,-0.125,-0.115
2189,-0.125,-0.115
2190,-0.125,-0.115
2191,-0.130,-0.115
2192,-0.135,-0.115
2193,-0.130,-0.115
2194,-0.125,-0.115
2195,-0.125,-0.110
2196,-0.125,-0.105
2197,-0.130,-0.110
2198,-0.135,-0.115
2199,-0.130,-0.115
2200,-0.125,-0.115
2201,-0.120,-0.115
2202,-0.115,-0.115
2203,-0.115,-0.115
2204,-0.115,-0.115
2205,-0.115,-0.115
2206,-0.115,-0.115
2207,-0.120,-0.115
2208,-0.125,-0.115
2209,-0.125,-0.115
2210,-0.125,-0.115
2211,-0.125,-0.115
2212,-0.130,-0.115
2213,-0.135,-0.115
2214,-0.135,-0.115
2215,-0.135,-0.115
2216,-0.135,-0.115
2217,-0.135,-0.115
2218,-0.135,-0.115
2219,-0.135,-0.115
2220,-0.130,-0.115
2221,-0.125,-0.115
2222,-0.130,-0.120
2223,-0.135,-0.125
2224,-0.135,-0.125
2225,-0.135,-0.125
2226,-0.140,-0.125
2227,-0.145,-0.125
2228,-0.145,-0.125
2229,-0.145,-0.125
2230,-0.145,-0.125
2231,-0.145,-0.125
2232,-0.140,-0.125
2233,-0.135,-0.125
2234,-0.135,-0.125
2235,-0.135,-0.125
2236,-0.135,-0.125
2237,-0.135,-0.125
2238,-0.135,-0.125
2239,-0.135,-0.125
2240,-0.135,-0.130
2241,-0.135,-0.135
2242,-0.135,-0.130
2243,-0.135,-0.125
2244,-0.135,-0.125
2245,-0.135,-0.125
2246,-0.135,-0.125
2247,-0.135,-0.125
2248,-0.135,-0.130
2249,-0.135,-0.135
2250,-0.135,-0.135
2251,-0.125,-0.130
2252,-0.125,-0.125
2253,-0.125,-0.125
2254,-0.125,-0.125
2255,-0.125,-0.125
2256,-0.125,-0.125
2257,-0.130,-0.130
2258,-0.135,-0.135
2259,-0.130,-0.130
2260,-0.125,-0.125
2261,-0.130,-0.130
2262,-0.135,-0.135
2263,-0.130,-0.135
2264,-0.125,-0.135
2265,-0.125,-0.135
2266,-0.125,-0.135
2267,-0.125,-0.130
2268,-0.125,-0.125
2269,-0.120,-0.130
2270,-0.115,-0.135
2271,-0.120,-0.135
2272,-0.125,-0.135
2273,-0.120,-0.135
2274,-0.115,-0.135
2275,-0.115,-0.130
2276,-0.115,-0.125
2277,-0.120,-0.130
2278,-0.125,-0.135
2279,-0.120,-0.135
2280,-0.115,-0.135
2281,-0.115,-0.135
2282,-0.115,-0.135
2283,-0.115,-0.130
2284,-0.115,-0.125
2285,-0.110,-0.125
2286,-0.105,-0.125
2287,-0.105,-0.130
2288,-0.105,-0.135
2289,-0.105,-0.135
2290,-0.105,-0.135
2291,-0.105,-0.130
2292,-0.110,-0.125
2293,-0.115,-0.125
2294,-0.110,-0.130
2295,-0.105,-0.135
2296,-0.105,-0.135
2297,-0.105,-0.135
2298,-0.105,-0.130
2299,-0.105,-0.125
2300,-0.100,-0.125
2301,-0.095,-0.125
2302,-0.100,-0.125
2303,-0.105,-0.125
2304,-0.100,-0.125
2305,-0.095,-0.125
2306,-0.100,-0.125
2307,-0.105,-0.125
2308,-0.100,-0.125
2309,-0.095,-0.125
2310,-0.095,-0.125
2311,-0.095,-0.125
2312,-0.090,-0.125
2313,-0.085,-0.125
2314,-0.085,-0.125
2315,-0.085,-0.125
2316,-0.085,-0.130
2317,-0.085,-0.135
2318,-0.080,-0.130
2319,-0.070,-0.120
2320,-0.050,-0.110
2321,-0.045,-0.105
2322,-0.050,-0.100
2323,-0.055,-0.095
2324,-0.050,-0.090
2325,-0.035,-0.085
2326,-0.020,-0.085
2327,-0.015,-0.085
2328,-0.010,-0.080
2329,-0.005,-0.075
2330,0.000,-0.080
2331,0.005,-0.090
2332,0.010,-0.100
2333,0.015,-0.105
2334,0.025,-0.095
2335,0.020,-0.090
2336,0.015,-0.085
2337,0.000,-0.090
2338,-0.015,-0.095
2339,-0.025,-0.110
2340,-0.035,-0.125
2341,-0.060,-0.120
2342,-0.085,-0.115
2343,-0.090,-0.120
2344,-0.095,-0.125
2345,-0.100,-0.135
2346,-0.105,-0.145
2347,-0.105,-0.150
2348,-0.105,-0.155
2349,-0.105,-0.155
2350,-0.105,-0.155
2351,-0.105,-0.155
2352,-0.105,-0.155
2353,-0.115,-0.150
2354,-0.125,-0.145
2355,-0.120,-0.150
2356,-0.115,-0.155
2357,-0.110,-0.155
2358,-0.105,-0.155
2359,-0.100,-0.150
2360,-0.095,-0.145
2361,-0.090,-0.145
2362,-0.085,-0.145
2363,-0.085,-0.145
2364,-0.075,-0.145
2365,-0.060,-0.145
2366,-0.040,-0.145
2367,-0.020,-0.150
2368,0.055,-0.160
2369,0.150,-0.170
2370,0.370,-0.205
2371,0.610,-0.240
2372,0.865,-0.400
2373,1.120,-0.575
2374,1.145,-0.630
2375,1.135,-0.585
2376,0.935,-0.695
2377,0.705,-0.705
2378,0.395,-0.700
2379,0.100,-0.685
2380,-0.085,-0.570
2381,-0.240,-0.445
2382,-0.185,-0.305
2383,-0.135,-0.170
2384,-0.115,-0.065
2385,-0.095,0.015
2386,-0.095,0.025
2387,-0.095,0.030
2388,-0.105,0.010
2389,-0.115,-0.010
2390,-0.120,-0.030
2391,-0.125,-0.045
2392,-0.125,-0.050
2393,-0.125,-0.055
2394,-0.125,-0.050
2395,-0.125,-0.045
2396,-0.125,-0.050
2397,-0.125,-0.055
2398,-0.125,-0.050
2399,-0.125,-0.045
2400,-0.130,-0.045
2401,-0.135,-0.045
2402,-0.130,-0.050
2403,-0.125,-0.055
2404,-0.120,-0.055
2405,-0.115,-0.055
2406,-0.115,-0.050
2407,-0.115,-0.045
2408,-0.110,-0.045
2409,-0.105,-0.045
2410,-0.105,-0.045
2411,-0.105,-0.045
2412,-0.105,-0.045
2413,-0.105,-0.045
2414,-0.100,-0.040
2415,-0.095,-0.035
2416,-0.095,-0.035
2417,-0.090,-0.035
2418,-0.085,-0.035
2419,-0.075,-0.035
2420,-0.065,-0.035
2421,-0.055,-0.030
2422,-0.045,-0.025
2423,-0.035,-0.020
2424,-0.025,-0.015
2425,-0.020,-0.010
2426,-0.015,-0.005
2427,-0.010,0.000
2428,0.000,0.005
2429,0.020,0.010
2430,0.035,0.015
2431,0.040,0.025
2432,0.050,0.035
2433,0.070,0.040
2434,0.090,0.045
2435,0.110,0.055
2436,0.130,0.065
2437,0.145,0.075
2438,0.165,0.090
2439,0.185,0.100
2440,0.200,0.110
2441,0.215,0.120
2442,0.230,0.125
2443,0.245,0.125
2444,0.260,0.130
2445,0.280,0.150
2446,0.285,0.160
2447,0.290,0.170
2448,0.310,0.175
2449,0.330,0.180
2450,0.335,0.185
2451,0.335,0.190
2452,0.335,0.195
2453,0.330,0.190
2454,0.320,0.185
2455,0.310,0.180
2456,0.280,0.165
2457,0.250,0.150
2458,0.220,0.130
2459,0.185,0.105
2460,0.150,0.090
2461,0.115,0.075
2462,0.080,0.055
2463,0.045,0.035
2464,0.015,0.010
2465,-0.015,-0.015
2466,-0.035,-0.035
2467,-0.055,-0.055
2468,-0.075,-0.065
2469,-0.095,-0.075
2470,-0.110,-0.090
2471,-0.125,-0.105
2472,-0.135,-0.110
2473,-0.145,-0.115
2474,-0.155,-0.125
2475,-0.165,-0.135
2476,-0.165,-0.140
2477,-0.165,-0.145
2478,-0.175,-0.145
2479,-0.185,-0.145
2480,-0.185,-0.150
2481,-0.185,-0.155
2482,-0.180,-0.155
2483,-0.175,-0.155
2484,-0.175,-0.155
2485,-0.175,-0.155
2486,-0.170,-0.155
2487,-0.165,-0.155
2488,-0.170,-0.155
2489,-0.175,-0.155
2490,-0.175,-0.160
2491,-0.175,-0.165
2492,-0.175,-0.160
2493,-0.175,-0.155
2494,-0.175,-0.150
2495,-0.175,-0.145
2496,-0.175,-0.150
2497,-0.175,-0.155
2498,-0.170,-0.155
2499,-0.165,-0.155
2500,-0.165,-0.155
2501,-0.160,-0.150
2502,-0.155,-0.145
2503,-0.160,-0.150
2504,-0.165,-0.155
2505,-0.165,-0.150
2506,-0.165,-0.145
2507,-0.165,-0.145
2508,-0.165,-0.145
2509,-0.170,-0.145
2510,-0.175,-0.145
2511,-0.170,-0.150
2512,-0.165,-0.155
2513,-0.165,-0.150
2514,-0.165,-0.145
2515,-0.165,-0.150
2516,-0.165,-0.155
2517,-0.165,-0.150
2518,-0.165,-0.145
2519,-0.170,-0.150
2520,-0.175,-0.155
2521,-0.170,-0.155
2522,-0.165,-0.155
2523,-0.165,-0.155
2524,-0.170,-0.155
2525,-0.180,-0.155
2526,-0.185,-0.155
2527,-0.180,-0.155
2528,-0.175,-0.155
2529,-0.170,-0.155
2530,-0.165,-0.155
2531,-0.170,-0.155
2532,-0.175,-0.155
2533,-0.170,-0.155
2534,-0.165,-0.155
2535,-0.170,-0.155
2536,-0.175,-0.155
2537,-0.175,-0.155
2538,-0.175,-0.155
2539,-0.175,-0.155
2540,-0.175,-0.155
2541,-0.180,-0.155
2542,-0.185,-0.155
2543,-0.185,-0.155
2544,-0.180,-0.160
2545,-0.175,-0.165
2546,-0.175,-0.160
2547,-0.175,-0.155
2548,-0.165,-0.155
2549,-0.155,-0.155
2550,-0.160,-0.155
2551,-0.165,-0.155
2552,-0.170,-0.150
2553,-0.175,-0.145
2554,-0.175,-0.150
2555,-0.175,-0.155
2556,-0.175,-0.155
2557,-0.175,-0.155
2558,-0.175,-0.155
2559,-0.175,-0.155
2560,-0.170,-0.155
2561,-0.165,-0.155
2562,-0.165,-0.155
2563,-0.165,-0.155
2564,-0.160,-0.155
2565,-0.155,-0.155
2566,-0.155,-0.155
2567,-0.155,-0.155
2568,-0.155,-0.155
2569,-0.155,-0.155
2570,-0.155,-0.155
2571,-0.155,-0.150
2572,-0.155,-0.140
2573,-0.155,-0.135
2574,-0.155,-0.140
2575,-0.155,-0.145
2576,-0.155,-0.145
2577,-0.155,-0.145
2578,-0.155,-0.145
2579,-0.155,-0.145
2580,-0.150,-0.140
2581,-0.145,-0.135
2582,-0.145,-0.140
2583,-0.145,-0.145
2584,-0.145,-0.145
2585,-0.145,-0.145
2586,-0.145,-0.145
2587,-0.145,-0.140
2588,-0.145,-0.135
2589,-0.145,-0.140
2590,-0.145,-0.145
2591,-0.140,-0.145
2592,-0.135,-0.145
2593,-0.135,-0.145
2594,-0.135,-0.145
2595,-0.135,-0.140
2596,-0.135,-0.135
2597,-0.135,-0.140
2598,-0.135,-0.145
2599,-0.135,-0.140
2600,-0.135,-0.135
2601,-0.135,-0.140
2602,-0.135,-0.145
2603,-0.135,-0.140
2604,-0.135,-0.135
2605,-0.135,-0.140
2606,-0.135,-0.145
2607,-0.130,-0.145
2608,-0.125,-0.145
2609,-0.125,-0.140
2610,-0.125,-0.135
2611,-0.120,-0.130
2612,-0.115,-0.125
2613,-0.115,-0.130
2614,-0.115,-0.135
2615,-0.120,-0.135
2616,-0.125,-0.135
2617,-0.125,-0.135
2618,-0.125,-0.135
2619,-0.120,-0.130
2620,-0.115,-0.125
2621,-0.120,-0.125
2622,-0.125,-0.125
2623,-0.120,-0.125
2624,-0.115,-0.125
2625,-0.115,-0.125
2626,-0.115,-0.130
2627,-0.115,-0.125
2628,-0.110,-0.125
2629,-0.105,-0.125
2630,-0.105,-0.125
2631,-0.105,-0.125
2632,-0.105,-0.125
2633,-0.105,-0.125
2634,-0.085,-0.120
2635,-0.065,-0.115
2636,-0.060,-0.105
2637,-0.055,-0.095
2638,-0.055,-0.090
2639,-0.055,-0.085
2640,-0.045,-0.075
2641,-0.035,-0.065
2642,-0.025,-0.065
2643,-0.015,-0.065
2644,-0.015,-0.075
2645,-0.010,-0.085
2646,0.005,-0.090
2647,0.015,-0.095
2648,0.015,-0.095
2649,0.010,-0.090
2650,0.000,-0.080
2651,-0.010,-0.075
2652,-0.020,-0.080
2653,-0.030,-0.095
2654,-0.040,-0.110
2655,-0.055,-0.115
2656,-0.075,-0.110
2657,-0.090,-0.105
2658,-0.100,-0.110
2659,-0.110,-0.125
2660,-0.120,-0.140
2661,-0.125,-0.145
2662,-0.120,-0.150
2663,-0.115,-0.155
2664,-0.115,-0.150
2665,-0.115,-0.145
2666,-0.120,-0.145
2667,-0.125,-0.145
2668,-0.125,-0.145
2669,-0.120,-0.145
2670,-0.115,-0.145
2671,-0.115,-0.145
2672,-0.115,-0.145
2673,-0.110,-0.145
2674,-0.105,-0.145
2675,-0.105,-0.145
2676,-0.105,-0.145
2677,-0.095,-0.145
2678,-0.085,-0.145
2679,-0.070,-0.145
2680,-0.045,-0.145
2681,0.005,-0.150
2682,0.090,-0.160
2683,0.255,-0.175
2684,0.485,-0.230
2685,0.810,-0.350
2686,1.050,-0.475
2687,1.190,-0.620
2688,1.220,-0.700
2689,1.130,-0.715
2690,0.910,-0.735
2691,0.580,-0.755
2692,0.265,-0.715
2693,-0.040,-0.620
2694,-0.165,-0.485
2695,-0.185,-0.325
2696,-0.165,-0.195
2697,-0.120,-0.080
2698,-0.105,-0.015
2699,-0.105,0.030
2700,-0.105,0.030
2701,-0.110,0.010
2702,-0.120,-0.005
2703,-0.130,-0.020
2704,-0.135,-0.025
2705,-0.135,-0.030
2706,-0.135,-0.035
2707,-0.135,-0.035
2708,-0.135,-0.035
2709,-0.145,-0.035
2710,-0.140,-0.035
2711,-0.135,-0.035
2712,-0.140,-0.035
2713,-0.145,-0.035
2714,-0.145,-0.035
2715,-0.145,-0.035
2716,-0.140,-0.035
2717,-0.135,-0.035
2718,-0.135,-0.035
2719,-0.135,-0.035
2720,-0.130,-0.035
2721,-0.125,-0.035
2722,-0.125,-0.035
2723,-0.125,-0.035
2724,-0.120,-0.030
2725,-0.115,-0.025
2726,-0.110,-0.025
2727,-0.105,-0.025
2728,-0.110,-0.025
2729,-0.115,-0.025
2730,-0.100,-0.020
2731,-0.095,-0.015
2732,-0.090,-0.015
2733,-0.085,-0.015
2734,-0.080,-0.010
2735,-0.070,-0.005
2736,-0.055,-0.005
2737,-0.045,-0.005
2738,-0.040,0.000
2739,-0.030,0.005
2740,-0.020,0.010
2741,-0.010,0.020
2742,0.000,0.030
2743,0.010,0.035
2744,0.020,0.040
2745,0.040,0.050
2746,0.060,0.060
2747,0.075,0.070
2748,0.090,0.080
2749,0.110,0.090
2750,0.095,0.085
2751,0.160,0.115
2752,0.185,0.125
2753,0.195,0.135
2754,0.205,0.145
2755,0.220,0.155
2756,0.235,0.165
2757,0.255,0.175
2758,0.275,0.185
2759,0.280,0.195
2760,0.285,0.205
2761,0.300,0.210
2762,0.315,0.215
2763,0.325,0.220
2764,0.335,0.225
2765,0.335,0.225
2766,0.335,0.225
2767,0.330,0.220
2768,0.320,0.215
2769,0.300,0.205
2770,0.275,0.190
2771,0.240,0.165
2772,0.210,0.150
2773,0.180,0.135
2774,0.145,0.110
2775,0.105,0.080
2776,0.070,0.055
2777,0.040,0.035
2778,0.010,0.015
2779,-0.015,-0.005
2780,-0.035,-0.025
2781,-0.055,-0.045
2782,-0.075,-0.060
2783,-0.090,-0.070
2784,-0.105,-0.080
2785,-0.120,-0.090
2786,-0.130,-0.100
2787,-0.140,-0.110
2788,-0.145,-0.115
2789,-0.150,-0.120
2790,-0.160,-0.125
2791,-0.170,-0.130
2792,-0.170,-0.140
2793,-0.165,-0.145
2794,-0.165,-0.145
2795,-0.165,-0.145
2796,-0.165,-0.145
2797,-0.165,-0.145
2798,-0.165,-0.145
2799,-0.165,-0.145
2800,-0.165,-0.145
2801,-0.165,-0.145
2802,-0.165,-0.145
2803,-0.165,-0.145
2804,-0.160,-0.145
2805,-0.155,-0.145
2806,-0.160,-0.145
2807,-0.165,-0.145
2808,-0.165,-0.145
2809,-0.165,-0.145
2810,-0.160,-0.145
2811,-0.155,-0.145
2812,-0.160,-0.145
2813,-0.160,-0.145
2814,-0.150,-0.145
2815,-0.145,-0.145
2816,-0.150,-0.145
2817,-0.155,-0.145
2818,-0.155,-0.145
2819,-0.155,-0.145
2820,-0.155,-0.145
2821,-0.155,-0.145
2822,-0.160,-0.145
2823,-0.165,-0.145
2824,-0.160,-0.145
2825,-0.155,-0.145
2826,-0.155,-0.145
2827,-0.155,-0.145
2828,-0.155,-0.145
2829,-0.155,-0.145
2830,-0.150,-0.145
2831,-0.150,-0.145
2832,-0.160,-0.150
2833,-0.165,-0.155
2834,-0.155,-0.145
2835,-0.155,-0.145
2836,-0.155,-0.145
2837,-0.165,-0.145
2838,-0.175,-0.145
2839,-0.170,-0.150
2840,-0.165,-0.155
2841,-0.165,-0.155
2842,-0.165,-0.155
2843,-0.160,-0.155
2844,-0.155,-0.155
2845,-0.160,-0.155
2846,-0.165,-0.155
2847,-0.165,-0.155
2848,-0.165,-0.155
2849,-0.165,-0.150
2850,-0.165,-0.145
2851,-0.160,-0.145
2852,-0.155,-0.145
2853,-0.165,-0.150
2854,-0.175,-0.155
2855,-0.170,-0.155
2856,-0.165,-0.155
2857,-0.160,-0.155
2858,-0.155,-0.155
2859,-0.160,-0.155
2860,-0.165,-0.155
2861,-0.160,-0.155
2862,-0.155,-0.155
2863,-0.160,-0.155
2864,-0.165,-0.155
2865,-0.160,-0.155
2866,-0.155,-0.155
2867,-0.155,-0.150
2868,-0.160,-0.145
2869,-0.170,-0.150
2870,-0.175,-0.155
2871,-0.170,-0.155
2872,-0.165,-0.155
2873,-0.160,-0.155
2874,-0.155,-0.155
2875,-0.155,-0.155
2876,-0.150,-0.145
2877,-0.145,-0.145
2878,-0.150,-0.150
2879,-0.155,-0.155
2880,-0.150,-0.155
2881,-0.145,-0.155
2882,-0.145,-0.155
2883,-0.145,-0.155
2884,-0.150,-0.150
2885,-0.155,-0.145
2886,-0.155,-0.150
2887,-0.155,-0.155
2888,-0.150,-0.155
2889,-0.145,-0.155
2890,-0.140,-0.150
2891,-0.135,-0.145
2892,-0.135,-0.145
2893,-0.135,-0.145
2894,-0.140,-0.150
2895,-0.145,-0.155
2896,-0.145,-0.150
2897,-0.145,-0.145
2898,-0.140,-0.150
2899,-0.135,-0.155
2900,-0.140,-0.150
2901,-0.145,-0.145
2902,-0.140,-0.145
2903,-0.135,-0.145
2904,-0.135,-0.145
2905,-0.135,-0.145
2906,-0.135,-0.145
2907,-0.135,-0.145
2908,-0.135,-0.145
2909,-0.135,-0.145
2910,-0.135,-0.145
2911,-0.135,-0.145
2912,-0.130,-0.150
2913,-0.125,-0.155
2914,-0.125,-0.150
2915,-0.125,-0.145
2916,-0.130,-0.145
2917,-0.135,-0.145
2918,-0.135,-0.145
2919,-0.130,-0.145
2920,-0.125,-0.145
2921,-0.125,-0.145
2922,-0.125,-0.145
2923,-0.125,-0.140
2924,-0.125,-0.135
2925,-0.130,-0.140
2926,-0.135,-0.145
2927,-0.130,-0.140
2928,-0.125,-0.135
2929,-0.125,-0.140
2930,-0.125,-0.145
2931,-0.130,-0.140
2932,-0.135,-0.135
2933,-0.130,-0.140
2934,-0.125,-0.145
2935,-0.120,-0.140
2936,-0.115,-0.135
2937,-0.115,-0.135
2938,-0.115,-0.135
2939,-0.115,-0.135
2940,-0.115,-0.135
2941,-0.115,-0.135
2942,-0.115,-0.135
2943,-0.115,-0.135
2944,-0.115,-0.135
2945,-0.115,-0.135
2946,-0.115,-0.135
2947,-0.115,-0.130
2948,-0.115,-0.125
2949,-0.115,-0.130
2950,-0.115,-0.135
2951,-0.115,-0.135
2952,-0.115,-0.135
2953,-0.110,-0.135
2954,-0.105,-0.135
2955,-0.105,-0.130
2956,-0.105,-0.125
2957,-0.105,-0.130
2958,-0.105,-0.135
2959,-0.105,-0.135
2960,-0.100,-0.135
2961,-0.095,-0.135
2962,-0.095,-0.130
2963,-0.095,-0.125
2964,-0.085,-0.120
2965,-0.075,-0.115
2966,-0.065,-0.110
2967,-0.055,-0.105
2968,-0.055,-0.095
2969,-0.050,-0.085
2970,-0.030,-0.080
2971,-0.015,-0.075
2972,-0.015,-0.075
2973,-0.015,-0.075
2974,-0.015,-0.080
2975,-0.010,-0.085
2976,0.005,-0.095
2977,0.015,-0.105
2978,0.010,-0.100
2979,0.005,-0.095
2980,0.000,-0.090
2981,-0.005,-0.085
2982,-0.010,-0.090
2983,-0.020,-0.095
2984,-0.030,-0.100
2985,-0.050,-0.105
2986,-0.075,-0.100
2987,-0.095,-0.105
2988,-0.110,-0.120
2989,-0.115,-0.130
2990,-0.120,-0.140
2991,-0.125,-0.145
2992,-0.125,-0.150
2993,-0.125,-0.155
2994,-0.125,-0.150
2995,-0.125,-0.145
2996,-0.125,-0.145
2997,-0.125,-0.145
2998,-0.125,-0.145
2999,-0.125,-0.145
3000,-0.125,-0.145
3001,-0.120,-0.145
3002,-0.115,-0.145
3003,-0.115,-0.145
3004,-0.115,-0.145
3005,-0.110,-0.145
3006,-0.105,-0.145
3007,-0.100,-0.145
3008,-0.095,-0.145
3009,-0.085,-0.145
3010,-0.075,-0.145
3011,-0.050,-0.145
3012,-0.010,-0.145
3013,0.080,-0.160
3014,0.230,-0.180
3015,0.490,-0.205
3016,0.745,-0.290
3017,0.985,-0.460
3018,1.120,-0.590
3019,1.105,-0.650
3020,0.985,-0.685
3021,0.745,-0.700
3022,0.470,-0.695
3023,0.170,-0.675
3024,-0.050,-0.595
3025,-0.210,-0.465
3026,-0.235,-0.335
3027,-0.170,-0.205
3028,-0.130,-0.100
3029,-0.105,-0.015
3030,-0.095,0.025
3031,-0.100,0.040
3032,-0.105,0.035
3033,-0.110,0.020
3034,-0.120,0.000
3035,-0.130,-0.020
3036,-0.135,-0.030
3037,-0.140,-0.040
3038,-0.145,-0.045
3039,-0.145,-0.045
3040,-0.145,-0.045
3041,-0.145,-0.045
3042,-0.145,-0.045
3043,-0.145,-0.045
3044,-0.145,-0.050
3045,-0.145,-0.055
3046,-0.140,-0.050
3047,-0.135,-0.045
3048,-0.125,-0.045
3049,-0.115,-0.045
3050,-0.120,-0.045
3051,-0.125,-0.045
3052,-0.125,-0.050
3053,-0.125,-0.055
3054,-0.120,-0.050
3055,-0.115,-0.045
3056,-0.120,-0.040
3057,-0.125,-0.035
3058,-0.115,-0.040
3059,-0.105,-0.045
3060,-0.095,-0.040
3061,-0.085,-0.035
3062,-0.080,-0.035
3063,-0.075,-0.035
3064,-0.070,-0.030
3065,-0.065,-0.025
3066,-0.060,-0.025
3067,-0.050,-0.025
3068,-0.040,-0.020
3069,-0.035,-0.015
3070,-0.030,-0.010
3071,-0.020,-0.005
3072,-0.010,0.000
3073,0.000,0.005
3074,0.010,0.010
3075,0.030,0.015
3076,0.050,0.015
3077,0.070,0.015
3078,0.090,0.020
3079,0.110,0.035
3080,0.130,0.050
3081,0.145,0.055
3082,0.160,0.060
3083,0.180,0.070
3084,0.205,0.085
3085,0.225,0.095
3086,0.245,0.105
3087,0.255,0.115
3088,0.265,0.125
3089,0.285,0.125
3090,0.305,0.125
3091,0.320,0.135
3092,0.335,0.145
3093,0.340,0.150
3094,0.345,0.155
3095,0.350,0.160
3096,0.355,0.165
3097,0.340,0.160
3098,0.320,0.155
3099,0.305,0.150
3100,0.285,0.140
3101,0.260,0.125
3102,0.230,0.110
3103,0.190,0.095
3104,0.155,0.080
3105,0.120,0.055
3106,0.090,0.035
3107,0.055,0.015
3108,0.020,0.000
3109,-0.010,-0.010
3110,-0.035,-0.025
3111,-0.055,-0.045
3112,-0.075,-0.065
3113,-0.095,-0.080
3114,-0.110,-0.085
3115,-0.120,-0.090
3116,-0.125,-0.095
3117,-0.130,-0.100
3118,-0.145,-0.105
3119,-0.160,-0.110
3120,-0.165,-0.115
3121,-0.165,-0.120
3122,-0.165,-0.125
3123,-0.165,-0.125
3124,-0.165,-0.125
3125,-0.165,-0.125
3126,-0.165,-0.130
3127,-0.165,-0.135
3128,-0.170,-0.135
3129,-0.175,-0.135
3130,-0.175,-0.130
3131,-0.175,-0.125
3132,-0.170,-0.125
3133,-0.165,-0.125
3134,-0.170,-0.130
3135,-0.175,-0.135
3136,-0.170,-0.135
3137,-0.165,-0.135
3138,-0.165,-0.130
3139,-0.165,-0.125
3140,-0.165,-0.125
3141,-0.165,-0.125
3142,-0.160,-0.125
3143,-0.155,-0.125
3144,-0.155,-0.125
3145,-0.155,-0.125
3146,-0.155,-0.130
3147,-0.155,-0.135
3148,-0.155,-0.135
3149,-0.155,-0.135
3150,-0.160,-0.130
3151,-0.165,-0.125
3152,-0.160,-0.125
3153,-0.155,-0.125
3154,-0.160,-0.130
3155,-0.165,-0.135
3156,-0.160,-0.135
3157,-0.155,-0.135
3158,-0.150,-0.130
3159,-0.145,-0.125
3160,-0.150,-0.130
3161,-0.155,-0.135
3162,-0.155,-0.135
3163,-0.155,-0.135
3164,-0.160,-0.130
3165,-0.165,-0.125
3166,-0.170,-0.130
3167,-0.170,-0.130
3168,-0.165,-0.125
3169,-0.165,-0.130
3170,-0.165,-0.135
3171,-0.160,-0.135
3172,-0.155,-0.135
3173,-0.155,-0.135
3174,-0.155,-0.135
3175,-0.160,-0.135
3176,-0.165,-0.135
3177,-0.165,-0.135
3178,-0.165,-0.135
3179,-0.165,-0.135
3180,-0.165,-0.135
3181,-0.165,-0.135
3182,-0.165,-0.135
3183,-0.165,-0.135
3184,-0.165,-0.135
3185,-0.160,-0.140
3186,-0.155,-0.145
3187,-0.160,-0.145
3188,-0.165,-0.145
3189,-0.160,-0.140
3190,-0.155,-0.135
3191,-0.155,-0.140
3192,-0.155,-0.145
3193,-0.160,-0.145
3194,-0.165,-0.145
3195,-0.165,-0.140
3196,-0.165,-0.135
3197,-0.165,-0.135
3198,-0.165,-0.135
3199,-0.160,-0.135
3200,-0.155,-0.135
3201,-0.155,-0.135
3202,-0.155,-0.135
3203,-0.155,-0.135
3204,-0.155,-0.135
3205,-0.150,-0.135
3206,-0.145,-0.135
3207,-0.150,-0.135
3208,-0.155,-0.135
3209,-0.155,-0.145
3210,-0.150,-0.140
3211,-0.145,-0.135
3212,-0.145,-0.130
3213,-0.145,-0.125
3214,-0.145,-0.130
3215,-0.145,-0.135
3216,-0.140,-0.135
3217,-0.135,-0.135
3218,-0.135,-0.135
3219,-0.135,-0.135
3220,-0.135,-0.130
3221,-0.135,-0.125
3222,-0.135,-0.130
3223,-0.135,-0.135
3224,-0.135,-0.135
3225,-0.135,-0.135
3226,-0.135,-0.135
3227,-0.135,-0.135
3228,-0.140,-0.130
3229,-0.145,-0.125
3230,-0.140,-0.130
3231,-0.135,-0.135
3232,-0.130,-0.135
3233,-0.125,-0.135
3234,-0.125,-0.135
3235,-0.125,-0.135
3236,-0.120,-0.135
3237,-0.115,-0.135
3238,-0.120,-0.135
3239,-0.125,-0.135
3240,-0.125,-0.135
3241,-0.125,-0.135
3242,-0.125,-0.130
3243,-0.125,-0.125
3244,-0.125,-0.125
3245,-0.125,-0.125
3246,-0.120,-0.125
3247,-0.115,-0.125
3248,-0.115,-0.125
3249,-0.115,-0.125
3250,-0.115,-0.125
3251,-0.105,-0.130
3252,-0.095,-0.135
3253,-0.100,-0.130
3254,-0.105,-0.125
3255,-0.110,-0.125
3256,-0.115,-0.125
3257,-0.110,-0.125
3258,-0.105,-0.125
3259,-0.110,-0.120
3260,-0.115,-0.115
3261,-0.110,-0.120
3262,-0.105,-0.125
3263,-0.105,-0.125
3264,-0.105,-0.125
3265,-0.105,-0.125
3266,-0.105,-0.125
3267,-0.100,-0.120
3268,-0.095,-0.115
3269,-0.095,-0.115
3270,-0.095,-0.115
3271,-0.095,-0.120
3272,-0.095,-0.125
3273,-0.090,-0.125
3274,-0.080,-0.120
3275,-0.070,-0.110
3276,-0.065,-0.105
3277,-0.060,-0.105
3278,-0.055,-0.095
3279,-0.050,-0.080
3280,-0.040,-0.075
3281,-0.030,-0.070
3282,-0.025,-0.065
3283,-0.020,-0.065
3284,-0.015,-0.070
3285,-0.010,-0.080
3286,0.000,-0.085
3287,0.010,-0.085
3288,0.015,-0.090
3289,0.020,-0.100
3290,0.025,-0.100
3291,0.020,-0.090
3292,0.000,-0.085
3293,-0.015,-0.085
3294,-0.010,-0.090
3295,-0.005,-0.095
3296,-0.020,-0.100
3297,-0.035,-0.105
3298,-0.055,-0.100
3299,-0.075,-0.095
3300,-0.085,-0.110
3301,-0.095,-0.125
3302,-0.100,-0.135
3303,-0.105,-0.145
3304,-0.105,-0.145
3305,-0.105,-0.145
3306,-0.105,-0.140
3307,-0.105,-0.135
3308,-0.105,-0.140
3309,-0.105,-0.145
3310,-0.105,-0.140
3311,-0.105,-0.135
3312,-0.105,-0.135
3313,-0.100,-0.135
3314,-0.090,-0.135
3315,-0.085,-0.135
3316,-0.090,-0.140
3317,-0.095,-0.145
3318,-0.090,-0.140
3319,-0.080,-0.135
3320,-0.070,-0.140
3321,-0.060,-0.145
3322,-0.050,-0.140
3323,-0.030,-0.140
3324,-0.005,-0.150
3325,0.095,-0.155
3326,0.210,-0.160
3327,0.455,-0.205
3328,0.720,-0.255
3329,0.940,-0.415
3330,1.155,-0.590
3331,1.145,-0.630
3332,1.110,-0.660
3333,0.860,-0.675
3334,0.605,-0.695
3335,0.305,-0.670
3336,0.020,-0.640
3337,-0.115,-0.500
3338,-0.230,-0.365
3339,-0.165,-0.235
3340,-0.105,-0.115
3341,-0.090,-0.025
3342,-0.075,0.045
3343,-0.080,0.045
3344,-0.085,0.040
3345,-0.090,0.020
3346,-0.095,0.005
3347,-0.100,-0.010
3348,-0.105,-0.025
3349,-0.110,-0.030
3350,-0.115,-0.035
3351,-0.115,-0.035
3352,-0.115,-0.035
3353,-0.120,-0.035
3354,-0.125,-0.035
3355,-0.120,-0.040
3356,-0.115,-0.045
3357,-0.110,-0.040
3358,-0.105,-0.035
3359,-0.105,-0.035
3360,-0.105,-0.035
3361,-0.100,-0.035
3362,-0.095,-0.035
3363,-0.095,-0.035
3364,-0.095,-0.035
3365,-0.090,-0.035
3366,-0.085,-0.035
3367,-0.080,-0.030
3368,-0.075,-0.025
3369,-0.080,-0.025
3370,-0.080,-0.025
3371,-0.070,-0.025
3372,-0.065,-0.025
3373,-0.060,-0.020
3374,-0.055,-0.015
3375,-0.055,-0.015
3376,-0.035,-0.010
3377,-0.025,-0.005
3378,-0.020,-0.005
3379,-0.015,-0.005
3380,-0.005,0.000
3381,0.005,0.005
3382,0.020,0.010
3383,0.035,0.015
3384,0.040,0.020
3385,0.045,0.025
3386,0.060,0.035
3387,0.075,0.045
3388,0.090,0.050
3389,0.110,0.055
3390,0.130,0.065
3391,0.150,0.075
3392,0.170,0.085
3393,0.185,0.095
3394,0.195,0.100
3395,0.210,0.110
3396,0.235,0.125
3397,0.255,0.135
3398,0.275,0.140
3399,0.285,0.150
3400,0.290,0.165
3401,0.300,0.175
3402,0.315,0.180
3403,0.335,0.185
3404,0.350,0.190
3405,0.355,0.200
3406,0.360,0.210
3407,0.365,0.215
3408,0.370,0.210
3409,0.365,0.205
3410,0.350,0.205
3411,0.335,0.200
3412,0.320,0.190
3413,0.295,0.175
3414,0.270,0.160
3415,0.235,0.145
3416,0.200,0.130
3417,0.165,0.105
3418,0.135,0.085
3419,0.105,0.060
3420,0.075,0.035
3421,0.045,0.015
3422,0.015,-0.005
3423,-0.005,-0.020
3424,-0.025,-0.035
3425,-0.045,-0.050
3426,-0.065,-0.065
3427,-0.080,-0.075
3428,-0.095,-0.085
3429,-0.100,-0.095
3430,-0.105,-0.105
3431,-0.115,-0.110
3432,-0.125,-0.115
3433,-0.125,-0.120
3434,-0.125,-0.125
3435,-0.125,-0.125
3436,-0.125,-0.125
3437,-0.125,-0.125
3438,-0.125,-0.125
3439,-0.125,-0.125
3440,-0.125,-0.125
3441,-0.130,-0.125
3442,-0.135,-0.125
3443,-0.135,-0.125
3444,-0.135,-0.125
3445,-0.130,-0.125
3446,-0.125,-0.125
3447,-0.130,-0.120
3448,-0.135,-0.115
3449,-0.130,-0.120
3450,-0.125,-0.125
3451,-0.125,-0.125
3452,-0.125,-0.125
3453,-0.120,-0.125
3454,-0.115,-0.125
3455,-0.110,-0.120
3456,-0.105,-0.115
3457,-0.110,-0.120
3458,-0.115,-0.125
3459,-0.115,-0.125
3460,-0.110,-0.120
3461,-0.105,-0.115
3462,-0.115,-0.115
3463,-0.125,-0.115
3464,-0.120,-0.115
3465,-0.115,-0.115
3466,-0.115,-0.115
3467,-0.115,-0.115
3468,-0.110,-0.115
3469,-0.105,-0.115
3470,-0.105,-0.115
3471,-0.105,-0.115
3472,-0.110,-0.120
3473,-0.115,-0.125
3474,-0.110,-0.120
3475,-0.105,-0.115
3476,-0.110,-0.115
3477,-0.115,-0.115
3478,-0.120,-0.115
3479,-0.125,-0.115
3480,-0.125,-0.120
3481,-0.125,-0.125
3482,-0.120,-0.125
3483,-0.115,-0.125
3484,-0.115,-0.125
3485,-0.115,-0.125
3486,-0.110,-0.125
3487,-0.105,-0.125
3488,-0.110,-0.125
3489,-0.115,-0.125
3490,-0.115,-0.125
3491,-0.115,-0.125
3492,-0.115,-0.125
3493,-0.115,-0.125
3494,-0.120,-0.125
3495,-0.125,-0.125
3496,-0.125,-0.125
3497,-0.125,-0.125
3498,-0.120,-0.125
3499,-0.115,-0.125
3500,-0.115,-0.125
3501,-0.110,-0.125
3502,-0.105,-0.125
3503,-0.110,-0.125
3504,-0.115,-0.125
3505,-0.115,-0.125
3506,-0.115,-0.125
3507,-0.110,-0.125
3508,-0.105,-0.125
3509,-0.115,-0.125
3510,-0.125,-0.125
3511,-0.120,-0.125
3512,-0.115,-0.125
3513,-0.110,-0.125
3514,-0.105,-0.125
3515,-0.105,-0.125
3516,-0.105,-0.125
3517,-0.100,-0.125
3518,-0.095,-0.125
3519,-0.100,-0.125
3520,-0.105,-0.125
3521,-0.100,-0.125
3522,-0.095,-0.125
3523,-0.090,-0.125
3524,-0.090,-0.125
3525,-0.100,-0.125
3526,-0.105,-0.125
3527,-0.100,-0.125
3528,-0.095,-0.125
3529,-0.095,-0.125
3530,-0.095,-0.125
3531,-0.090,-0.120
3532,-0.085,-0.115
3533,-0.085,-0.115
3534,-0.085,-0.115
3535,-0.090,-0.115
3536,-0.095,-0.115
3537,-0.090,-0.115
3538,-0.085,-0.115
3539,-0.085,-0.115
3540,-0.085,-0.115
3541,-0.090,-0.115
3542,-0.095,-0.115
3543,-0.095,-0.115
3544,-0.090,-0.115
3545,-0.085,-0.115
3546,-0.085,-0.115
3547,-0.085,-0.115
3548,-0.080,-0.110
3549,-0.075,-0.105
3550,-0.075,-0.110
3551,-0.075,-0.115
3552,-0.080,-0.110
3553,-0.085,-0.105
3554,-0.080,-0.105
3555,-0.075,-0.105
3556,-0.080,-0.105
3557,-0.085,-0.105
3558,-0.080,-0.110
3559,-0.075,-0.115
3560,-0.075,-0.110
3561,-0.075,-0.105
3562,-0.075,-0.105
3563,-0.075,-0.105
3564,-0.070,-0.105
3565,-0.065,-0.105
3566,-0.070,-0.105
3567,-0.075,-0.105
3568,-0.070,-0.105
3569,-0.065,-0.105
3570,-0.065,-0.105
3571,-0.065,-0.105
3572,-0.070,-0.105
3573,-0.075,-0.105
3574,-0.075,-0.105
3575,-0.075,-0.105
3576,-0.070,-0.105
3577,-0.065,-0.105
3578,-0.065,-0.105
3579,-0.065,-0.105
3580,-0.060,-0.105
3581,-0.055,-0.105
3582,-0.060,-0.110
3583,-0.065,-0.115
3584,-0.065,-0.105
3585,-0.060,-0.105
3586,-0.055,-0.105
3587,-0.060,-0.105
3588,-0.065,-0.105
3589,-0.065,-0.105
3590,-0.065,-0.105
3591,-0.055,-0.105
3592,-0.045,-0.105
3593,-0.045,-0.100
3594,-0.045,-0.095
3595,-0.030,-0.090
3596,-0.015,-0.085
3597,-0.010,-0.080
3598,-0.005,-0.075
3599,-0.005,-0.065
3600,-0.005,-0.055
3601,0.005,-0.050
3602,0.015,-0.045
3603,0.020,-0.040
3604,0.025,-0.035
3605,0.025,-0.050
3606,0.035,-0.055
3607,0.055,-0.060
3608,0.065,-0.065
3609,0.065,-0.070
3610,0.065,-0.070
3611,0.060,-0.060
3612,0.045,-0.055
3613,0.030,-0.060
3614,0.025,-0.065
3615,0.020,-0.070
3616,0.000,-0.075
3617,-0.020,-0.075
3618,-0.045,-0.075
3619,-0.070,-0.080
3620,-0.075,-0.095
3621,-0.075,-0.110
3622,-0.075,-0.115
3623,-0.075,-0.120
3624,-0.075,-0.125
3625,-0.075,-0.125
3626,-0.065,-0.120
3627,-0.065,-0.115
3628,-0.070,-0.120
3629,-0.075,-0.125
3630,-0.075,-0.125
3631,-0.075,-0.125
3632,-0.075,-0.125
3633,-0.075,-0.125
3634,-0.080,-0.125
3635,-0.085,-0.125
3636,-0.075,-0.120
3637,-0.065,-0.115
3638,-0.060,-0.120
3639,-0.050,-0.125
3640,-0.035,-0.125
3641,-0.020,-0.125
3642,-0.005,-0.125
3643,0.025,-0.125
3644,0.075,-0.135
3645,0.180,-0.145
3646,0.345,-0.150
3647,0.585,-0.210
3648,0.895,-0.325
3649,1.100,-0.460
3650,1.225,-0.615
3651,1.210,-0.680
3652,1.095,-0.695
3653,0.840,-0.715
3654,0.515,-0.735
3655,0.225,-0.685
3656,-0.055,-0.600
3657,-0.130,-0.450
3658,-0.140,-0.280
3659,-0.105,-0.155
3660,-0.055,-0.035
3661,-0.050,0.015
3662,-0.060,0.060
3663,-0.065,0.055
3664,-0.070,0.040
3665,-0.085,0.025
3666,-0.100,0.010
3667,-0.105,-0.005
3668,-0.105,-0.015
3669,-0.105,-0.010
3670,-0.105,-0.005
3671,-0.105,-0.010
3672,-0.105,-0.015
3673,-0.100,-0.015
3674,-0.095,-0.015
3675,-0.100,-0.015
3676,-0.105,-0.015
3677,-0.105,-0.015
3678,-0.105,-0.015
3679,-0.100,-0.015
3680,-0.095,-0.015
3681,-0.100,-0.010
3682,-0.105,-0.005
3683,-0.100,-0.010
3684,-0.095,-0.015
3685,-0.090,-0.015
3686,-0.085,-0.015
3687,-0.085,-0.010
3688,-0.080,-0.005
3689,-0.070,0.000
3690,-0.065,0.005
3691,-0.065,0.000
3692,-0.065,-0.005
3693,-0.060,0.000
3694,-0.055,0.005
3695,-0.050,0.005
3696,-0.045,0.005
3697,-0.045,0.010
3698,-0.040,0.015
3699,-0.030,0.020
3700,-0.020,0.025
3701,-0.010,0.025
3702,0.000,0.030
3703,0.010,0.040
3704,0.025,0.045
3705,0.040,0.050
3706,0.050,0.060
3707,0.060,0.070
3708,0.075,0.075
3709,0.095,0.085
3710,0.110,0.095
3711,0.125,0.105
3712,0.140,0.115
3713,0.155,0.125
3714,0.175,0.135
3715,0.195,0.145
3716,0.215,0.155
3717,0.235,0.165
3718,0.250,0.175
3719,0.270,0.185
3720,0.290,0.195
3721,0.305,0.205
3722,0.315,0.215
3723,0.325,0.225
3724,0.335,0.230
3725,0.345,0.235
3726,0.355,0.240
3727,0.365,0.245
3728,0.365,0.245
3729,0.365,0.245
3730,0.350,0.240
3731,0.340,0.230
3732,0.330,0.220
3733,0.315,0.210
3734,0.285,0.195
3735,0.260,0.180
3736,0.230,0.170
3737,0.195,0.150
3738,0.160,0.125
3739,0.125,0.100
3740,0.095,0.075
3741,0.065,0.050
3742,0.035,0.030
3743,0.005,0.010
3744,-0.020,-0.010
3745,-0.045,-0.025
3746,-0.070,-0.040
3747,-0.080,-0.050
3748,-0.090,-0.060
3749,-0.100,-0.070
3750,-0.095,-0.065
3751,-0.120,-0.090
3752,-0.125,-0.095
3753,-0.130,-0.105
3754,-0.135,-0.115
3755,-0.140,-0.115
3756,-0.145,-0.115
3757,-0.140,-0.120
3758,-0.135,-0.125
3759,-0.145,-0.120
3760,-0.155,-0.115
3761,-0.150,-0.115
3762,-0.145,-0.115
3763,-0.145,-0.115
3764,-0.145,-0.115
3765,-0.145,-0.115
3766,-0.145,-0.115
3767,-0.140,-0.115
3768,-0.135,-0.115
3769,-0.135,-0.120
3770,-0.135,-0.125
3771,-0.135,-0.125
3772,-0.135,-0.125
3773,-0.135,-0.120
3774,-0.135,-0.115
3775,-0.140,-0.115
3776,-0.145,-0.115
3777,-0.145,-0.115
3778,-0.145,-0.115
3779,-0.140,-0.120
3780,-0.135,-0.125
3781,-0.135,-0.125
3782,-0.135,-0.125
3783,-0.130,-0.120
3784,-0.125,-0.115
3785,-0.130,-0.120
3786,-0.135,-0.125
3787,-0.135,-0.120
3788,-0.135,-0.115
3789,-0.135,-0.115
3790,-0.135,-0.115
3791,-0.140,-0.115
3792,-0.145,-0.120
3793,-0.145,-0.125
3794,-0.145,-0.125
3795,-0.145,-0.125
3796,-0.145,-0.125
3797,-0.145,-0.125
3798,-0.140,-0.125
3799,-0.135,-0.125
3800,-0.140,-0.125
3801,-0.145,-0.125
3802,-0.150,-0.125
3803,-0.155,-0.125
3804,-0.150,-0.125
3805,-0.145,-0.125
3806,-0.150,-0.125
3807,-0.155,-0.125
3808,-0.155,-0.125
3809,-0.155,-0.125
3810,-0.155,-0.125
3811,-0.155,-0.125
3812,-0.155,-0.125
3813,-0.155,-0.125
3814,-0.150,-0.120
3815,-0.145,-0.115
3816,-0.145,-0.120
3817,-0.145,-0.125
3818,-0.150,-0.125
3819,-0.155,-0.125
3820,-0.150,-0.125
3821,-0.150,-0.125
3822,-0.160,-0.125
3823,-0.165,-0.125
3824,-0.160,-0.125
3825,-0.155,-0.125
3826,-0.150,-0.125
3827,-0.145,-0.125
3828,-0.145,-0.125
3829,-0.145,-0.125
3830,-0.140,-0.125
3831,-0.135,-0.125
3832,-0.140,-0.125
3833,-0.145,-0.125
3834,-0.145,-0.125
3835,-0.140,-0.120
3836,-0.135,-0.115
3837,-0.140,-0.115
3838,-0.145,-0.115
3839,-0.140,-0.120
3840,-0.135,-0.125
3841,-0.135,-0.125
3842,-0.135,-0.125
3843,-0.135,-0.120
3844,-0.135,-0.115
3845,-0.135,-0.115
3846,-0.135,-0.115
3847,-0.135,-0.120
3848,-0.135,-0.125
3849,-0.130,-0.120
3850,-0.125,-0.115
3851,-0.125,-0.115
3852,-0.125,-0.115
3853,-0.130,-0.115
3854,-0.135,-0.115
3855,-0.130,-0.120
3856,-0.125,-0.125
3857,-0.125,-0.120
3858,-0.125,-0.115
3859,-0.120,-0.115
3860,-0.115,-0.115
3861,-0.115,-0.115
3862,-0.115,-0.115
3863,-0.115,-0.110
3864,-0.115,-0.105
3865,-0.115,-0.105
3866,-0.115,-0.105
3867,-0.115,-0.105
3868,-0.115,-0.105
3869,-0.120,-0.105
3870,-0.125,-0.105
3871,-0.120,-0.110
3872,-0.115,-0.115
3873,-0.115,-0.110
3874,-0.115,-0.105
3875,-0.115,-0.105
3876,-0.105,-0.105
3877,-0.105,-0.105
3878,-0.110,-0.105
3879,-0.115,-0.105
3880,-0.110,-0.110
3881,-0.105,-0.115
3882,-0.105,-0.110
3883,-0.105,-0.105
3884,-0.105,-0.105
3885,-0.105,-0.105
3886,-0.105,-0.110
3887,-0.105,-0.115
3888,-0.105,-0.110
3889,-0.105,-0.105
3890,-0.105,-0.105
3891,-0.105,-0.105
3892,-0.100,-0.105
3893,-0.095,-0.105
3894,-0.100,-0.105
3895,-0.105,-0.105
3896,-0.105,-0.105
3897,-0.105,-0.105
3898,-0.100,-0.100
3899,-0.095,-0.095
3900,-0.100,-0.095
3901,-0.105,-0.095
3902,-0.100,-0.100
3903,-0.095,-0.105
3904,-0.095,-0.105
3905,-0.095,-0.105
3906,-0.095,-0.100
3907,-0.095,-0.095
3908,-0.090,-0.100
3909,-0.085,-0.105
3910,-0.090,-0.100
3911,-0.095,-0.095
3912,-0.095,-0.100
3913,-0.095,-0.105
3914,-0.090,-0.100
3915,-0.090,-0.095
3916,-0.100,-0.095
3917,-0.095,-0.100
3918,-0.085,-0.105
3919,-0.085,-0.100
3920,-0.085,-0.095
3921,-0.080,-0.090
3922,-0.075,-0.085
3923,-0.060,-0.085
3924,-0.045,-0.085
3925,-0.040,-0.080
3926,-0.035,-0.075
3927,-0.030,-0.060
3928,-0.025,-0.045
3929,-0.015,-0.045
3930,-0.005,-0.045
3931,-0.010,-0.040
3932,-0.015,-0.035
3933,-0.005,-0.045
3934,0.010,-0.055
3935,0.025,-0.060
3936,0.035,-0.065
3937,0.035,-0.065
3938,0.035,-0.060
3939,0.035,-0.050
3940,0.030,-0.045
3941,0.015,-0.050
3942,0.005,-0.055
3943,0.000,-0.060
3944,-0.020,-0.065
3945,-0.045,-0.070
3946,-0.065,-0.075
3947,-0.085,-0.075
3948,-0.095,-0.090
3949,-0.100,-0.110
3950,-0.105,-0.115
3951,-0.105,-0.120
3952,-0.105,-0.125
3953,-0.100,-0.120
3954,-0.095,-0.115
3955,-0.095,-0.110
3956,-0.095,-0.105
3957,-0.100,-0.110
3958,-0.105,-0.115
3959,-0.105,-0.115
3960,-0.105,-0.115
3961,-0.105,-0.115
3962,-0.100,-0.110
3963,-0.095,-0.105
3964,-0.095,-0.110
3965,-0.095,-0.115
3966,-0.085,-0.120
3967,-0.075,-0.125
3968,-0.070,-0.120
3969,-0.065,-0.115
3970,-0.050,-0.115
3971,-0.030,-0.115
3972,-0.010,-0.115
3973,0.040,-0.120
3974,0.145,-0.135
3975,0.320,-0.160
3976,0.595,-0.205
3977,0.840,-0.310
3978,1.045,-0.485
3979,1.135,-0.595
3980,1.090,-0.640
3981,0.945,-0.670
3982,0.715,-0.680
3983,0.460,-0.675
3984,0.180,-0.645
3985,-0.020,-0.560
3986,-0.170,-0.440
3987,-0.190,-0.310
3988,-0.135,-0.185
3989,-0.100,-0.080
3990,-0.075,0.020
3991,-0.070,0.060
3992,-0.080,0.080
3993,-0.090,0.070
3994,-0.100,0.050
3995,-0.105,0.030
3996,-0.110,0.010
3997,-0.115,0.000
3998,-0.115,-0.010
3999,-0.115,-0.015
4000,-0.115,-0.015
4001,-0.110,-0.015
4002,-0.115,-0.015
4003,-0.115,-0.015
4004,-0.115,-0.015
4005,-0.115,-0.020
4006,-0.115,-0.025
4007,-0.110,-0.020
4008,-0.105,-0.015
4009,-0.105,-0.015
4010,-0.105,-0.015
4011,-0.105,-0.015
4012,-0.105,-0.015
4013,-0.105,-0.015
4014,-0.105,-0.015
4015,-0.095,-0.015
4016,-0.085,-0.015
4017,-0.085,-0.010
4018,-0.085,-0.005
4019,-0.075,-0.005
4020,-0.065,-0.005
4021,-0.065,-0.005
4022,-0.065,-0.005
4023,-0.060,-0.005
4024,-0.055,-0.005
4025,-0.050,-0.005
4026,-0.045,0.000
4027,-0.040,0.010
4028,-0.025,0.015
4029,-0.010,0.010
4030,0.000,0.005
4031,0.010,0.010
4032,0.020,0.015
4033,0.030,0.020
4034,0.045,0.030
4035,0.060,0.040
4036,0.070,0.045
4037,0.080,0.050
4038,0.100,0.055
4039,0.120,0.060
4040,0.135,0.075
4041,0.150,0.090
4042,0.175,0.100
4043,0.195,0.105
4044,0.215,0.110
4045,0.235,0.115
4046,0.255,0.125
4047,0.275,0.135
4048,0.295,0.145
4049,0.315,0.155
4050,0.325,0.160
4051,0.335,0.165
4052,0.345,0.170
4053,0.355,0.175
4054,0.360,0.180
4055,0.365,0.185
4056,0.365,0.185
4057,0.365,0.185
4058,0.355,0.180
4059,0.340,0.175
4060,0.325,0.170
4061,0.305,0.165
4062,0.280,0.155
4063,0.250,0.140
4064,0.215,0.125
4065,0.180,0.105
4066,0.140,0.085
4067,0.105,0.065
4068,0.070,0.045
4069,0.040,0.030
4070,0.015,0.010
4071,-0.010,0.000
4072,-0.035,-0.010
4073,-0.060,-0.025
4074,-0.080,-0.040
4075,-0.090,-0.050
4076,-0.100,-0.060
4077,-0.105,-0.065
4078,-0.110,-0.070
4079,-0.120,-0.080
4080,-0.130,-0.090
4081,-0.135,-0.095
4082,-0.135,-0.095
4083,-0.135,-0.095
4084,-0.135,-0.105
4085,-0.145,-0.105
4086,-0.155,-0.105
4087,-0.155,-0.105
4088,-0.155,-0.105
4089,-0.150,-0.105
4090,-0.145,-0.105
4091,-0.145,-0.110
4092,-0.145,-0.115
4093,-0.140,-0.110
4094,-0.135,-0.105
4095,-0.135,-0.105
4096,-0.135,-0.105
4097,-0.135,-0.105
4098,-0.135,-0.105
4099,-0.135,-0.105
4100,-0.135,-0.105
4101,-0.135,-0.110
4102,-0.135,-0.115
4103,-0.135,-0.110
4104,-0.135,-0.105
4105,-0.140,-0.105
4106,-0.145,-0.105
4107,-0.140,-0.105
4108,-0.135,-0.105
4109,-0.130,-0.105
4110,-0.125,-0.105
4111,-0.125,-0.105
4112,-0.125,-0.105
4113,-0.125,-0.105
4114,-0.125,-0.105
4115,-0.125,-0.105
4116,-0.125,-0.105
4117,-0.125,-0.105
4118,-0.125,-0.105
4119,-0.130,-0.105
4120,-0.135,-0.105
4121,-0.135,-0.105
4122,-0.135,-0.105
4123,-0.135,-0.105
4124,-0.135,-0.105
4125,-0.135,-0.105
4126,-0.130,-0.110
4127,-0.125,-0.105
4128,-0.130,-0.110
4129,-0.135,-0.115
4130,-0.135,-0.115
4131,-0.135,-0.115
4132,-0.135,-0.115
4133,-0.135,-0.115
4134,-0.135,-0.115
4135,-0.135,-0.115
4136,-0.140,-0.115
4137,-0.145,-0.115
4138,-0.145,-0.115
4139,-0.145,-0.115
4140,-0.140,-0.120
4141,-0.135,-0.125
4142,-0.130,-0.120
4143,-0.125,-0.115
4144,-0.130,-0.120
4145,-0.135,-0.125
4146,-0.135,-0.125
4147,-0.135,-0.125
4148,-0.135,-0.120
4149,-0.135,-0.115
4150,-0.140,-0.115
4151,-0.145,-0.115
4152,-0.140,-0.120
4153,-0.135,-0.125
4154,-0.130,-0.125
4155,-0.125,-0.125
4156,-0.125,-0.120
4157,-0.125,-0.115
4158,-0.125,-0.115
4159,-0.125,-0.115
4160,-0.130,-0.120
4161,-0.135,-0.125
4162,-0.130,-0.125
4163,-0.125,-0.125
4164,-0.125,-0.125
4165,-0.125,-0.125
4166,-0.125,-0.120
4167,-0.125,-0.120
4168,-0.125,-0.125
4169,-0.120,-0.125
4170,-0.115,-0.125
4171,-0.120,-0.125
4172,-0.125,-0.125
4173,-0.120,-0.120
4174,-0.115,-0.115
4175,-0.115,-0.120
4176,-0.115,-0.125
4177,-0.115,-0.125
4178,-0.115,-0.125
4179,-0.115,-0.125
4180,-0.115,-0.125
4181,-0.115,-0.120
4182,-0.115,-0.115
4183,-0.115,-0.120
4184,-0.115,-0.125
4185,-0.115,-0.125
4186,-0.115,-0.125
4187,-0.110,-0.120
4188,-0.105,-0.115
4189,-0.105,-0.115
4190,-0.105,-0.115
4191,-0.105,-0.115
4192,-0.105,-0.115
4193,-0.105,-0.120
4194,-0.105,-0.125
4195,-0.105,-0.120
4196,-0.105,-0.115
4197,-0.105,-0.115
4198,-0.105,-0.115
4199,-0.105,-0.115
4200,-0.105,-0.115
4201,-0.105,-0.120
4202,-0.105,-0.125
4203,-0.100,-0.125
4204,-0.095,-0.125
4205,-0.095,-0.120
4206,-0.095,-0.115
4207,-0.095,-0.120
4208,-0.095,-0.125
4209,-0.095,-0.115
4210,-0.095,-0.115
4211,-0.095,-0.115
4212,-0.095,-0.115
4213,-0.095,-0.115
4214,-0.095,-0.115
4215,-0.095,-0.115
4216,-0.095,-0.120
4217,-0.095,-0.125
4218,-0.090,-0.120
4219,-0.085,-0.115
4220,-0.090,-0.115
4221,-0.095,-0.115
4222,-0.090,-0.115
4223,-0.085,-0.115
4224,-0.085,-0.115
4225,-0.085,-0.115
4226,-0.085,-0.115
4227,-0.085,-0.115
4228,-0.085,-0.115
4229,-0.085,-0.115
4230,-0.090,-0.115
4231,-0.095,-0.115
4232,-0.090,-0.115
4233,-0.085,-0.115
4234,-0.085,-0.115
4235,-0.085,-0.115
4236,-0.080,-0.110
4237,-0.075,-0.105
4238,-0.080,-0.110
4239,-0.085,-0.115
4240,-0.080,-0.115
4241,-0.075,-0.115
4242,-0.075,-0.115
4243,-0.075,-0.115
4244,-0.080,-0.115
4245,-0.085,-0.115
4246,-0.085,-0.115
4247,-0.080,-0.115
4248,-0.070,-0.115
4249,-0.065,-0.115
4250,-0.065,-0.115
4251,-0.060,-0.105
4252,-0.055,-0.105
4253,-0.050,-0.105
4254,-0.045,-0.105
4255,-0.035,-0.095
4256,-0.025,-0.085
4257,-0.020,-0.080
4258,-0.015,-0.075
4259,-0.015,-0.070
4260,-0.015,-0.065
4261,-0.005,-0.065
4262,0.005,-0.065
4263,0.010,-0.070
4264,0.020,-0.075
4265,0.035,-0.075
4266,0.045,-0.075
4267,0.050,-0.080
4268,0.055,-0.085
4269,0.050,-0.080
4270,0.040,-0.075
4271,0.025,-0.075
4272,0.015,-0.080
4273,0.015,-0.090
4274,0.000,-0.095
4275,-0.030,-0.095
4276,-0.050,-0.095
4277,-0.065,-0.100
4278,-0.075,-0.110
4279,-0.080,-0.120
4280,-0.085,-0.125
4281,-0.085,-0.130
4282,-0.085,-0.135
4283,-0.080,-0.135
4284,-0.075,-0.135
4285,-0.080,-0.135
4286,-0.085,-0.135
4287,-0.085,-0.135
4288,-0.085,-0.135
4289,-0.085,-0.135
4290,-0.085,-0.135
4291,-0.085,-0.135
4292,-0.085,-0.135
4293,-0.085,-0.135
4294,-0.075,-0.135
4295,-0.065,-0.135
4296,-0.060,-0.135
4297,-0.055,-0.135
4298,-0.040,-0.135
4299,-0.025,-0.135
4300,-0.015,-0.140
4301,0.010,-0.145
4302,0.100,-0.155
4303,0.230,-0.170
4304,0.475,-0.190
4305,0.715,-0.250
4306,0.945,-0.410
4307,1.105,-0.540
4308,1.150,-0.615
4309,1.095,-0.670
4310,0.895,-0.685
4311,0.640,-0.695
4312,0.310,-0.690
4313,0.060,-0.630
4314,-0.115,-0.520
4315,-0.180,-0.390
4316,-0.140,-0.245
4317,-0.105,-0.130
4318,-0.070,-0.030
4319,-0.055,0.020
4320,-0.060,0.045
4321,-0.075,0.040
4322,-0.090,0.015
4323,-0.095,-0.005
4324,-0.100,-0.020
4325,-0.105,-0.030
4326,-0.105,-0.040
4327,-0.105,-0.045
4328,-0.105,-0.040
4329,-0.105,-0.035
4330,-0.105,-0.035
4331,-0.105,-0.035
4332,-0.105,-0.040
4333,-0.105,-0.045
4334,-0.105,-0.045
4335,-0.105,-0.040
4336,-0.105,-0.035
4337,-0.110,-0.035
4338,-0.115,-0.035
4339,-0.110,-0.040
4340,-0.105,-0.045
4341,-0.100,-0.045
4342,-0.095,-0.045
4343,-0.090,-0.040
4344,-0.085,-0.035
4345,-0.085,-0.035
4346,-0.085,-0.035
4347,-0.080,-0.035
4348,-0.075,-0.035
4349,-0.075,-0.035
4350,-0.075,-0.035
4351,-0.065,-0.035
4352,-0.055,-0.035
4353,-0.060,-0.030
4354,-0.065,-0.025
4355,-0.050,-0.025
4356,-0.040,-0.025
4357,-0.025,-0.020
4358,-0.015,-0.015
4359,-0.015,-0.010
4360,-0.010,-0.005
4361,0.005,0.000
4362,0.020,0.005
4363,0.030,0.010
4364,0.040,0.020
4365,0.050,0.030
4366,0.065,0.035
4367,0.080,0.040
4368,0.095,0.050
4369,0.110,0.060
4370,0.125,0.070
4371,0.140,0.080
4372,0.160,0.085
4373,0.180,0.085
4374,0.200,0.095
4375,0.185,0.085
4376,0.245,0.130
4377,0.265,0.145
4378,0.280,0.150
4379,0.295,0.155
4380,0.310,0.165
4381,0.325,0.175
4382,0.335,0.180
4383,0.345,0.185
4384,0.345,0.195
4385,0.345,0.205
4386,0.355,0.200
4387,0.365,0.195
4388,0.355,0.195
4389,0.340,0.195
4390,0.325,0.185
4391,0.310,0.170
4392,0.280,0.155
4393,0.250,0.140
4394,0.210,0.120
4395,0.170,0.095
4396,0.135,0.070
4397,0.100,0.045
4398,0.070,0.025
4399,0.035,0.005
4400,0.000,-0.015
4401,-0.025,-0.040
4402,-0.045,-0.065
4403,-0.065,-0.080
4404,-0.080,-0.090
4405,-0.090,-0.100
4406,-0.100,-0.110
4407,-0.105,-0.115
4408,-0.110,-0.120
4409,-0.125,-0.125
4410,-0.140,-0.130
4411,-0.145,-0.135
4412,-0.145,-0.140
4413,-0.145,-0.145
4414,-0.145,-0.145
4415,-0.150,-0.145
4416,-0.160,-0.145
4417,-0.160,-0.150
4418,-0.155,-0.155
4419,-0.155,-0.155
4420,-0.155,-0.155
4421,-0.150,-0.155
4422,-0.145,-0.155
4423,-0.145,-0.155
4424,-0.145,-0.155
4425,-0.145,-0.155
4426,-0.145,-0.155
4427,-0.145,-0.155
4428,-0.145,-0.155
4429,-0.145,-0.155
4430,-0.145,-0.155
4431,-0.150,-0.155
4432,-0.155,-0.155
4433,-0.155,-0.155
4434,-0.155,-0.155
4435,-0.150,-0.155
4436,-0.145,-0.155
4437,-0.145,-0.155
4438,-0.145,-0.155
4439,-0.140,-0.155
4440,-0.135,-0.155
4441,-0.140,-0.155
4442,-0.145,-0.155
4443,-0.145,-0.155
4444,-0.145,-0.155
4445,-0.145,-0.155
4446,-0.145,-0.155
4447,-0.150,-0.155
4448,-0.155,-0.155
4449,-0.150,-0.155
4450,-0.145,-0.155
4451,-0.145,-0.155
4452,-0.145,-0.155
4453,-0.145,-0.155
4454,-0.145,-0.155
4455,-0.145,-0.160
4456,-0.145,-0.165
4457,-0.150,-0.165
4458,-0.155,-0.165
4459,-0.155,-0.165
4460,-0.155,-0.165
4461,-0.155,-0.165
4462,-0.160,-0.165
4463,-0.165,-0.165
4464,-0.165,-0.165
4465,-0.165,-0.165
4466,-0.165,-0.170
4467,-0.165,-0.175
4468,-0.160,-0.170
4469,-0.155,-0.165
4470,-0.155,-0.165
4471,-0.155,-0.165
4472,-0.155,-0.170
4473,-0.155,-0.175
4474,-0.155,-0.175
4475,-0.155,-0.175
4476,-0.155,-0.175
4477,-0.155,-0.175
4478,-0.160,-0.170
4479,-0.165,-0.165
4480,-0.165,-0.170
4481,-0.165,-0.175
4482,-0.160,-0.175
4483,-0.155,-0.175
4484,-0.155,-0.175
4485,-0.155,-0.175
4486,-0.155,-0.175
4487,-0.155,-0.175
4488,-0.155,-0.175
4489,-0.155,-0.175
4490,-0.155,-0.180
4491,-0.155,-0.185
4492,-0.155,-0.180
4493,-0.155,-0.175
4494,-0.155,-0.175
4495,-0.155,-0.175
4496,-0.150,-0.175
4497,-0.145,-0.175
4498,-0.140,-0.175
4499,-0.135,-0.175
4500,-0.135,-0.175
4501,-0.135,-0.175
4502,-0.135,-0.175
4503,-0.140,-0.175
4504,-0.145,-0.175
4505,-0.140,-0.180
4506,-0.135,-0.185
4507,-0.135,-0.185
4508,-0.135,-0.185
4509,-0.135,-0.180
4510,-0.135,-0.175
4511,-0.140,-0.180
4512,-0.145,-0.185
4513,-0.140,-0.185
4514,-0.135,-0.185
4515,-0.135,-0.180
4516,-0.135,-0.175
4517,-0.130,-0.175
4518,-0.125,-0.175
4519,-0.130,-0.180
4520,-0.135,-0.185
4521,-0.135,-0.185
4522,-0.135,-0.185
4523,-0.130,-0.185
4524,-0.130,-0.185
4525,-0.140,-0.180
4526,-0.145,-0.175
4527,-0.140,-0.180
4528,-0.135,-0.185
4529,-0.130,-0.185
4530,-0.125,-0.185
4531,-0.125,-0.185
4532,-0.125,-0.185
4533,-0.120,-0.180
4534,-0.115,-0.175
4535,-0.120,-0.180
4536,-0.125,-0.185
4537,-0.125,-0.185
4538,-0.125,-0.185
4539,-0.120,-0.185
4540,-0.115,-0.185
4541,-0.120,-0.185
4542,-0.120,-0.185
4543,-0.115,-0.185
4544,-0.115,-0.185
4545,-0.115,-0.185
4546,-0.115,-0.185
4547,-0.115,-0.185
4548,-0.110,-0.185
4549,-0.105,-0.185
4550,-0.110,-0.185
4551,-0.115,-0.185
4552,-0.115,-0.185
4553,-0.115,-0.185
4554,-0.115,-0.185
4555,-0.115,-0.185
4556,-0.120,-0.180
4557,-0.125,-0.175
4558,-0.120,-0.180
4559,-0.115,-0.185
4560,-0.115,-0.185
4561,-0.115,-0.185
4562,-0.115,-0.185
4563,-0.115,-0.185
4564,-0.110,-0.185
4565,-0.105,-0.185
4566,-0.105,-0.185
4567,-0.105,-0.185
4568,-0.105,-0.185
4569,-0.105,-0.185
4570,-0.105,-0.185
4571,-0.105,-0.185
4572,-0.105,-0.185
4573,-0.105,-0.185
4574,-0.105,-0.185
4575,-0.105,-0.185
4576,-0.105,-0.185
4577,-0.105,-0.185
4578,-0.105,-0.185
4579,-0.105,-0.185
4580,-0.100,-0.185
4581,-0.095,-0.185
4582,-0.095,-0.185
4583,-0.095,-0.185
4584,-0.095,-0.185
4585,-0.080,-0.180
4586,-0.065,-0.175
4587,-0.055,-0.165
4588,-0.045,-0.155
4589,-0.050,-0.145
4590,-0.055,-0.135
4591,-0.045,-0.135
4592,-0.035,-0.135
4593,-0.025,-0.130
4594,-0.015,-0.125
4595,-0.015,-0.125
4596,-0.015,-0.125
4597,0.000,-0.135
4598,0.015,-0.145
4599,0.015,-0.155
4600,0.015,-0.165
4601,0.015,-0.155
4602,0.015,-0.145
4603,0.005,-0.140
4604,-0.005,-0.135
4605,-0.020,-0.140
4606,-0.030,-0.150
4607,-0.045,-0.160
4608,-0.065,-0.165
4609,-0.085,-0.165
4610,-0.100,-0.170
4611,-0.110,-0.180
4612,-0.115,-0.190
4613,-0.115,-0.200
4614,-0.115,-0.205
4615,-0.115,-0.205
4616,-0.115,-0.205
4617,-0.115,-0.205
4618,-0.115,-0.205
4619,-0.120,-0.200
4620,-0.125,-0.195
4621,-0.125,-0.200
4622,-0.125,-0.205
4623,-0.125,-0.205
4624,-0.125,-0.205
4625,-0.125,-0.205
4626,-0.105,-0.200
4627,-0.095,-0.195
4628,-0.095,-0.200
4629,-0.095,-0.205
4630,-0.080,-0.205
4631,-0.065,-0.205
4632,-0.045,-0.205
4633,-0.015,-0.205
4634,0.065,-0.215
4635,0.185,-0.230
4636,0.450,-0.255
4637,0.720,-0.325
4638,0.995,-0.515
4639,1.190,-0.665
4640,1.210,-0.725
4641,1.155,-0.770
4642,0.960,-0.785
4643,0.710,-0.795
4644,0.380,-0.790
4645,0.100,-0.725
4646,-0.130,-0.600
4647,-0.220,-0.460
4648,-0.170,-0.305
4649,-0.135,-0.185
4650,-0.105,-0.095
4651,-0.095,-0.045
4652,-0.100,-0.025
4653,-0.110,-0.025
4654,-0.120,-0.045
4655,-0.125,-0.060
4656,-0.130,-0.070
4657,-0.135,-0.075
4658,-0.135,-0.080
4659,-0.135,-0.085
4660,-0.140,-0.090
4661,-0.145,-0.095
4662,-0.145,-0.095
4663,-0.145,-0.095
4664,-0.140,-0.090
4665,-0.140,-0.085
4666,-0.150,-0.085
4667,-0.155,-0.090
4668,-0.155,-0.095
4669,-0.150,-0.090
4670,-0.145,-0.085
4671,-0.140,-0.085
4672,-0.135,-0.085
4673,-0.130,-0.080
4674,-0.125,-0.075
4675,-0.130,-0.080
4676,-0.135,-0.085
4677,-0.130,-0.080
4678,-0.125,-0.075
4679,-0.120,-0.075
4680,-0.115,-0.075
4681,-0.115,-0.070
4682,-0.115,-0.065
4683,-0.110,-0.065
4684,-0.105,-0.065
4685,-0.095,-0.065
4686,-0.085,-0.065
4687,-0.080,-0.060
4688,-0.070,-0.055
4689,-0.060,-0.050
4690,-0.055,-0.045
4691,-0.050,-0.040
4692,-0.040,-0.035
4693,-0.030,-0.030
4694,-0.020,-0.025
4695,0.000,-0.020
4696,0.010,-0.010
4697,0.020,0.000
4698,0.030,0.010
4699,0.040,0.020
4700,0.060,0.025
4701,0.080,0.030
4702,0.100,0.040
4703,0.120,0.050
4704,0.145,0.065
4705,0.170,0.080
4706,0.180,0.090
4707,0.190,0.100
4708,0.210,0.110
4709,0.235,0.125
4710,0.250,0.135
4711,0.265,0.145
4712,0.275,0.155
4713,0.285,0.165
4714,0.300,0.170
4715,0.315,0.175
4716,0.325,0.180
4717,0.335,0.185
4718,0.335,0.190
4719,0.335,0.195
4720,0.330,0.190
4721,0.320,0.185
4722,0.295,0.170
4723,0.265,0.150
4724,0.235,0.135
4725,0.205,0.115
4726,0.175,0.090
4727,0.140,0.070
4728,0.105,0.055
4729,0.070,0.035
4730,0.035,0.010
4731,0.005,-0.015
4732,-0.015,-0.040
4733,-0.035,-0.060
4734,-0.055,-0.075
4735,-0.075,-0.090
4736,-0.095,-0.100
4737,-0.115,-0.115
4738,-0.135,-0.130
4739,-0.145,-0.135
4740,-0.150,-0.140
4741,-0.155,-0.145
4742,-0.160,-0.150
4743,-0.170,-0.155
4744,-0.180,-0.155
4745,-0.185,-0.155
4746,-0.185,-0.160
4747,-0.185,-0.165
4748,-0.185,-0.170
4749,-0.180,-0.175
4750,-0.185,-0.175
4751,-0.165,-0.165
4752,-0.165,-0.165
4753,-0.170,-0.170
4754,-0.175,-0.175
4755,-0.175,-0.170
4756,-0.175,-0.165
4757,-0.175,-0.165
4758,-0.175,-0.165
4759,-0.180,-0.165
4760,-0.185,-0.165
4761,-0.180,-0.165
4762,-0.175,-0.165
4763,-0.175,-0.165
4764,-0.175,-0.165
4765,-0.170,-0.165
4766,-0.165,-0.165
4767,-0.165,-0.160
4768,-0.165,-0.155
4769,-0.170,-0.155
4770,-0.175,-0.155
4771,-0.170,-0.160
4772,-0.165,-0.165
4773,-0.165,-0.165
4774,-0.165,-0.165
4775,-0.165,-0.160
4776,-0.165,-0.155
4777,-0.170,-0.155
4778,-0.175,-0.155
4779,-0.175,-0.155
4780,-0.175,-0.155
4781,-0.170,-0.155
4782,-0.165,-0.155
4783,-0.165,-0.150
4784,-0.165,-0.145
4785,-0.165,-0.150
4786,-0.165,-0.155
4787,-0.165,-0.155
4788,-0.165,-0.155
4789,-0.170,-0.155
4790,-0.175,-0.155
4791,-0.175,-0.155
4792,-0.175,-0.155
4793,-0.175,-0.155
4794,-0.175,-0.160
4795,-0.175,-0.165
4796,-0.175,-0.165
4797,-0.175,-0.165
4798,-0.175,-0.160
4799,-0.175,-0.155
4800,-0.175,-0.155
4801,-0.175,-0.155
4802,-0.175,-0.155
4803,-0.175,-0.155
4804,-0.175,-0.150
4805,-0.175,-0.145
4806,-0.180,-0.145
4807,-0.185,-0.145
4808,-0.185,-0.150
4809,-0.185,-0.155
4810,-0.180,-0.155
4811,-0.175,-0.155
4812,-0.175,-0.155
4813,-0.175,-0.155
4814,-0.170,-0.155
4815,-0.165,-0.155
4816,-0.165,-0.150
4817,-0.165,-0.145
4818,-0.165,-0.145
4819,-0.165,-0.145
4820,-0.165,-0.145
4821,-0.165,-0.145
4822,-0.170,-0.145
4823,-0.175,-0.145
4824,-0.175,-0.145
4825,-0.175,-0.145
4826,-0.170,-0.145
4827,-0.165,-0.145
4828,-0.165,-0.145
4829,-0.165,-0.145
4830,-0.160,-0.140
4831,-0.155,-0.135
4832,-0.160,-0.140
4833,-0.165,-0.145
4834,-0.155,-0.145
4835,-0.155,-0.140
4836,-0.155,-0.135
4837,-0.165,-0.135
4838,-0.175,-0.135
4839,-0.165,-0.135
4840,-0.155,-0.135
4841,-0.155,-0.140
4842,-0.155,-0.145
4843,-0.155,-0.140
4844,-0.155,-0.135
4845,-0.150,-0.135
4846,-0.145,-0.135
4847,-0.150,-0.135
4848,-0.155,-0.135
4849,-0.150,-0.135
4850,-0.145,-0.135
4851,-0.145,-0.130
4852,-0.145,-0.125
4853,-0.155,-0.130
4854,-0.165,-0.135
4855,-0.150,-0.135
4856,-0.145,-0.135
4857,-0.145,-0.130
4858,-0.145,-0.125
4859,-0.145,-0.125
4860,-0.145,-0.125
4861,-0.140,-0.125
4862,-0.135,-0.125
4863,-0.140,-0.125
4864,-0.145,-0.125
4865,-0.145,-0.125
4866,-0.145,-0.125
4867,-0.145,-0.120
4868,-0.145,-0.115
4869,-0.145,-0.115
4870,-0.145,-0.115
4871,-0.150,-0.115
4872,-0.150,-0.115
4873,-0.140,-0.115
4874,-0.135,-0.115
4875,-0.135,-0.115
4876,-0.135,-0.110
4877,-0.135,-0.105
4878,-0.135,-0.110
4879,-0.135,-0.115
4880,-0.135,-0.115
4881,-0.135,-0.115
4882,-0.135,-0.115
4883,-0.135,-0.115
4884,-0.130,-0.110
4885,-0.125,-0.105
4886,-0.135,-0.110
4887,-0.145,-0.115
4888,-0.140,-0.110
4889,-0.135,-0.105
4890,-0.135,-0.105
4891,-0.135,-0.105
4892,-0.130,-0.100
4893,-0.125,-0.095
4894,-0.125,-0.095
4895,-0.125,-0.095
4896,-0.130,-0.100
4897,-0.135,-0.105
4898,-0.135,-0.105
4899,-0.135,-0.105
4900,-0.130,-0.100
4901,-0.130,-0.095
4902,-0.140,-0.095
4903,-0.140,-0.095
4904,-0.130,-0.100
4905,-0.125,-0.105
4906,-0.125,-0.100
4907,-0.125,-0.095
4908,-0.125,-0.095
4909,-0.125,-0.095
4910,-0.120,-0.095
4911,-0.115,-0.095
4912,-0.115,-0.095
4913,-0.115,-0.095
4914,-0.115,-0.090
4915,-0.105,-0.085
4916,-0.090,-0.080
4917,-0.085,-0.070
4918,-0.085,-0.065
4919,-0.080,-0.060
4920,-0.075,-0.055
4921,-0.065,-0.050
4922,-0.055,-0.045
4923,-0.045,-0.040
4924,-0.035,-0.035
4925,-0.030,-0.040
4926,-0.025,-0.045
4927,-0.020,-0.050
4928,-0.015,-0.055
4929,-0.005,-0.060
4930,0.005,-0.065
4931,0.005,-0.045
4932,0.000,-0.035
4933,-0.020,-0.040
4934,-0.035,-0.045
4935,-0.035,-0.055
4936,-0.040,-0.065
4937,-0.060,-0.065
4938,-0.085,-0.065
4939,-0.105,-0.065
4940,-0.120,-0.070
4941,-0.130,-0.085
4942,-0.135,-0.095
4943,-0.135,-0.100
4944,-0.135,-0.105
4945,-0.135,-0.105
4946,-0.135,-0.105
4947,-0.135,-0.100
4948,-0.135,-0.095
4949,-0.140,-0.100
4950,-0.145,-0.105
4951,-0.140,-0.100
4952,-0.135,-0.095
4953,-0.135,-0.095
4954,-0.135,-0.095
4955,-0.130,-0.095
4956,-0.125,-0.095
4957,-0.125,-0.095
4958,-0.125,-0.095
4959,-0.115,-0.095
4960,-0.105,-0.095
4961,-0.095,-0.095
4962,-0.090,-0.095
4963,-0.085,-0.095
4964,-0.050,-0.105
4965,0.005,-0.115
4966,0.130,-0.125
4967,0.295,-0.150
4968,0.595,-0.230
4969,0.860,-0.330
4970,1.015,-0.490
4971,1.110,-0.605
4972,1.040,-0.620
4973,0.910,-0.635
4974,0.645,-0.635
4975,0.375,-0.620
4976,0.095,-0.580
4977,-0.110,-0.495
4978,-0.215,-0.350
4979,-0.245,-0.220
4980,-0.170,-0.095
4981,-0.130,0.000
4982,-0.115,0.070
4983,-0.110,0.105
4984,-0.120,0.100
4985,-0.125,0.085
4986,-0.130,0.065
4987,-0.135,0.045
4988,-0.140,0.025
4989,-0.145,0.015
4990,-0.150,0.010
4991,-0.155,0.005
4992,-0.155,0.005
4993,-0.155,0.005
4994,-0.160,0.010
4995,-0.165,0.015
4996,-0.165,0.010
4997,-0.160,0.005
4998,-0.150,0.005
4999,-0.145,0.005
5000,-0.145,0.005
5001,-0.140,0.005
5002,-0.135,0.005
5003,-0.135,0.005
5004,-0.135,0.005
5005,-0.135,0.005
5006,-0.135,0.005
5007,-0.130,0.010
5008,-0.125,0.015
5009,-0.125,0.015
5010,-0.125,0.015
5011,-0.125,0.015
5012,-0.125,0.015
5013,-0.115,0.010
5014,-0.105,0.005
5015,-0.095,0.015
5016,-0.085,0.025
5017,-0.080,0.030
5018,-0.075,0.035
5019,-0.070,0.030
5020,-0.065,0.025
5021,-0.050,0.030
5022,-0.040,0.035
5023,-0.030,0.040
5024,-0.025,0.045
5025,-0.020,0.050
5026,-0.005,0.055
5027,0.015,0.060
5028,0.035,0.065
5029,0.050,0.065
5030,0.065,0.075
5031,0.085,0.090
5032,0.110,0.095
5033,0.130,0.100
5034,0.145,0.110
5035,0.160,0.120
5036,0.180,0.130
5037,0.200,0.140
5038,0.220,0.150
5039,0.240,0.160
5040,0.250,0.165
5041,0.260,0.170
5042,0.280,0.180
5043,0.295,0.185
5044,0.310,0.195
5045,0.325,0.205
5046,0.330,0.205
5047,0.335,0.205
5048,0.340,0.210
5049,0.345,0.215
5050,0.330,0.205
5051,0.310,0.195
5052,0.285,0.185
5053,0.260,0.175
5054,0.230,0.165
5055,0.195,0.155
5056,0.160,0.135
5057,0.125,0.120
5058,0.090,0.100
5059,0.055,0.080
5060,0.025,0.065
5061,-0.005,0.050
5062,-0.030,0.035
5063,-0.055,0.020
5064,-0.075,0.010
5065,-0.095,0.000
5066,-0.115,-0.015
5067,-0.130,-0.030
5068,-0.140,-0.040
5069,-0.150,-0.045
5070,-0.160,-0.050
5071,-0.170,-0.055
5072,-0.180,-0.055
5073,-0.185,-0.055
5074,-0.185,-0.060
5075,-0.185,-0.065
5076,-0.185,-0.070
5077,-0.185,-0.075
5078,-0.185,-0.070
5079,-0.185,-0.065
5080,-0.185,-0.065
5081,-0.185,-0.065
5082,-0.185,-0.070
5083,-0.185,-0.075
5084,-0.185,-0.065
5085,-0.185,-0.065
5086,-0.185,-0.065
5087,-0.190,-0.065
5088,-0.195,-0.065
5089,-0.190,-0.070
5090,-0.185,-0.075
5091,-0.185,-0.070
5092,-0.185,-0.065
5093,-0.180,-0.065
5094,-0.175,-0.065
5095,-0.175,-0.065
5096,-0.175,-0.065
5097,-0.175,-0.070
5098,-0.175,-0.075
5099,-0.175,-0.075
5100,-0.175,-0.075
5101,-0.175,-0.075
5102,-0.175,-0.075
5103,-0.175,-0.075
5104,-0.175,-0.075
5105,-0.175,-0.070
5106,-0.175,-0.065
5107,-0.175,-0.065
5108,-0.175,-0.065
5109,-0.170,-0.065
5110,-0.165,-0.065
5111,-0.170,-0.065
5112,-0.175,-0.065
5113,-0.175,-0.065
5114,-0.175,-0.065
5115,-0.170,-0.070
5116,-0.165,-0.075
5117,-0.165,-0.075
5118,-0.165,-0.075
5119,-0.170,-0.070
5120,-0.175,-0.065
5121,-0.180,-0.070
5122,-0.185,-0.075
5123,-0.180,-0.070
5124,-0.175,-0.065
5125,-0.175,-0.065
5126,-0.175,-0.070
5127,-0.175,-0.065
5128,-0.175,-0.070
5129,-0.175,-0.075
5130,-0.175,-0.070
5131,-0.175,-0.065
5132,-0.175,-0.070
5133,-0.175,-0.075
5134,-0.180,-0.070
5135,-0.185,-0.065
5136,-0.185,-0.070
5137,-0.185,-0.075
5138,-0.180,-0.075
5139,-0.175,-0.075
5140,-0.170,-0.075
5141,-0.165,-0.075
5142,-0.170,-0.070
5143,-0.175,-0.065
5144,-0.170,-0.070
5145,-0.165,-0.075
5146,-0.165,-0.075
5147,-0.165,-0.075
5148,-0.170,-0.075
5149,-0.175,-0.075
5150,-0.170,-0.075
5151,-0.165,-0.075
5152,-0.165,-0.075
5153,-0.165,-0.075
5154,-0.165,-0.075
5155,-0.165,-0.075
5156,-0.165,-0.075
5157,-0.165,-0.075
5158,-0.160,-0.075
5159,-0.155,-0.075
5160,-0.155,-0.075
5161,-0.155,-0.075
5162,-0.155,-0.075
5163,-0.155,-0.075
5164,-0.155,-0.075
5165,-0.155,-0.075
5166,-0.160,-0.075
5167,-0.160,-0.075
5168,-0.155,-0.075
5169,-0.155,-0.075
5170,-0.155,-0.075
5171,-0.155,-0.075
5172,-0.155,-0.075
5173,-0.150,-0.075
5174,-0.145,-0.075
5175,-0.145,-0.075
5176,-0.145,-0.075
5177,-0.145,-0.080
5178,-0.145,-0.085
5179,-0.145,-0.080
5180,-0.145,-0.075
5181,-0.150,-0.075
5182,-0.155,-0.075
5183,-0.150,-0.075
5184,-0.145,-0.075
5185,-0.145,-0.080
5186,-0.145,-0.085
5187,-0.140,-0.080
5188,-0.135,-0.075
5189,-0.135,-0.075
5190,-0.135,-0.075
5191,-0.135,-0.075
5192,-0.135,-0.075
5193,-0.135,-0.075
5194,-0.135,-0.075
5195,-0.135,-0.075
5196,-0.135,-0.075
5197,-0.140,-0.075
5198,-0.145,-0.075
5199,-0.140,-0.080
5200,-0.135,-0.085
5201,-0.130,-0.085
5202,-0.125,-0.085
5203,-0.125,-0.080
5204,-0.125,-0.075
5205,-0.125,-0.080
5206,-0.125,-0.085
5207,-0.125,-0.080
5208,-0.125,-0.075
5209,-0.115,-0.085
5210,-0.115,-0.080
5211,-0.115,-0.075
5212,-0.125,-0.070
5213,-0.135,-0.065
5214,-0.130,-0.070
5215,-0.125,-0.075
5216,-0.120,-0.075
5217,-0.115,-0.075
5218,-0.115,-0.075
5219,-0.115,-0.075
5220,-0.110,-0.075
5221,-0.105,-0.075
5222,-0.100,-0.070
5223,-0.095,-0.065
5224,-0.085,-0.065
5225,-0.075,-0.060
5226,-0.070,-0.045
5227,-0.065,-0.035
5228,-0.065,-0.030
5229,-0.060,-0.025
5230,-0.045,-0.025
5231,-0.035,-0.025
5232,-0.030,-0.030
5233,-0.025,-0.035
5234,-0.020,-0.035
5235,-0.010,-0.040
5236,0.005,-0.050
5237,0.015,-0.055
5238,0.015,-0.050
5239,0.010,-0.045
5240,0.000,-0.045
5241,-0.005,-0.045
5242,-0.005,-0.045
5243,-0.020,-0.045
5244,-0.040,-0.050
5245,-0.065,-0.055
5246,-0.090,-0.055
5247,-0.095,-0.060
5248,-0.100,-0.070
5249,-0.105,-0.080
5250,-0.105,-0.075
5251,-0.110,-0.095
5252,-0.105,-0.095
5253,-0.110,-0.095
5254,-0.115,-0.095
5255,-0.115,-0.095
5256,-0.115,-0.095
5257,-0.115,-0.095
5258,-0.115,-0.095
5259,-0.115,-0.095
5260,-0.115,-0.095
5261,-0.115,-0.095
5262,-0.115,-0.095
5263,-0.110,-0.095
5264,-0.105,-0.095
5265,-0.100,-0.090
5266,-0.095,-0.085
5267,-0.090,-0.090
5268,-0.080,-0.095
5269,-0.065,-0.095
5270,-0.055,-0.095
5271,-0.050,-0.100
5272,-0.025,-0.105
5273,0.020,-0.110
5274,0.115,-0.120
5275,0.250,-0.130
5276,0.490,-0.200
5277,0.795,-0.305
5278,1.005,-0.435
5279,1.155,-0.570
5280,1.145,-0.615
5281,1.060,-0.620
5282,0.820,-0.640
5283,0.525,-0.660
5284,0.235,-0.615
5285,-0.055,-0.550
5286,-0.150,-0.410
5287,-0.205,-0.255
5288,-0.160,-0.135
5289,-0.090,-0.015
5290,-0.085,0.045
5291,-0.085,0.100
5292,-0.090,0.085
5293,-0.095,0.065
5294,-0.100,0.045
5295,-0.105,0.025
5296,-0.105,0.015
5297,-0.105,0.005
5298,-0.110,0.005
5299,-0.115,0.005
5300,-0.115,0.000
5301,-0.115,-0.005
5302,-0.115,-0.010
5303,-0.115,-0.015
5304,-0.115,-0.010
5305,-0.115,-0.005
5306,-0.120,-0.005
5307,-0.125,-0.005
5308,-0.120,-0.005
5309,-0.115,-0.005
5310,-0.110,-0.010
5311,-0.105,-0.015
5312,-0.100,-0.010
5313,-0.095,-0.005
5314,-0.095,-0.005
5315,-0.095,-0.005
5316,-0.090,-0.010
5317,-0.085,-0.015
5318,-0.080,-0.010
5319,-0.075,-0.005
5320,-0.075,-0.005
5321,-0.075,-0.005
5322,-0.075,-0.005
5323,-0.070,-0.005
5324,-0.060,0.000
5325,-0.055,0.005
5326,-0.050,0.005
5327,-0.040,0.005
5328,-0.030,0.010
5329,-0.020,0.015
5330,-0.010,0.020
5331,0.000,0.025
5332,0.010,0.025
5333,0.020,0.030
5334,0.035,0.045
5335,0.050,0.050
5336,0.065,0.055
5337,0.075,0.065
5338,0.085,0.075
5339,0.100,0.080
5340,0.115,0.085
5341,0.135,0.095
5342,0.155,0.105
5343,0.175,0.110
5344,0.200,0.115
5345,0.220,0.125
5346,0.235,0.135
5347,0.250,0.145
5348,0.270,0.155
5349,0.285,0.165
5350,0.300,0.175
5351,0.315,0.185
5352,0.325,0.195
5353,0.335,0.200
5354,0.345,0.205
5355,0.350,0.205
5356,0.355,0.205
5357,0.360,0.205
5358,0.365,0.205
5359,0.360,0.205
5360,0.345,0.200
5361,0.325,0.185
5362,0.295,0.165
5363,0.265,0.150
5364,0.230,0.135
5365,0.195,0.110
5366,0.165,0.090
5367,0.135,0.070
5368,0.100,0.045
5369,0.065,0.020
5370,0.030,0.005
5371,0.000,-0.010
5372,-0.020,-0.030
5373,-0.040,-0.050
5374,-0.055,-0.065
5375,-0.045,-0.055
5376,-0.090,-0.090
5377,-0.105,-0.095
5378,-0.115,-0.105
5379,-0.125,-0.115
5380,-0.130,-0.120
5381,-0.135,-0.125
5382,-0.135,-0.135
5383,-0.135,-0.145
5384,-0.140,-0.145
5385,-0.145,-0.145
5386,-0.150,-0.150
5387,-0.155,-0.155
5388,-0.150,-0.155
5389,-0.145,-0.155
5390,-0.145,-0.155
5391,-0.145,-0.155
5392,-0.145,-0.155
5393,-0.145,-0.155
5394,-0.140,-0.155
5395,-0.135,-0.155
5396,-0.135,-0.155
5397,-0.135,-0.155
5398,-0.140,-0.155
5399,-0.145,-0.155
5400,-0.145,-0.155
5401,-0.145,-0.155
5402,-0.145,-0.155
5403,-0.145,-0.155
5404,-0.145,-0.160
5405,-0.145,-0.165
5406,-0.140,-0.165
5407,-0.135,-0.165
5408,-0.135,-0.160
5409,-0.135,-0.155
5410,-0.135,-0.160
5411,-0.135,-0.165
5412,-0.135,-0.165
5413,-0.135,-0.165
5414,-0.130,-0.170
5415,-0.125,-0.175
5416,-0.130,-0.170
5417,-0.135,-0.170
5418,-0.135,-0.175
5419,-0.135,-0.175
5420,-0.135,-0.175
5421,-0.135,-0.170
5422,-0.135,-0.165
5423,-0.130,-0.170
5424,-0.125,-0.175
5425,-0.130,-0.175
5426,-0.135,-0.175
5427,-0.135,-0.180
5428,-0.135,-0.185
5429,-0.135,-0.180
5430,-0.135,-0.175
5431,-0.140,-0.180
5432,-0.145,-0.185
5433,-0.145,-0.190
5434,-0.145,-0.195
5435,-0.140,-0.190
5436,-0.135,-0.185
5437,-0.135,-0.185
5438,-0.135,-0.185
5439,-0.135,-0.185
5440,-0.135,-0.185
5441,-0.140,-0.190
5442,-0.145,-0.195
5443,-0.140,-0.190
5444,-0.135,-0.185
5445,-0.135,-0.190
5446,-0.135,-0.195
5447,-0.140,-0.195
5448,-0.145,-0.195
5449,-0.145,-0.195
5450,-0.145,-0.195
5451,-0.140,-0.195
5452,-0.135,-0.195
5453,-0.135,-0.195
5454,-0.135,-0.195
5455,-0.135,-0.195
5456,-0.135,-0.195
5457,-0.135,-0.195
5458,-0.135,-0.195
5459,-0.125,-0.195
5460,-0.125,-0.195
5461,-0.125,-0.195
5462,-0.130,-0.195
5463,-0.135,-0.195
5464,-0.135,-0.195
5465,-0.135,-0.195
5466,-0.130,-0.195
5467,-0.125,-0.195
5468,-0.120,-0.195
5469,-0.115,-0.195
5470,-0.115,-0.195
5471,-0.115,-0.195
5472,-0.115,-0.200
5473,-0.115,-0.205
5474,-0.115,-0.205
5475,-0.115,-0.205
5476,-0.115,-0.200
5477,-0.115,-0.195
5478,-0.115,-0.195
5479,-0.115,-0.195
5480,-0.120,-0.195
5481,-0.125,-0.195
5482,-0.120,-0.200
5483,-0.115,-0.205
5484,-0.110,-0.200
5485,-0.105,-0.195
5486,-0.105,-0.195
5487,-0.105,-0.195
5488,-0.105,-0.195
5489,-0.105,-0.195
5490,-0.105,-0.200
5491,-0.105,-0.205
5492,-0.105,-0.200
5493,-0.105,-0.195
5494,-0.105,-0.190
5495,-0.105,-0.185
5496,-0.110,-0.190
5497,-0.115,-0.195
5498,-0.110,-0.195
5499,-0.105,-0.195
5500,-0.105,-0.195
5501,-0.105,-0.190
5502,-0.105,-0.185
5503,-0.100,-0.190
5504,-0.095,-0.195
5505,-0.095,-0.195
5506,-0.095,-0.195
5507,-0.100,-0.195
5508,-0.105,-0.195
5509,-0.100,-0.190
5510,-0.095,-0.185
5511,-0.100,-0.190
5512,-0.105,-0.195
5513,-0.100,-0.195
5514,-0.095,-0.195
5515,-0.095,-0.195
5516,-0.095,-0.195
5517,-0.095,-0.190
5518,-0.095,-0.185
5519,-0.090,-0.190
5520,-0.085,-0.195
5521,-0.090,-0.195
5522,-0.095,-0.195
5523,-0.090,-0.190
5524,-0.085,-0.185
5525,-0.085,-0.185
5526,-0.085,-0.185
5527,-0.090,-0.185
5528,-0.095,-0.185
5529,-0.090,-0.190
5530,-0.085,-0.195
5531,-0.085,-0.190
5532,-0.085,-0.185
5533,-0.085,-0.185
5534,-0.085,-0.185
5535,-0.080,-0.180
5536,-0.075,-0.175
5537,-0.075,-0.180
5538,-0.075,-0.185
5539,-0.075,-0.180
5540,-0.060,-0.175
5541,-0.040,-0.170
5542,-0.030,-0.160
5543,-0.025,-0.155
5544,-0.020,-0.145
5545,-0.015,-0.135
5546,-0.010,-0.130
5547,-0.005,-0.125
5548,0.005,-0.120
5549,0.015,-0.115
5550,0.015,-0.120
5551,0.015,-0.125
5552,0.025,-0.135
5553,0.035,-0.145
5554,0.040,-0.150
5555,0.045,-0.155
5556,0.045,-0.145
5557,0.040,-0.135
5558,0.020,-0.140
5559,0.005,-0.145
5560,0.005,-0.150
5561,0.000,-0.155
5562,-0.020,-0.155
5563,-0.045,-0.155
5564,-0.065,-0.155
5565,-0.075,-0.160
5566,-0.080,-0.175
5567,-0.085,-0.185
5568,-0.085,-0.190
5569,-0.085,-0.195
5570,-0.090,-0.195
5571,-0.095,-0.195
5572,-0.090,-0.195
5573,-0.090,-0.195
5574,-0.100,-0.190
5575,-0.100,-0.185
5576,-0.090,-0.190
5577,-0.085,-0.195
5578,-0.090,-0.195
5579,-0.095,-0.195
5580,-0.090,-0.190
5581,-0.085,-0.185
5582,-0.080,-0.190
5583,-0.075,-0.195
5584,-0.075,-0.185
5585,-0.065,-0.190
5586,-0.055,-0.195
5587,-0.040,-0.190
5588,-0.020,-0.185
5589,0.025,-0.200
5590,0.085,-0.215
5591,0.240,-0.220
5592,0.430,-0.250
5593,0.755,-0.385
5594,1.035,-0.515
5595,1.175,-0.650
5596,1.245,-0.745
5597,1.130,-0.760
5598,0.950,-0.775
5599,0.645,-0.780
5600,0.340,-0.745
5601,0.035,-0.645
5602,-0.135,-0.520
5603,-0.145,-0.360
5604,-0.135,-0.220
5605,-0.090,-0.105
5606,-0.065,-0.035
5607,-0.070,-0.010
5608,-0.080,-0.005
5609,-0.090,-0.025
5610,-0.095,-0.040
5611,-0.100,-0.055
5612,-0.105,-0.065
5613,-0.110,-0.070
5614,-0.115,-0.075
5615,-0.120,-0.075
5616,-0.125,-0.075
5617,-0.120,-0.070
5618,-0.115,-0.065
5619,-0.120,-0.070
5620,-0.125,-0.075
5621,-0.125,-0.075
5622,-0.125,-0.075
5623,-0.120,-0.075
5624,-0.115,-0.075
5625,-0.115,-0.075
5626,-0.110,-0.070
5627,-0.105,-0.065
5628,-0.105,-0.070
5629,-0.105,-0.075
5630,-0.100,-0.070
5631,-0.095,-0.065
5632,-0.095,-0.060
5633,-0.095,-0.055
5634,-0.095,-0.055
5635,-0.095,-0.055
5636,-0.090,-0.055
5637,-0.085,-0.055
5638,-0.080,-0.050
5639,-0.075,-0.045
5640,-0.065,-0.040
5641,-0.055,-0.035
5642,-0.045,-0.030
5643,-0.035,-0.025
5644,-0.030,-0.025
5645,-0.025,-0.025
5646,-0.020,-0.020
5647,-0.010,-0.010
5648,0.005,0.000
5649,0.015,0.005
5650,0.020,0.010
5651,0.035,0.020
5652,0.055,0.030
5653,0.075,0.040
5654,0.095,0.050
5655,0.115,0.060
5656,0.130,0.070
5657,0.150,0.080
5658,0.170,0.090
5659,0.180,0.100
5660,0.190,0.110
5661,0.215,0.115
5662,0.240,0.120
5663,0.255,0.140
5664,0.270,0.160
5665,0.280,0.165
5666,0.290,0.170
5667,0.310,0.180
5668,0.325,0.185
5669,0.335,0.190
5670,0.345,0.195
5671,0.350,0.200
5672,0.355,0.205
5673,0.355,0.205
5674,0.355,0.205
5675,0.340,0.195
5676,0.320,0.185
5677,0.295,0.175
5678,0.270,0.165
5679,0.245,0.150
5680,0.215,0.130
5681,0.180,0.105
5682,0.145,0.080
5683,0.115,0.060
5684,0.085,0.035
5685,0.055,0.010
5686,0.025,-0.010
5687,0.000,-0.025
5688,-0.025,-0.040
5689,-0.045,-0.055
5690,-0.065,-0.070
5691,-0.085,-0.085
5692,-0.100,-0.100
5693,-0.110,-0.110
5694,-0.115,-0.115
5695,-0.120,-0.120
5696,-0.130,-0.130
5697,-0.140,-0.140
5698,-0.145,-0.145
5699,-0.150,-0.145
5700,-0.155,-0.145
5701,-0.150,-0.150
5702,-0.145,-0.155
5703,-0.150,-0.155
5704,-0.155,-0.155
5705,-0.155,-0.150
5706,-0.155,-0.145
5707,-0.155,-0.150
5708,-0.155,-0.155
5709,-0.155,-0.155
5710,-0.155,-0.150
5711,-0.155,-0.145
5712,-0.160,-0.145
5713,-0.165,-0.145
5714,-0.160,-0.145
5715,-0.155,-0.145
5716,-0.155,-0.150
5717,-0.155,-0.155
5718,-0.155,-0.150
5719,-0.155,-0.145
5720,-0.150,-0.145
5721,-0.145,-0.145
5722,-0.150,-0.145
5723,-0.155,-0.145
5724,-0.155,-0.145
5725,-0.155,-0.145
5726,-0.155,-0.145
5727,-0.155,-0.145
5728,-0.160,-0.140
5729,-0.165,-0.135
5730,-0.165,-0.140
5731,-0.165,-0.145
5732,-0.160,-0.140
5733,-0.155,-0.135
5734,-0.155,-0.135
5735,-0.155,-0.135
5736,-0.150,-0.135
5737,-0.145,-0.135
5738,-0.150,-0.135
5739,-0.155,-0.135
5740,-0.155,-0.140
5741,-0.155,-0.145
5742,-0.155,-0.140
5743,-0.155,-0.135
5744,-0.160,-0.135
5745,-0.165,-0.135
5746,-0.165,-0.135
5747,-0.165,-0.135
5748,-0.165,-0.135
5749,-0.165,-0.135
5750,-0.165,-0.135
5751,-0.165,-0.135
5752,-0.165,-0.135
5753,-0.165,-0.135
5754,-0.165,-0.135
5755,-0.165,-0.140
5756,-0.165,-0.145
5757,-0.160,-0.140
5758,-0.155,-0.135
5759,-0.160,-0.135
5760,-0.165,-0.135
5761,-0.165,-0.140
5762,-0.165,-0.145
5763,-0.165,-0.140
5764,-0.165,-0.135
5765,-0.160,-0.135
5766,-0.155,-0.135
5767,-0.155,-0.135
5768,-0.155,-0.135
5769,-0.155,-0.135
5770,-0.155,-0.135
5771,-0.160,-0.135
5772,-0.165,-0.135
5773,-0.160,-0.130
5774,-0.155,-0.125
5775,-0.160,-0.125
5776,-0.165,-0.125
5777,-0.165,-0.125
5778,-0.165,-0.125
5779,-0.160,-0.125
5780,-0.155,-0.125
5781,-0.150,-0.125
5782,-0.145,-0.125
5783,-0.150,-0.120
5784,-0.155,-0.115
5785,-0.155,-0.120
5786,-0.155,-0.125
5787,-0.150,-0.125
5788,-0.145,-0.125
5789,-0.145,-0.125
5790,-0.145,-0.125
5791,-0.145,-0.120
5792,-0.145,-0.115
5793,-0.145,-0.115
5794,-0.145,-0.115
5795,-0.145,-0.115
5796,-0.140,-0.115
5797,-0.135,-0.115
5798,-0.140,-0.115
5799,-0.145,-0.115
5800,-0.140,-0.115
5801,-0.135,-0.115
5802,-0.140,-0.115
5803,-0.145,-0.115
5804,-0.140,-0.110
5805,-0.135,-0.105
5806,-0.135,-0.105
5807,-0.135,-0.105
5808,-0.140,-0.105
5809,-0.145,-0.105
5810,-0.140,-0.110
5811,-0.135,-0.115
5812,-0.135,-0.110
5813,-0.135,-0.105
5814,-0.130,-0.105
5815,-0.125,-0.105
5816,-0.130,-0.105
5817,-0.135,-0.105
5818,-0.135,-0.105
5819,-0.135,-0.105
5820,-0.135,-0.105
5821,-0.135,-0.105
5822,-0.135,-0.100
5823,-0.135,-0.095
5824,-0.135,-0.095
5825,-0.135,-0.095
5826,-0.130,-0.100
5827,-0.125,-0.105
5828,-0.125,-0.100
5829,-0.125,-0.095
5830,-0.120,-0.095
5831,-0.115,-0.095
5832,-0.120,-0.095
5833,-0.125,-0.095
5834,-0.125,-0.095
5835,-0.120,-0.095
5836,-0.115,-0.095
5837,-0.120,-0.090
5838,-0.125,-0.085
5839,-0.125,-0.090
5840,-0.125,-0.095
5841,-0.120,-0.090
5842,-0.115,-0.085
5843,-0.115,-0.085
5844,-0.115,-0.085
5845,-0.115,-0.085
5846,-0.115,-0.085
5847,-0.115,-0.085
5848,-0.115,-0.085
5849,-0.115,-0.085
5850,-0.115,-0.085
5851,-0.110,-0.085
5852,-0.105,-0.085
5853,-0.115,-0.080
5854,-0.125,-0.075
5855,-0.120,-0.080
5856,-0.115,-0.085
5857,-0.110,-0.080
5858,-0.105,-0.075
5859,-0.105,-0.070
5860,-0.105,-0.065
5861,-0.100,-0.070
5862,-0.095,-0.075
5863,-0.095,-0.075
5864,-0.090,-0.075
5865,-0.080,-0.070
5866,-0.065,-0.060
5867,-0.050,-0.050
5868,-0.045,-0.040
5869,-0.050,-0.030
5870,-0.055,-0.025
5871,-0.050,-0.025
5872,-0.035,-0.025
5873,-0.020,-0.020
5874,-0.015,-0.015
5875,-0.015,-0.015
5876,-0.005,-0.020
5877,-0.005,-0.025
5878,0.005,-0.040
5879,0.015,-0.055
5880,0.020,-0.040
5881,0.025,-0.025
5882,0.015,-0.030
5883,0.005,-0.035
5884,-0.010,-0.030
5885,-0.025,-0.025
5886,-0.035,-0.040
5887,-0.050,-0.055
5888,-0.070,-0.045
5889,-0.085,-0.040
5890,-0.090,-0.055
5891,-0.095,-0.065
5892,-0.105,-0.075
5893,-0.115,-0.085
5894,-0.115,-0.090
5895,-0.115,-0.095
5896,-0.115,-0.090
5897,-0.115,-0.085
5898,-0.115,-0.080
5899,-0.115,-0.075
5900,-0.115,-0.080
5901,-0.115,-0.085
5902,-0.115,-0.085
5903,-0.115,-0.085
5904,-0.115,-0.085
5905,-0.115,-0.085
5906,-0.110,-0.080
5907,-0.105,-0.075
5908,-0.100,-0.075
5909,-0.095,-0.075
5910,-0.090,-0.075
5911,-0.080,-0.075
5912,-0.070,-0.080
5913,-0.055,-0.085
5914,-0.040,-0.085
5915,0.040,-0.090
5916,0.120,-0.100
5917,0.355,-0.135
5918,0.590,-0.170
5919,0.860,-0.345
5920,1.115,-0.515
5921,1.130,-0.580
5922,1.125,-0.635
5923,0.925,-0.640
5924,0.705,-0.645
5925,0.390,-0.630
5926,0.105,-0.590
5927,-0.095,-0.470
5928,-0.235,-0.340
5929,-0.185,-0.190
5930,-0.140,-0.055
5931,-0.105,0.040
5932,-0.085,0.105
5933,-0.090,0.110
5934,-0.095,0.105
5935,-0.100,0.080
5936,-0.105,0.060
5937,-0.110,0.045
5938,-0.115,0.035
5939,-0.115,0.030
5940,-0.115,0.025
5941,-0.120,0.020
5942,-0.125,0.015
5943,-0.125,0.015
5944,-0.125,0.015
5945,-0.125,0.010
5946,-0.125,0.010
5947,-0.125,0.020
5948,-0.125,0.020
5949,-0.125,0.010
5950,-0.125,0.005
5951,-0.120,0.010
5952,-0.115,0.015
5953,-0.110,0.015
5954,-0.105,0.015
5955,-0.105,0.020
5956,-0.105,0.025
5957,-0.105,0.025
5958,-0.105,0.025
5959,-0.095,0.025
5960,-0.090,0.025
5961,-0.085,0.025
5962,-0.085,0.025
5963,-0.085,0.025
5964,-0.080,0.030
5965,-0.075,0.035
5966,-0.065,0.030
5967,-0.055,0.025
5968,-0.050,0.035
5969,-0.045,0.045
5970,-0.035,0.045
5971,-0.025,0.045
5972,-0.015,0.045
5973,-0.005,0.045
5974,0.005,0.055
5975,0.015,0.065
5976,0.025,0.075
5977,0.040,0.085
5978,0.055,0.085
5979,0.070,0.085
5980,0.085,0.090
5981,0.105,0.100
5982,0.125,0.110
5983,0.145,0.120
5984,0.165,0.130
5985,0.180,0.135
5986,0.195,0.140
5987,0.215,0.150
5988,0.230,0.160
5989,0.250,0.165
5990,0.275,0.170
5991,0.290,0.180
5992,0.300,0.190
5993,0.320,0.195
5994,0.340,0.200
5995,0.345,0.205
5996,0.345,0.210
5997,0.350,0.215
5998,0.360,0.220
5999,0.365,0.225
6000,0.365,0.225
6001,0.355,0.220
6002,0.345,0.215
6003,0.325,0.205
6004,0.305,0.195
6005,0.275,0.185
6006,0.240,0.175
6007,0.205,0.155
6008,0.170,0.135
6009,0.140,0.120
6010,0.110,0.105
6011,0.065,0.080
6012,0.030,0.060
6013,0.005,0.040
6014,-0.020,0.025
6015,-0.040,0.015
6016,-0.055,0.005
6017,-0.065,-0.005
6018,-0.080,-0.015
6019,-0.095,-0.025
6020,-0.105,-0.035
6021,-0.120,-0.040
6022,-0.125,-0.045
6023,-0.130,-0.050
6024,-0.135,-0.055
6025,-0.135,-0.060
6026,-0.135,-0.065
6027,-0.140,-0.065
6028,-0.145,-0.065
6029,-0.145,-0.065
6030,-0.145,-0.065
6031,-0.145,-0.065
6032,-0.145,-0.065
6033,-0.140,-0.065
6034,-0.135,-0.065
6035,-0.140,-0.065
6036,-0.145,-0.065
6037,-0.140,-0.065
6038,-0.135,-0.065
6039,-0.140,-0.065
6040,-0.145,-0.065
6041,-0.140,-0.065
6042,-0.140,-0.065
6043,-0.145,-0.065
6044,-0.140,-0.070
6045,-0.135,-0.075
6046,-0.135,-0.070
6047,-0.135,-0.065
6048,-0.135,-0.065
6049,-0.135,-0.065
6050,-0.130,-0.065
6051,-0.125,-0.065
6052,-0.130,-0.065
6053,-0.135,-0.065
6054,-0.130,-0.065
6055,-0.125,-0.065
6056,-0.130,-0.065
6057,-0.135,-0.065
6058,-0.135,-0.065
6059,-0.135,-0.065
6060,-0.135,-0.065
6061,-0.135,-0.065
6062,-0.130,-0.065
6063,-0.125,-0.065
6064,-0.130,-0.065
6065,-0.135,-0.065
6066,-0.130,-0.070
6067,-0.125,-0.075
6068,-0.125,-0.075
6069,-0.125,-0.075
6070,-0.130,-0.075
6071,-0.135,-0.075
6072,-0.130,-0.070
6073,-0.130,-0.065
6074,-0.140,-0.070
6075,-0.145,-0.075
6076,-0.140,-0.075
6077,-0.135,-0.075
6078,-0.135,-0.075
6079,-0.135,-0.075
6080,-0.135,-0.075
6081,-0.135,-0.075
6082,-0.135,-0.075
6083,-0.135,-0.075
6084,-0.135,-0.085
6085,-0.135,-0.080
6086,-0.135,-0.075
6087,-0.135,-0.075
6088,-0.135,-0.075
6089,-0.135,-0.080
6090,-0.135,-0.085
6091,-0.135,-0.085
6092,-0.135,-0.085
6093,-0.135,-0.085
6094,-0.135,-0.085
6095,-0.135,-0.080
6096,-0.135,-0.075
6097,-0.130,-0.080
6098,-0.125,-0.085
6099,-0.125,-0.085
6100,-0.125,-0.085
6101,-0.125,-0.085
6102,-0.125,-0.085
6103,-0.130,-0.085
6104,-0.135,-0.085
6105,-0.135,-0.085
6106,-0.130,-0.085
6107,-0.120,-0.085
6108,-0.115,-0.085
6109,-0.115,-0.080
6110,-0.115,-0.075
6111,-0.110,-0.080
6112,-0.105,-0.085
6113,-0.110,-0.085
6114,-0.115,-0.085
6115,-0.115,-0.080
6116,-0.115,-0.075
6117,-0.115,-0.075
6118,-0.115,-0.075
6119,-0.115,-0.080
6120,-0.115,-0.085
6121,-0.115,-0.085
6122,-0.115,-0.085
6123,-0.110,-0.085
6124,-0.105,-0.085
6125,-0.105,-0.085
6126,-0.105,-0.080
6127,-0.105,-0.075
6128,-0.105,-0.080
6129,-0.105,-0.085
6130,-0.105,-0.085
6131,-0.105,-0.085
6132,-0.105,-0.085
6133,-0.105,-0.085
6134,-0.105,-0.080
6135,-0.105,-0.075
6136,-0.105,-0.080
6137,-0.105,-0.085
6138,-0.100,-0.085
6139,-0.095,-0.085
6140,-0.095,-0.085
6141,-0.095,-0.085
6142,-0.095,-0.085
6143,-0.095,-0.085
6144,-0.095,-0.085
6145,-0.095,-0.085
6146,-0.095,-0.090
6147,-0.095,-0.095
6148,-0.095,-0.090
6149,-0.095,-0.085
6150,-0.095,-0.085
6151,-0.095,-0.085
6152,-0.095,-0.085
6153,-0.095,-0.085
6154,-0.090,-0.085
6155,-0.085,-0.085
6156,-0.085,-0.085
6157,-0.085,-0.085
6158,-0.085,-0.085
6159,-0.085,-0.085
6160,-0.090,-0.085
6161,-0.095,-0.085
6162,-0.090,-0.085
6163,-0.085,-0.085
6164,-0.085,-0.085
6165,-0.085,-0.085
6166,-0.085,-0.085
6167,-0.085,-0.090
6168,-0.085,-0.095
6169,-0.080,-0.090
6170,-0.075,-0.085
6171,-0.075,-0.085
6172,-0.075,-0.085
6173,-0.070,-0.085
6174,-0.065,-0.085
6175,-0.070,-0.085
6176,-0.075,-0.085
6177,-0.075,-0.085
6178,-0.075,-0.085
6179,-0.070,-0.085
6180,-0.065,-0.085
6181,-0.070,-0.080
6182,-0.070,-0.075
6183,-0.055,-0.080
6184,-0.045,-0.085
6185,-0.035,-0.075
6186,-0.025,-0.060
6187,-0.025,-0.045
6188,-0.020,-0.035
6189,-0.010,-0.035
6190,0.000,-0.035
6191,0.010,-0.035
6192,0.015,-0.035
6193,0.015,-0.035
6194,0.020,-0.040
6195,0.030,-0.050
6196,0.035,-0.055
6197,0.040,-0.060
6198,0.045,-0.060
6199,0.045,-0.050
6200,0.040,-0.045
6201,0.030,-0.050
6202,0.025,-0.055
6203,0.025,-0.055
6204,0.015,-0.060
6205,0.000,-0.070
6206,-0.025,-0.075
6207,-0.050,-0.070
6208,-0.060,-0.075
6209,-0.075,-0.095
6210,-0.075,-0.100
6211,-0.075,-0.105
6212,-0.080,-0.110
6213,-0.085,-0.115
6214,-0.080,-0.115
6215,-0.075,-0.115
6216,-0.075,-0.110
6217,-0.075,-0.105
6218,-0.075,-0.105
6219,-0.075,-0.105
6220,-0.075,-0.105
6221,-0.075,-0.105
6222,-0.075,-0.110
6223,-0.075,-0.115
6224,-0.070,-0.110
6225,-0.065,-0.105
6226,-0.060,-0.105
6227,-0.055,-0.105
6228,-0.055,-0.110
6229,-0.050,-0.115
6230,-0.025,-0.115
6231,0.000,-0.115
6232,0.035,-0.120
6233,0.125,-0.125
6234,0.255,-0.130
6235,0.465,-0.185
6236,0.725,-0.265
6237,0.935,-0.400
6238,1.110,-0.560
6239,1.145,-0.610
6240,1.115,-0.620
6241,0.915,-0.635
6242,0.665,-0.650
6243,0.390,-0.635
6244,0.105,-0.600
6245,-0.055,-0.485
6246,-0.200,-0.360
6247,-0.160,-0.230
6248,-0.100,-0.105
6249,-0.075,-0.015
6250,-0.095,-0.095
6251,-0.055,0.075
6252,-0.065,0.075
6253,-0.070,0.050
6254,-0.075,0.025
6255,-0.080,0.010
6256,-0.085,-0.005
6257,-0.085,-0.005
6258,-0.085,-0.005
6259,-0.095,-0.010
6260,-0.105,-0.015
6261,-0.100,-0.015
6262,-0.095,-0.015
6263,-0.095,-0.020
6264,-0.095,-0.025
6265,-0.095,-0.020
6266,-0.095,-0.015
6267,-0.090,-0.015
6268,-0.085,-0.015
6269,-0.090,-0.020
6270,-0.095,-0.025
6271,-0.090,-0.025
6272,-0.085,-0.025
6273,-0.080,-0.025
6274,-0.075,-0.025
6275,-0.080,-0.020
6276,-0.080,-0.015
6277,-0.070,-0.020
6278,-0.065,-0.025
6279,-0.060,-0.020
6280,-0.055,-0.015
6281,-0.050,-0.010
6282,-0.045,-0.005
6283,-0.040,-0.005
6284,-0.035,-0.005
6285,-0.030,-0.005
6286,-0.025,-0.005
6287,-0.020,0.000
6288,-0.010,0.005
6289,0.000,0.005
6290,0.005,0.010
6291,0.010,0.020
6292,0.025,0.025
6293,0.035,0.025
6294,0.050,0.035
6295,0.065,0.045
6296,0.080,0.050
6297,0.095,0.055
6298,0.115,0.065
6299,0.135,0.075
6300,0.145,0.080
6301,0.155,0.085
6302,0.170,0.095
6303,0.190,0.105
6304,0.210,0.115
6305,0.225,0.125
6306,0.235,0.135
6307,0.250,0.145
6308,0.270,0.155
6309,0.290,0.165
6310,0.305,0.170
6311,0.320,0.175
6312,0.335,0.185
6313,0.350,0.195
6314,0.360,0.200
6315,0.365,0.205
6316,0.370,0.205
6317,0.375,0.205
6318,0.370,0.205
6319,0.360,0.205
6320,0.350,0.200
6321,0.335,0.190
6322,0.315,0.180
6323,0.285,0.165
6324,0.255,0.150
6325,0.225,0.130
6326,0.200,0.110
6327,0.170,0.090
6328,0.130,0.070
6329,0.100,0.050
6330,0.070,0.030
6331,0.045,0.010
6332,0.020,-0.010
6333,-0.005,-0.020
6334,-0.035,-0.035
6335,-0.055,-0.055
6336,-0.075,-0.075
6337,-0.080,-0.080
6338,-0.085,-0.085
6339,-0.095,-0.095
6340,-0.105,-0.105
6341,-0.110,-0.110
6342,-0.115,-0.115
6343,-0.120,-0.115
6344,-0.125,-0.115
6345,-0.125,-0.115
6346,-0.125,-0.115
6347,-0.125,-0.120
6348,-0.125,-0.125
6349,-0.130,-0.130
6350,-0.135,-0.135
6351,-0.135,-0.135
6352,-0.135,-0.135
6353,-0.130,-0.135
6354,-0.125,-0.135
6355,-0.130,-0.130
6356,-0.135,-0.125
6357,-0.130,-0.130
6358,-0.125,-0.135
6359,-0.125,-0.135
6360,-0.125,-0.135
6361,-0.125,-0.130
6362,-0.125,-0.125
6363,-0.120,-0.130
6364,-0.115,-0.135
6365,-0.120,-0.135
6366,-0.125,-0.135
6367,-0.125,-0.135
6368,-0.125,-0.135
6369,-0.125,-0.130
6370,-0.125,-0.125
6371,-0.130,-0.125
6372,-0.135,-0.125
6373,-0.130,-0.130
6374,-0.125,-0.135
6375,-0.125,-0.135
6376,-0.125,-0.130
6377,-0.125,-0.125
6378,-0.125,-0.125
6379,-0.125,-0.125
6380,-0.125,-0.130
6381,-0.125,-0.135
6382,-0.125,-0.135
6383,-0.125,-0.135
6384,-0.130,-0.130
6385,-0.135,-0.125
6386,-0.140,-0.130
6387,-0.145,-0.135
6388,-0.140,-0.135
6389,-0.135,-0.135
6390,-0.135,-0.135
6391,-0.135,-0.135
6392,-0.140,-0.135
6393,-0.145,-0.135
6394,-0.140,-0.135
6395,-0.135,-0.135
6396,-0.135,-0.140
6397,-0.135,-0.145
6398,-0.140,-0.145
6399,-0.145,-0.145
6400,-0.140,-0.140
6401,-0.135,-0.135
6402,-0.140,-0.135
6403,-0.145,-0.135
6404,-0.145,-0.140
6405,-0.145,-0.145
6406,-0.145,-0.145
6407,-0.145,-0.145
6408,-0.140,-0.145
6409,-0.135,-0.145
6410,-0.135,-0.145
6411,-0.135,-0.145
6412,-0.135,-0.145
6413,-0.135,-0.145
6414,-0.135,-0.145
6415,-0.135,-0.145
6416,-0.135,-0.140
6417,-0.140,-0.140
6418,-0.145,-0.145
6419,-0.140,-0.145
6420,-0.135,-0.145
6421,-0.135,-0.145
6422,-0.135,-0.145
6423,-0.130,-0.140
6424,-0.125,-0.135
6425,-0.130,-0.140
6426,-0.135,-0.145
6427,-0.135,-0.145
6428,-0.135,-0.145
6429,-0.135,-0.145
6430,-0.135,-0.145
6431,-0.130,-0.145
6432,-0.125,-0.145
6433,-0.130,-0.140
6434,-0.135,-0.135
6435,-0.130,-0.140
6436,-0.125,-0.145
6437,-0.120,-0.145
6438,-0.115,-0.145
6439,-0.115,-0.145
6440,-0.115,-0.145
6441,-0.120,-0.140
6442,-0.125,-0.135
6443,-0.125,-0.140
6444,-0.125,-0.145
6445,-0.120,-0.140
6446,-0.120,-0.135
6447,-0.130,-0.140
6448,-0.135,-0.145
6449,-0.130,-0.145
6450,-0.125,-0.145
6451,-0.120,-0.140
6452,-0.115,-0.135
6453,-0.115,-0.135
6454,-0.115,-0.135
6455,-0.115,-0.135
6456,-0.115,-0.135
6457,-0.120,-0.135
6458,-0.125,-0.135
6459,-0.115,-0.135
6460,-0.110,-0.135
6461,-0.105,-0.135
6462,-0.115,-0.135
6463,-0.125,-0.135
6464,-0.125,-0.135
6465,-0.125,-0.135
6466,-0.120,-0.135
6467,-0.115,-0.135
6468,-0.110,-0.135
6469,-0.105,-0.135
6470,-0.105,-0.135
6471,-0.105,-0.135
6472,-0.110,-0.135
6473,-0.115,-0.135
6474,-0.115,-0.135
6475,-0.115,-0.135
6476,-0.110,-0.130
6477,-0.105,-0.125
6478,-0.110,-0.130
6479,-0.115,-0.135
6480,-0.115,-0.135
6481,-0.115,-0.135
6482,-0.110,-0.135
6483,-0.105,-0.135
6484,-0.100,-0.130
6485,-0.095,-0.125
6486,-0.095,-0.125
6487,-0.095,-0.125
6488,-0.100,-0.130
6489,-0.105,-0.135
6490,-0.105,-0.130
6491,-0.105,-0.125
