'sample interval','ECG1','ECG2'
'0.004 sec','mV','mV'
0,0.240,0.560
1,0.355,0.520
2,0.420,0.490
3,0.460,0.445
4,0.500,0.395
5,0.515,0.340
6,0.525,0.285
7,0.460,0.240
8,0.400,0.200
9,0.320,0.185
10,0.250,0.165
11,0.200,0.140
12,0.140,0.115
13,0.070,0.090
14,0.010,0.070
15,-0.020,0.060
16,-0.050,0.050
17,-0.080,0.055
18,-0.110,0.060
19,-0.135,0.050
20,-0.150,0.040
21,-0.165,0.045
22,-0.170,0.050
23,-0.175,0.055
24,-0.185,0.055
25,-0.195,0.045
26,-0.210,0.045
27,-0.230,0.055
28,-0.230,0.060
29,-0.215,0.055
30,-0.220,0.050
31,-0.235,0.050
32,-0.255,0.045
33,-0.275,0.035
34,-0.280,0.030
35,-0.280,0.035
36,-0.280,0.040
37,-0.285,0.040
38,-0.295,0.040
39,-0.305,0.040
40,-0.315,0.040
41,-0.325,0.035
42,-0.320,0.030
43,-0.310,0.030
44,-0.345,0.025
45,-0.380,0.020
46,-0.375,0.025
47,-0.370,0.030
48,-0.370,0.030
49,-0.370,0.030
50,-0.375,0.020
51,-0.380,0.010
52,-0.375,0.020
53,-0.370,0.030
54,-0.380,0.020
55,-0.390,0.010
56,-0.395,0.005
57,-0.400,0.000
58,-0.395,0.005
59,-0.390,0.010
60,-0.390,0.005
61,-0.390,0.000
62,-0.400,0.010
63,-0.410,0.015
64,-0.410,0.005
65,-0.410,0.000
66,-0.410,-0.005
67,-0.405,-0.005
68,-0.395,0.005
69,-0.395,0.010
70,-0.415,0.005
71,-0.420,0.000
72,-0.415,0.005
73,-0.410,0.005
74,-0.405,-0.005
75,-0.400,-0.010
76,-0.405,-0.005
77,-0.410,0.000
78,-0.415,-0.005
79,-0.420,-0.010
80,-0.415,-0.010
81,-0.410,-0.010
82,-0.410,-0.015
83,-0.410,-0.020
84,-0.420,-0.010
85,-0.405,0.000
86,-0.390,0.010
87,-0.410,-0.010
88,-0.430,-0.030
89,-0.415,-0.020
90,-0.400,-0.010
91,-0.400,-0.010
92,-0.400,-0.010
93,-0.410,-0.010
94,-0.420,-0.010
95,-0.405,-0.010
96,-0.390,-0.010
97,-0.400,-0.020
98,-0.405,-0.030
99,-0.390,-0.020
100,-0.380,-0.010
101,-0.385,-0.015
102,-0.390,-0.020
103,-0.390,-0.020
104,-0.390,-0.020
105,-0.385,-0.020
106,-0.380,-0.020
107,-0.385,-0.015
108,-0.390,-0.015
109,-0.390,-0.025
110,-0.385,-0.030
111,-0.375,-0.025
112,-0.370,-0.020
113,-0.375,-0.020
114,-0.380,-0.020
115,-0.385,-0.025
116,-0.385,-0.025
117,-0.375,-0.015
118,-0.380,-0.010
119,-0.395,-0.010
120,-0.395,-0.020
121,-0.385,-0.035
122,-0.380,-0.035
123,-0.385,-0.025
124,-0.390,-0.020
125,-0.390,-0.020
126,-0.390,-0.015
127,-0.380,-0.020
128,-0.375,-0.020
129,-0.370,-0.020
130,-0.385,-0.020
131,-0.400,-0.020
132,-0.380,-0.015
133,-0.360,-0.010
134,-0.370,-0.020
135,-0.380,-0.030
136,-0.365,-0.020
137,-0.350,-0.010
138,-0.360,-0.020
139,-0.370,-0.030
140,-0.365,-0.020
141,-0.360,-0.010
142,-0.355,-0.020
143,-0.350,-0.030
144,-0.355,-0.020
145,-0.360,-0.010
146,-0.355,-0.005
147,-0.355,0.000
148,-0.365,-0.005
149,-0.365,-0.010
150,-0.355,-0.010
151,-0.345,-0.010
152,-0.330,-0.015
153,-0.320,-0.010
154,-0.325,0.005
155,-0.320,0.010
156,-0.305,0.010
157,-0.295,0.010
158,-0.285,0.005
159,-0.270,0.000
160,-0.255,0.000
161,-0.250,0.010
162,-0.250,0.025
163,-0.230,0.030
164,-0.205,0.025
165,-0.165,0.000
166,-0.125,-0.025
167,-0.150,-0.070
168,-0.180,-0.110
169,-0.195,-0.095
170,-0.210,-0.080
171,-0.265,-0.085
172,-0.310,-0.090
173,-0.290,-0.090
174,-0.270,-0.090
175,-0.275,-0.110
176,-0.280,-0.130
177,-0.295,-0.125
178,-0.300,-0.115
179,-0.260,-0.085
180,-0.230,-0.055
181,-0.250,-0.035
182,-0.260,-0.020
183,-0.255,-0.010
184,-0.265,0.000
185,-0.305,-0.005
186,-0.330,-0.010
187,-0.330,-0.010
188,-0.330,-0.010
189,-0.330,-0.015
190,-0.330,-0.020
191,-0.325,-0.020
192,-0.315,-0.020
193,-0.300,-0.015
194,-0.305,-0.010
195,-0.340,-0.010
196,-0.345,-0.015
197,-0.335,-0.025
198,-0.315,-0.035
199,-0.290,-0.045
200,-0.290,-0.035
201,-0.305,-0.015
202,-0.295,-0.010
203,-0.275,-0.015
204,-0.270,-0.020
205,-0.275,-0.025
206,-0.260,0.000
207,-0.235,0.035
208,-0.190,0.190
209,-0.140,0.350
210,0.020,0.320
211,0.185,0.270
212,0.445,-0.055
213,0.715,-0.385
214,1.040,-0.710
215,1.365,-1.040
216,1.690,-1.365
217,1.885,-1.635
218,1.560,-1.665
219,1.230,-1.690
220,0.905,-1.690
221,0.575,-1.595
222,0.250,-1.270
223,-0.080,-0.945
224,-0.410,-0.620
225,-0.565,-0.320
226,-0.450,-0.060
227,-0.370,0.090
228,-0.345,0.090
229,-0.330,0.090
230,-0.345,0.095
231,-0.345,0.105
232,-0.330,0.115
233,-0.315,0.120
234,-0.300,0.120
235,-0.285,0.125
236,-0.275,0.135
237,-0.270,0.135
238,-0.270,0.125
239,-0.250,0.130
240,-0.220,0.145
241,-0.220,0.145
242,-0.235,0.135
243,-0.220,0.130
244,-0.195,0.135
245,-0.170,0.140
246,-0.145,0.140
247,-0.145,0.145
248,-0.155,0.155
249,-0.140,0.165
250,-0.160,0.160
251,-0.105,0.170
252,-0.100,0.160
253,-0.095,0.170
254,-0.090,0.180
255,-0.075,0.195
256,-0.060,0.210
257,-0.025,0.200
258,0.000,0.190
259,-0.005,0.200
260,-0.010,0.210
261,0.005,0.210
262,0.030,0.210
263,0.070,0.225
264,0.105,0.240
265,0.120,0.245
266,0.130,0.250
267,0.130,0.245
268,0.145,0.240
269,0.185,0.245
270,0.215,0.250
271,0.240,0.255
272,0.265,0.260
273,0.295,0.260
274,0.315,0.260
275,0.330,0.260
276,0.355,0.260
277,0.380,0.265
278,0.390,0.265
279,0.395,0.255
280,0.420,0.250
281,0.450,0.255
282,0.480,0.255
283,0.510,0.245
284,0.535,0.240
285,0.555,0.245
286,0.595,0.250
287,0.640,0.245
288,0.660,0.240
289,0.675,0.235
290,0.725,0.230
291,0.775,0.225
292,0.760,0.200
293,0.740,0.180
294,0.690,0.170
295,0.640,0.160
296,0.600,0.140
297,0.555,0.120
298,0.490,0.115
299,0.430,0.110
300,0.400,0.100
301,0.370,0.090
302,0.325,0.080
303,0.290,0.070
304,0.275,0.070
305,0.250,0.070
306,0.210,0.060
307,0.175,0.050
308,0.155,0.050
309,0.140,0.050
310,0.145,0.045
311,0.145,0.040
312,0.130,0.050
313,0.110,0.060
314,0.090,0.060
315,0.080,0.060
316,0.080,0.055
317,0.080,0.060
318,0.085,0.080
319,0.075,0.090
320,0.050,0.085
321,0.040,0.080
322,0.040,0.075
323,0.040,0.070
324,0.040,0.075
325,0.035,0.080
326,0.025,0.085
327,0.010,0.090
328,-0.005,0.095
329,0.005,0.100
330,0.025,0.095
331,0.005,0.090
332,-0.025,0.095
333,-0.030,0.090
334,-0.040,0.070
335,-0.045,0.075
336,-0.050,0.080
337,-0.060,0.070
338,-0.070,0.060
339,-0.085,0.055
340,-0.100,0.050
341,-0.105,0.055
342,-0.110,0.060
343,-0.105,0.060
344,-0.100,0.060
345,-0.115,0.050
346,-0.130,0.040
347,-0.130,0.040
348,-0.130,0.040
349,-0.125,0.030
350,-0.120,0.020
351,-0.125,0.025
352,-0.145,0.030
353,-0.180,0.025
354,-0.200,0.020
355,-0.185,0.020
356,-0.175,0.020
357,-0.165,0.020
358,-0.160,0.015
359,-0.160,0.005
360,-0.165,0.005
361,-0.180,0.015
362,-0.180,0.015
363,-0.160,0.005
364,-0.160,0.000
365,-0.185,0.000
366,-0.190,0.000
367,-0.190,0.005
368,-0.190,0.010
369,-0.185,0.005
370,-0.180,0.000
371,-0.185,0.000
372,-0.190,0.000
373,-0.195,0.000
374,-0.200,0.000
375,-0.200,0.000
376,-0.200,0.005
377,-0.210,0.010
378,-0.210,0.000
379,-0.210,-0.010
380,-0.190,-0.005
381,-0.170,0.000
382,-0.185,-0.005
383,-0.200,-0.010
384,-0.215,-0.015
385,-0.225,-0.020
386,-0.195,-0.010
387,-0.175,0.000
388,-0.195,-0.010
389,-0.210,-0.020
390,-0.210,-0.010
391,-0.210,0.000
392,-0.210,-0.010
393,-0.205,-0.015
394,-0.190,0.000
395,-0.185,0.010
396,-0.200,-0.005
397,-0.210,-0.010
398,-0.205,-0.015
399,-0.200,-0.015
400,-0.205,-0.005
401,-0.210,0.000
402,-0.210,-0.005
403,-0.205,-0.010
404,-0.195,-0.015
405,-0.195,-0.020
406,-0.205,-0.015
407,-0.210,-0.010
408,-0.215,-0.010
409,-0.210,-0.010
410,-0.195,-0.010
411,-0.195,-0.015
412,-0.205,-0.025
413,-0.205,-0.025
414,-0.195,-0.015
415,-0.190,-0.010
416,-0.195,-0.015
417,-0.205,-0.015
418,-0.210,-0.010
419,-0.210,-0.015
420,-0.210,-0.020
421,-0.190,-0.020
422,-0.170,-0.020
423,-0.170,-0.010
424,-0.170,0.000
425,-0.165,0.000
426,-0.155,0.000
427,-0.130,-0.005
428,-0.110,-0.010
429,-0.115,0.000
430,-0.120,0.010
431,-0.110,0.020
432,-0.095,0.030
433,-0.075,0.030
434,-0.055,0.020
435,-0.040,-0.010
436,-0.030,-0.050
437,-0.030,-0.095
438,-0.045,-0.120
439,-0.075,-0.120
440,-0.090,-0.110
441,-0.090,-0.090
442,-0.110,-0.085
443,-0.155,-0.100
444,-0.160,-0.115
445,-0.140,-0.125
446,-0.130,-0.145
447,-0.135,-0.170
448,-0.140,-0.150
449,-0.135,-0.105
450,-0.130,-0.065
451,-0.125,-0.030
452,-0.135,-0.005
453,-0.155,0.015
454,-0.195,0.000
455,-0.235,-0.025
456,-0.225,-0.025
457,-0.205,-0.015
458,-0.200,-0.020
459,-0.210,-0.040
460,-0.205,-0.030
461,-0.200,-0.020
462,-0.210,-0.030
463,-0.220,-0.040
464,-0.210,-0.030
465,-0.200,-0.020
466,-0.200,-0.025
467,-0.200,-0.030
468,-0.210,-0.020
469,-0.220,-0.010
470,-0.210,-0.015
471,-0.200,-0.020
472,-0.200,-0.020
473,-0.195,-0.020
474,-0.180,-0.020
475,-0.170,-0.020
476,-0.160,-0.025
477,-0.150,0.005
478,-0.145,0.095
479,-0.100,0.195
480,-0.015,0.310
481,0.100,0.335
482,0.240,0.265
483,0.470,0.045
484,0.775,-0.285
485,1.090,-0.610
486,1.415,-0.940
487,1.740,-1.270
488,2.065,-1.595
489,1.925,-1.670
490,1.600,-1.640
491,1.270,-1.590
492,0.945,-1.535
493,0.615,-1.260
494,0.290,-0.935
495,-0.040,-0.610
496,-0.365,-0.285
497,-0.340,-0.095
498,-0.265,0.080
499,-0.245,0.090
500,-0.260,0.090
501,-0.250,0.100
502,-0.280,0.110
503,-0.245,0.105
504,-0.210,0.100
505,-0.190,0.105
506,-0.170,0.110
507,-0.170,0.115
508,-0.170,0.120
509,-0.165,0.125
510,-0.155,0.130
511,-0.130,0.130
512,-0.110,0.130
513,-0.125,0.125
514,-0.135,0.120
515,-0.110,0.120
516,-0.085,0.125
517,-0.065,0.140
518,-0.050,0.150
519,-0.045,0.150
520,-0.040,0.150
521,-0.025,0.155
522,-0.010,0.155
523,0.015,0.145
524,0.030,0.150
525,0.025,0.180
526,0.035,0.185
527,0.060,0.175
528,0.080,0.175
529,0.100,0.185
530,0.120,0.190
531,0.140,0.195
532,0.150,0.205
533,0.155,0.215
534,0.185,0.220
535,0.220,0.215
536,0.250,0.210
537,0.275,0.215
538,0.295,0.225
539,0.315,0.235
540,0.360,0.240
541,0.405,0.240
542,0.415,0.245
543,0.420,0.250
544,0.470,0.245
545,0.520,0.240
546,0.550,0.240
547,0.580,0.240
548,0.580,0.250
549,0.585,0.260
550,0.640,0.240
551,0.680,0.220
552,0.675,0.220
553,0.675,0.220
554,0.700,0.230
555,0.730,0.235
556,0.765,0.215
557,0.790,0.195
558,0.800,0.175
559,0.810,0.160
560,0.810,0.160
561,0.795,0.160
562,0.760,0.155
563,0.710,0.145
564,0.645,0.130
565,0.575,0.115
566,0.510,0.105
567,0.435,0.095
568,0.360,0.085
569,0.310,0.080
570,0.275,0.075
571,0.225,0.070
572,0.165,0.070
573,0.145,0.070
574,0.135,0.075
575,0.110,0.060
576,0.085,0.030
577,0.075,0.030
578,0.065,0.045
579,0.040,0.045
580,0.015,0.035
581,0.010,0.030
582,0.010,0.030
583,0.010,0.025
584,0.010,0.010
585,-0.020,0.030
586,-0.050,0.050
587,-0.035,0.050
588,-0.020,0.050
589,-0.040,0.040
590,-0.060,0.030
591,-0.075,0.030
592,-0.090,0.030
593,-0.090,0.040
594,-0.090,0.050
595,-0.100,0.055
596,-0.110,0.060
597,-0.105,0.055
598,-0.100,0.050
599,-0.105,0.060
600,-0.110,0.070
601,-0.120,0.080
602,-0.135,0.085
603,-0.155,0.070
604,-0.170,0.060
605,-0.165,0.075
606,-0.155,0.075
607,-0.145,0.060
608,-0.150,0.050
609,-0.180,0.055
610,-0.185,0.060
611,-0.170,0.060
612,-0.160,0.055
613,-0.165,0.045
614,-0.170,0.045
615,-0.175,0.055
616,-0.180,0.055
617,-0.185,0.045
618,-0.190,0.040
619,-0.190,0.035
620,-0.190,0.030
621,-0.195,0.035
622,-0.210,0.030
623,-0.225,0.015
624,-0.225,0.015
625,-0.230,0.010
626,-0.215,0.030
627,-0.220,0.030
628,-0.220,0.025
629,-0.220,0.020
630,-0.215,0.015
631,-0.210,0.010
632,-0.230,0.020
633,-0.250,0.030
634,-0.220,0.020
635,-0.200,0.010
636,-0.215,0.010
637,-0.230,0.010
638,-0.235,0.020
639,-0.240,0.030
640,-0.235,0.020
641,-0.230,0.010
642,-0.240,0.015
643,-0.245,0.020
644,-0.230,0.015
645,-0.220,0.010
646,-0.235,0.015
647,-0.240,0.015
648,-0.240,0.005
649,-0.245,0.005
650,-0.255,0.015
651,-0.255,0.020
652,-0.245,0.015
653,-0.240,0.010
654,-0.235,0.010
655,-0.230,0.010
656,-0.235,0.015
657,-0.235,0.020
658,-0.225,0.015
659,-0.235,0.010
660,-0.255,0.010
661,-0.260,0.005
662,-0.265,-0.005
663,-0.255,-0.005
664,-0.235,0.005
665,-0.230,0.010
666,-0.230,0.010
667,-0.230,0.005
668,-0.230,0.000
669,-0.235,0.000
670,-0.240,0.000
671,-0.245,0.000
672,-0.250,0.000
673,-0.245,0.000
674,-0.240,0.000
675,-0.240,0.005
676,-0.240,0.010
677,-0.240,0.005
678,-0.240,0.000
679,-0.250,0.000
680,-0.255,0.000
681,-0.230,0.000
682,-0.215,0.000
683,-0.230,0.000
684,-0.240,0.000
685,-0.245,0.000
686,-0.245,0.000
687,-0.230,0.000
688,-0.215,0.005
689,-0.205,0.015
690,-0.185,0.020
691,-0.155,0.025
692,-0.160,0.025
693,-0.195,0.010
694,-0.190,0.005
695,-0.155,0.025
696,-0.135,0.030
697,-0.125,0.025
698,-0.115,0.025
699,-0.105,0.035
700,-0.065,0.020
701,-0.020,-0.010
702,-0.040,-0.050
703,-0.080,-0.090
704,-0.095,-0.095
705,-0.105,-0.085
706,-0.145,-0.080
707,-0.185,-0.080
708,-0.190,-0.075
709,-0.180,-0.060
710,-0.190,-0.100
711,-0.200,-0.140
712,-0.195,-0.125
713,-0.190,-0.110
714,-0.170,-0.075
715,-0.150,-0.040
716,-0.155,-0.025
717,-0.160,-0.010
718,-0.180,-0.005
719,-0.200,0.000
720,-0.215,0.000
721,-0.230,0.000
722,-0.245,-0.005
723,-0.260,-0.010
724,-0.250,-0.015
725,-0.240,-0.020
726,-0.250,-0.020
727,-0.255,-0.020
728,-0.235,-0.010
729,-0.230,-0.005
730,-0.255,-0.020
731,-0.265,-0.030
732,-0.255,-0.025
733,-0.245,-0.020
734,-0.230,-0.020
735,-0.225,-0.020
736,-0.235,-0.020
737,-0.235,-0.020
738,-0.225,-0.020
739,-0.215,-0.020
740,-0.205,-0.020
741,-0.200,0.025
742,-0.195,0.085
743,-0.155,0.200
744,-0.110,0.330
745,0.045,0.320
746,0.220,0.285
747,0.470,-0.015
748,0.725,-0.340
749,1.045,-0.670
750,0.740,-0.360
751,1.700,-1.325
752,1.995,-1.640
753,1.670,-1.550
754,1.340,-1.470
755,1.015,-1.505
756,0.685,-1.495
757,0.360,-1.170
758,0.030,-0.845
759,-0.295,-0.520
760,-0.525,-0.230
761,-0.405,-0.050
762,-0.320,0.080
763,-0.305,0.075
764,-0.290,0.070
765,-0.285,0.080
766,-0.280,0.090
767,-0.280,0.095
768,-0.270,0.100
769,-0.240,0.105
770,-0.220,0.110
771,-0.215,0.110
772,-0.205,0.110
773,-0.195,0.110
774,-0.185,0.110
775,-0.170,0.115
776,-0.165,0.120
777,-0.175,0.120
778,-0.170,0.120
779,-0.155,0.125
780,-0.150,0.130
781,-0.145,0.130
782,-0.125,0.135
783,-0.105,0.145
784,-0.080,0.150
785,-0.055,0.145
786,-0.050,0.140
787,-0.055,0.140
788,-0.040,0.150
789,-0.015,0.165
790,-0.010,0.170
791,-0.005,0.175
792,0.010,0.175
793,0.020,0.170
794,0.070,0.185
795,0.120,0.200
796,0.110,0.200
797,0.100,0.200
798,0.140,0.200
799,0.170,0.200
800,0.200,0.215
801,0.225,0.230
802,0.250,0.235
803,0.280,0.240
804,0.325,0.250
805,0.365,0.260
806,0.390,0.255
807,0.420,0.255
808,0.465,0.270
809,0.500,0.280
810,0.525,0.275
811,0.560,0.270
812,0.610,0.270
813,0.645,0.275
814,0.655,0.285
815,0.670,0.285
816,0.690,0.275
817,0.715,0.270
818,0.745,0.270
819,0.770,0.265
820,0.790,0.255
821,0.810,0.245
822,0.830,0.235
823,0.840,0.220
824,0.835,0.205
825,0.805,0.195
826,0.770,0.185
827,0.700,0.165
828,0.620,0.145
829,0.550,0.140
830,0.480,0.135
831,0.405,0.125
832,0.335,0.115
833,0.270,0.100
834,0.200,0.080
835,0.170,0.075
836,0.140,0.070
837,0.110,0.060
838,0.080,0.050
839,0.045,0.045
840,0.010,0.040
841,0.005,0.045
842,0.000,0.050
843,-0.015,0.040
844,-0.030,0.030
845,-0.040,0.030
846,-0.050,0.030
847,-0.060,0.030
848,-0.075,0.030
849,-0.090,0.035
850,-0.095,0.040
851,-0.075,0.040
852,-0.070,0.040
853,-0.100,0.035
854,-0.110,0.035
855,-0.085,0.060
856,-0.085,0.070
857,-0.115,0.070
858,-0.130,0.065
859,-0.125,0.050
860,-0.120,0.045
861,-0.125,0.055
862,-0.130,0.060
863,-0.130,0.065
864,-0.130,0.070
865,-0.135,0.065
866,-0.145,0.060
867,-0.155,0.060
868,-0.160,0.060
869,-0.155,0.065
870,-0.160,0.070
871,-0.175,0.065
872,-0.180,0.060
873,-0.185,0.060
874,-0.190,0.070
875,-0.190,0.060
876,-0.195,0.055
877,-0.210,0.020
878,-0.195,0.035
879,-0.180,0.050
880,-0.195,0.045
881,-0.210,0.040
882,-0.205,0.045
883,-0.200,0.050
884,-0.215,0.045
885,-0.230,0.040
886,-0.230,0.045
887,-0.230,0.050
888,-0.220,0.040
889,-0.210,0.030
890,-0.220,0.025
891,-0.230,0.020
892,-0.225,0.025
893,-0.220,0.030
894,-0.220,0.030
895,-0.225,0.030
896,-0.250,0.015
897,-0.255,0.010
898,-0.240,0.010
899,-0.230,0.010
900,-0.235,0.010
901,-0.240,0.010
902,-0.240,0.010
903,-0.240,0.010
904,-0.240,0.010
905,-0.240,0.010
906,-0.240,0.005
907,-0.240,0.000
908,-0.240,0.005
909,-0.240,0.010
910,-0.235,0.010
911,-0.230,0.010
912,-0.235,0.005
913,-0.240,0.000
914,-0.240,0.000
915,-0.250,0.005
916,-0.265,0.015
917,-0.265,0.010
918,-0.260,0.000
919,-0.250,0.000
920,-0.240,0.000
921,-0.230,0.000
922,-0.220,0.000
923,-0.240,-0.005
924,-0.260,-0.010
925,-0.255,-0.005
926,-0.250,0.000
927,-0.255,0.000
928,-0.260,0.000
929,-0.250,-0.005
930,-0.240,-0.010
931,-0.245,0.000
932,-0.250,0.010
933,-0.255,0.015
934,-0.255,0.020
935,-0.240,0.015
936,-0.230,0.010
937,-0.240,0.005
938,-0.250,0.000
939,-0.245,0.000
940,-0.240,0.000
941,-0.240,0.005
942,-0.245,0.010
943,-0.255,0.005
944,-0.255,0.000
945,-0.235,-0.005
946,-0.235,-0.010
947,-0.245,-0.005
948,-0.245,0.000
949,-0.235,0.005
950,-0.235,0.010
951,-0.245,0.005
952,-0.250,0.000
953,-0.250,0.000
954,-0.240,-0.005
955,-0.225,-0.015
956,-0.240,-0.015
957,-0.265,-0.005
958,-0.255,0.000
959,-0.230,0.000
960,-0.225,0.000
961,-0.220,0.000
962,-0.220,0.010
963,-0.220,0.020
964,-0.205,0.020
965,-0.190,0.020
966,-0.180,0.005
967,-0.170,-0.010
968,-0.165,0.010
969,-0.150,0.030
970,-0.110,0.015
971,-0.080,0.000
972,-0.075,0.000
973,-0.070,-0.010
974,-0.065,-0.040
975,-0.075,-0.060
976,-0.115,-0.065
977,-0.145,-0.075
978,-0.160,-0.090
979,-0.170,-0.100
980,-0.185,-0.095
981,-0.190,-0.100
982,-0.185,-0.125
983,-0.190,-0.130
984,-0.210,-0.110
985,-0.210,-0.090
986,-0.190,-0.070
987,-0.170,-0.035
988,-0.150,0.005
989,-0.180,0.010
990,-0.235,-0.005
991,-0.250,-0.015
992,-0.250,-0.025
993,-0.250,-0.020
994,-0.245,-0.005
995,-0.250,-0.010
996,-0.265,-0.025
997,-0.270,-0.030
998,-0.270,-0.025
999,-0.255,-0.020
1000,-0.270,-0.020
1001,-0.245,-0.030
1002,-0.260,-0.030
1003,-0.255,-0.025
1004,-0.250,-0.020
1005,-0.260,-0.020
1006,-0.270,-0.020
1007,-0.255,-0.020
1008,-0.240,-0.020
1009,-0.235,-0.015
1010,-0.230,-0.010
1011,-0.220,-0.005
1012,-0.205,0.040
1013,-0.175,0.190
1014,-0.110,0.295
1015,0.025,0.320
1016,0.165,0.245
1017,0.310,-0.025
1018,0.535,-0.315
1019,0.860,-0.645
1020,1.185,-0.970
1021,1.510,-1.300
1022,1.505,-1.625
1023,1.175,-1.955
1024,0.850,-2.035
1025,0.520,-1.920
1026,0.195,-1.675
1027,-0.135,-1.350
1028,-0.400,-1.025
1029,-0.640,-0.700
1030,-0.605,-0.375
1031,-0.450,-0.050
1032,-0.375,0.055
1033,-0.325,0.090
1034,-0.300,0.100
1035,-0.285,0.105
1036,-0.280,0.110
1037,-0.285,0.105
1038,-0.275,0.105
1039,-0.255,0.115
1040,-0.235,0.125
1041,-0.215,0.135
1042,-0.185,0.130
1043,-0.160,0.120
1044,-0.185,0.125
1045,-0.210,0.130
1046,-0.195,0.125
1047,-0.180,0.120
1048,-0.160,0.125
1049,-0.140,0.130
1050,-0.135,0.135
1051,-0.130,0.140
1052,-0.120,0.140
1053,-0.110,0.140
1054,-0.105,0.145
1055,-0.095,0.150
1056,-0.075,0.155
1057,-0.055,0.160
1058,-0.035,0.160
1059,-0.020,0.160
1060,-0.020,0.160
1061,-0.005,0.160
1062,0.030,0.170
1063,0.050,0.180
1064,0.055,0.185
1065,0.075,0.195
1066,0.105,0.205
1067,0.120,0.210
1068,0.125,0.210
1069,0.150,0.215
1070,0.185,0.235
1071,0.220,0.240
1072,0.250,0.240
1073,0.275,0.245
1074,0.300,0.255
1075,0.345,0.265
1076,0.390,0.275
1077,0.430,0.280
1078,0.470,0.285
1079,0.520,0.290
1080,0.575,0.295
1081,0.620,0.300
1082,0.665,0.300
1083,0.685,0.300
1084,0.710,0.300
1085,0.775,0.295
1086,0.840,0.290
1087,0.845,0.290
1088,0.855,0.290
1089,0.900,0.285
1090,0.940,0.280
1091,0.955,0.275
1092,0.970,0.265
1093,0.990,0.240
1094,1.010,0.220
1095,1.010,0.210
1096,0.990,0.195
1097,0.915,0.175
1098,0.835,0.155
1099,0.750,0.140
1100,0.670,0.125
1101,0.595,0.110
1102,0.515,0.100
1103,0.435,0.090
1104,0.360,0.080
1105,0.295,0.075
1106,0.235,0.070
1107,0.185,0.065
1108,0.150,0.055
1109,0.120,0.045
1110,0.095,0.035
1111,0.065,0.025
1112,0.050,0.030
1113,0.045,0.045
1114,0.030,0.040
1115,0.015,0.015
1116,0.000,0.010
1117,-0.015,0.010
1118,-0.010,0.010
1119,0.005,0.010
1120,-0.005,0.010
1121,-0.025,0.015
1122,-0.030,0.020
1123,-0.030,0.020
1124,-0.030,0.020
1125,-0.030,0.020
1126,-0.050,0.015
1127,-0.060,0.010
1128,-0.055,0.020
1129,-0.050,0.030
1130,-0.070,0.035
1131,-0.090,0.040
1132,-0.095,0.045
1133,-0.100,0.050
1134,-0.095,0.060
1135,-0.090,0.070
1136,-0.105,0.060
1137,-0.120,0.050
1138,-0.130,0.060
1139,-0.140,0.070
1140,-0.140,0.060
1141,-0.140,0.050
1142,-0.130,0.055
1143,-0.130,0.060
1144,-0.155,0.060
1145,-0.170,0.060
1146,-0.165,0.055
1147,-0.160,0.050
1148,-0.155,0.055
1149,-0.155,0.060
1150,-0.170,0.060
1151,-0.175,0.060
1152,-0.165,0.065
1153,-0.160,0.065
1154,-0.165,0.055
1155,-0.170,0.050
1156,-0.170,0.045
1157,-0.170,0.040
1158,-0.175,0.035
1159,-0.175,0.030
1160,-0.165,0.035
1161,-0.180,0.035
1162,-0.205,0.025
1163,-0.195,0.020
1164,-0.175,0.025
1165,-0.170,0.030
1166,-0.170,0.025
1167,-0.185,0.015
1168,-0.200,0.010
1169,-0.190,0.015
1170,-0.180,0.020
1171,-0.170,0.015
1172,-0.160,0.010
1173,-0.180,0.005
1174,-0.200,0.000
1175,-0.180,0.000
1176,-0.160,0.000
1177,-0.170,0.000
1178,-0.180,0.000
1179,-0.180,-0.005
1180,-0.180,-0.010
1181,-0.175,-0.010
1182,-0.170,-0.010
1183,-0.175,-0.010
1184,-0.180,-0.010
1185,-0.180,-0.010
1186,-0.180,-0.010
1187,-0.170,-0.015
1188,-0.160,-0.020
1189,-0.165,-0.015
1190,-0.170,-0.010
1191,-0.170,-0.005
1192,-0.170,0.000
1193,-0.165,0.000
1194,-0.160,-0.005
1195,-0.160,-0.025
1196,-0.165,-0.025
1197,-0.175,-0.015
1198,-0.170,-0.010
1199,-0.155,-0.015
1200,-0.165,-0.020
1201,-0.185,-0.015
1202,-0.175,-0.010
1203,-0.155,-0.005
1204,-0.155,-0.005
1205,-0.165,-0.015
1206,-0.170,-0.020
1207,-0.165,-0.020
1208,-0.165,-0.010
1209,-0.180,0.010
1210,-0.185,-0.005
1211,-0.190,-0.020
1212,-0.165,-0.020
1213,-0.140,-0.020
1214,-0.160,-0.015
1215,-0.180,-0.010
1216,-0.175,-0.010
1217,-0.170,-0.010
1218,-0.160,-0.010
1219,-0.150,-0.010
1220,-0.165,-0.015
1221,-0.180,-0.020
1222,-0.170,-0.015
1223,-0.160,-0.010
1224,-0.155,-0.010
1225,-0.150,-0.010
1226,-0.145,-0.015
1227,-0.140,-0.020
1228,-0.150,-0.015
1229,-0.160,-0.010
1230,-0.160,-0.010
1231,-0.160,-0.010
1232,-0.155,-0.015
1233,-0.150,-0.020
1234,-0.150,-0.015
1235,-0.140,-0.010
1236,-0.120,-0.010
1237,-0.115,-0.010
1238,-0.125,-0.015
1239,-0.125,-0.015
1240,-0.115,-0.005
1241,-0.100,0.000
1242,-0.085,-0.005
1243,-0.080,-0.005
1244,-0.075,0.005
1245,-0.020,0.010
1246,0.040,0.005
1247,0.040,-0.010
1248,0.025,-0.025
1249,0.020,-0.050
1250,0.020,-0.030
1251,-0.020,-0.095
1252,-0.070,-0.110
1253,-0.070,-0.105
1254,-0.070,-0.100
1255,-0.075,-0.100
1256,-0.080,-0.100
1257,-0.080,-0.135
1258,-0.080,-0.160
1259,-0.080,-0.140
1260,-0.080,-0.120
1261,-0.055,-0.095
1262,-0.040,-0.070
1263,-0.050,-0.035
1264,-0.070,-0.010
1265,-0.110,-0.015
1266,-0.140,-0.020
1267,-0.150,-0.030
1268,-0.160,-0.035
1269,-0.155,-0.020
1270,-0.150,-0.010
1271,-0.150,-0.015
1272,-0.150,-0.020
1273,-0.150,-0.025
1274,-0.150,-0.030
1275,-0.145,-0.025
1276,-0.140,-0.020
1277,-0.140,-0.025
1278,-0.140,-0.035
1279,-0.140,-0.045
1280,-0.150,-0.040
1281,-0.165,-0.025
1282,-0.155,-0.025
1283,-0.130,-0.035
1284,-0.120,-0.030
1285,-0.120,-0.015
1286,-0.115,-0.015
1287,-0.105,-0.025
1288,-0.090,0.055
1289,-0.075,0.150
1290,-0.005,0.225
1291,0.065,0.295
1292,0.210,0.240
1293,0.360,0.170
1294,0.685,-0.155
1295,1.010,-0.485
1296,1.335,-0.810
1297,1.660,-1.140
1298,1.985,-1.465
1299,2.200,-1.740
1300,1.875,-1.720
1301,1.545,-1.675
1302,1.220,-1.555
1303,0.890,-1.375
1304,0.565,-1.050
1305,0.235,-0.725
1306,-0.095,-0.400
1307,-0.290,-0.145
1308,-0.240,-0.010
1309,-0.210,0.070
1310,-0.205,0.075
1311,-0.195,0.080
1312,-0.175,0.090
1313,-0.160,0.100
1314,-0.160,0.105
1315,-0.150,0.110
1316,-0.125,0.115
1317,-0.110,0.120
1318,-0.110,0.115
1319,-0.110,0.110
1320,-0.110,0.110
1321,-0.100,0.115
1322,-0.085,0.125
1323,-0.065,0.130
1324,-0.045,0.125
1325,-0.040,0.120
1326,-0.035,0.125
1327,-0.035,0.130
1328,-0.045,0.130
1329,-0.020,0.130
1330,0.015,0.125
1331,0.020,0.120
1332,0.020,0.125
1333,0.040,0.135
1334,0.070,0.150
1335,0.060,0.150
1336,0.050,0.150
1337,0.070,0.165
1338,0.090,0.180
1339,0.115,0.175
1340,0.140,0.170
1341,0.155,0.180
1342,0.170,0.190
1343,0.180,0.195
1344,0.200,0.200
1345,0.245,0.200
1346,0.280,0.200
1347,0.275,0.210
1348,0.285,0.220
1349,0.330,0.215
1350,0.375,0.215
1351,0.415,0.230
1352,0.455,0.240
1353,0.490,0.250
1354,0.530,0.260
1355,0.575,0.255
1356,0.625,0.255
1357,0.675,0.265
1358,0.725,0.265
1359,0.780,0.255
1360,0.815,0.250
1361,0.845,0.250
1362,0.890,0.250
1363,0.935,0.250
1364,0.975,0.250
1365,1.010,0.250
1366,1.035,0.240
1367,1.065,0.225
1368,1.085,0.205
1369,1.105,0.185
1370,1.110,0.175
1371,1.115,0.165
1372,1.080,0.150
1373,1.035,0.135
1374,0.940,0.120
1375,1.030,0.130
1376,0.760,0.090
1377,0.680,0.080
1378,0.590,0.075
1379,0.505,0.070
1380,0.450,0.065
1381,0.395,0.060
1382,0.325,0.050
1383,0.260,0.040
1384,0.205,0.030
1385,0.160,0.020
1386,0.155,0.025
1387,0.140,0.030
1388,0.105,0.020
1389,0.080,0.010
1390,0.090,0.015
1391,0.095,0.020
1392,0.065,0.025
1393,0.050,0.020
1394,0.040,-0.010
1395,0.030,-0.025
1396,0.035,0.000
1397,0.035,0.005
1398,0.025,-0.010
1399,0.025,-0.015
1400,0.040,-0.005
1401,0.050,0.000
1402,0.045,0.005
1403,0.030,0.010
1404,0.010,0.010
1405,0.000,0.010
1406,0.005,0.005
1407,0.010,0.015
1408,0.015,0.035
1409,0.000,0.040
1410,-0.035,0.035
1411,-0.040,0.030
1412,-0.035,0.030
1413,-0.040,0.030
1414,-0.055,0.030
1415,-0.050,0.030
1416,-0.035,0.035
1417,-0.040,0.055
1418,-0.050,0.070
1419,-0.060,0.060
1420,-0.070,0.050
1421,-0.085,0.055
1422,-0.100,0.060
1423,-0.095,0.060
1424,-0.090,0.060
1425,-0.085,0.050
1426,-0.080,0.040
1427,-0.085,0.045
1428,-0.090,0.050
1429,-0.095,0.045
1430,-0.100,0.040
1431,-0.100,0.045
1432,-0.100,0.050
1433,-0.110,0.045
1434,-0.120,0.040
1435,-0.115,0.030
1436,-0.110,0.020
1437,-0.110,0.020
1438,-0.110,0.020
1439,-0.115,0.020
1440,-0.120,0.020
1441,-0.115,0.015
1442,-0.110,0.010
1443,-0.110,0.015
1444,-0.115,0.020
1445,-0.135,0.015
1446,-0.140,0.015
1447,-0.135,0.025
1448,-0.130,0.020
1449,-0.125,0.005
1450,-0.120,0.000
1451,-0.125,0.000
1452,-0.130,0.000
1453,-0.135,0.000
1454,-0.140,0.000
1455,-0.140,0.005
1456,-0.140,0.005
1457,-0.140,-0.005
1458,-0.140,-0.010
1459,-0.130,-0.020
1460,-0.135,-0.005
1461,-0.140,0.010
1462,-0.130,0.000
1463,-0.120,-0.010
1464,-0.150,-0.010
1465,-0.175,-0.010
1466,-0.140,-0.010
1467,-0.110,-0.010
1468,-0.130,0.000
1469,-0.150,0.005
1470,-0.150,-0.020
1471,-0.150,-0.035
1472,-0.135,-0.015
1473,-0.120,0.000
1474,-0.130,-0.005
1475,-0.140,-0.010
1476,-0.135,-0.010
1477,-0.130,-0.010
1478,-0.130,-0.015
1479,-0.130,-0.020
1480,-0.125,-0.005
1481,-0.120,0.000
1482,-0.120,-0.005
1483,-0.125,-0.010
1484,-0.135,-0.010
1485,-0.135,-0.010
1486,-0.120,-0.015
1487,-0.125,-0.020
1488,-0.150,-0.015
1489,-0.145,-0.010
1490,-0.120,-0.010
1491,-0.120,-0.010
1492,-0.135,-0.015
1493,-0.140,-0.020
1494,-0.140,-0.015
1495,-0.140,-0.020
1496,-0.140,-0.035
1497,-0.140,-0.025
1498,-0.145,-0.005
1499,-0.135,0.000
1500,-0.150,0.000
1501,-0.115,-0.015
1502,-0.120,-0.020
1503,-0.105,-0.030
1504,-0.090,-0.040
1505,-0.115,-0.040
1506,-0.140,-0.040
1507,-0.135,-0.025
1508,-0.130,-0.010
1509,-0.130,-0.005
1510,-0.130,0.000
1511,-0.130,-0.010
1512,-0.130,-0.020
1513,-0.115,-0.015
1514,-0.100,-0.010
1515,-0.100,-0.010
1516,-0.100,-0.010
1517,-0.105,-0.010
1518,-0.105,-0.010
1519,-0.085,-0.005
1520,-0.060,0.000
1521,-0.035,0.015
1522,0.000,0.015
1523,0.045,0.005
1524,0.065,-0.015
1525,0.050,-0.045
1526,0.030,-0.060
1527,0.010,-0.055
1528,-0.020,-0.065
1529,-0.050,-0.090
1530,-0.065,-0.100
1531,-0.075,-0.095
1532,-0.080,-0.105
1533,-0.075,-0.125
1534,-0.080,-0.130
1535,-0.095,-0.135
1536,-0.070,-0.115
1537,-0.025,-0.085
1538,-0.035,-0.060
1539,-0.055,-0.035
1540,-0.060,-0.030
1541,-0.065,-0.025
1542,-0.080,-0.015
1543,-0.090,-0.010
1544,-0.130,-0.020
1545,-0.170,-0.030
1546,-0.145,-0.025
1547,-0.120,-0.020
1548,-0.125,-0.025
1549,-0.130,-0.030
1550,-0.135,-0.030
1551,-0.140,-0.030
1552,-0.135,-0.020
1553,-0.130,-0.010
1554,-0.140,-0.015
1555,-0.150,-0.020
1556,-0.130,-0.020
1557,-0.120,-0.020
1558,-0.125,-0.025
1559,-0.130,-0.030
1560,-0.140,-0.030
1561,-0.140,-0.025
1562,-0.110,-0.005
1563,-0.095,0.005
1564,-0.110,-0.010
1565,-0.095,0.045
1566,-0.045,0.170
1567,0.025,0.265
1568,0.110,0.340
1569,0.245,0.270
1570,0.415,0.110
1571,0.690,-0.165
1572,1.015,-0.490
1573,1.340,-0.820
1574,1.665,-1.145
1575,1.990,-1.475
1576,2.315,-1.800
1577,2.105,-1.695
1578,1.780,-1.490
1579,1.450,-1.380
1580,1.125,-1.290
1581,0.795,-0.985
1582,0.470,-0.660
1583,0.140,-0.335
1584,-0.185,-0.010
1585,-0.190,0.035
1586,-0.200,0.080
1587,-0.200,0.075
1588,-0.200,0.070
1589,-0.190,0.075
1590,-0.180,0.080
1591,-0.175,0.085
1592,-0.170,0.090
1593,-0.160,0.085
1594,-0.145,0.080
1595,-0.125,0.085
1596,-0.110,0.090
1597,-0.095,0.100
1598,-0.080,0.110
1599,-0.085,0.100
1600,-0.090,0.090
1601,-0.090,0.100
1602,-0.080,0.110
1603,-0.055,0.105
1604,-0.040,0.100
1605,-0.025,0.105
1606,-0.020,0.110
1607,-0.015,0.115
1608,-0.010,0.120
1609,-0.005,0.115
1610,0.000,0.115
1611,0.005,0.130
1612,0.030,0.130
1613,0.060,0.115
1614,0.070,0.120
1615,0.075,0.135
1616,0.085,0.140
1617,0.095,0.145
1618,0.120,0.150
1619,0.155,0.145
1620,0.170,0.150
1621,0.185,0.165
1622,0.210,0.170
1623,0.235,0.170
1624,0.250,0.170
1625,0.240,0.170
1626,0.310,0.195
1627,0.350,0.210
1628,0.385,0.205
1629,0.420,0.200
1630,0.460,0.215
1631,0.505,0.230
1632,0.540,0.235
1633,0.575,0.240
1634,0.615,0.245
1635,0.660,0.250
1636,0.715,0.245
1637,0.770,0.240
1638,0.805,0.245
1639,0.835,0.250
1640,0.860,0.245
1641,0.890,0.240
1642,0.925,0.240
1643,0.960,0.240
1644,0.985,0.240
1645,1.005,0.235
1646,1.020,0.210
1647,1.025,0.195
1648,1.015,0.180
1649,1.000,0.165
1650,0.970,0.150
1651,0.900,0.135
1652,0.800,0.125
1653,0.720,0.115
1654,0.650,0.105
1655,0.575,0.090
1656,0.495,0.075
1657,0.405,0.065
1658,0.310,0.055
1659,0.270,0.050
1660,0.235,0.045
1661,0.195,0.040
1662,0.150,0.040
1663,0.120,0.040
1664,0.095,0.040
1665,0.035,0.035
1666,-0.025,0.025
1667,-0.005,0.010
1668,0.020,0.000
1669,-0.005,0.005
1670,-0.030,0.010
1671,-0.025,0.005
1672,-0.020,0.000
1673,-0.015,0.010
1674,-0.010,0.020
1675,-0.030,0.015
1676,-0.050,0.010
1677,-0.040,0.010
1678,-0.030,0.010
1679,-0.035,0.010
1680,-0.040,0.010
1681,-0.050,0.015
1682,-0.060,0.020
1683,-0.060,0.020
1684,-0.060,0.020
1685,-0.055,0.030
1686,-0.050,0.040
1687,-0.060,0.040
1688,-0.070,0.040
1689,-0.075,0.045
1690,-0.080,0.050
1691,-0.080,0.045
1692,-0.075,0.040
1693,-0.065,0.040
1694,-0.065,0.040
1695,-0.085,0.045
1696,-0.080,0.050
1697,-0.065,0.050
1698,-0.065,0.050
1699,-0.075,0.050
1700,-0.080,0.050
1701,-0.075,0.050
1702,-0.075,0.050
1703,-0.085,0.045
1704,-0.090,0.040
1705,-0.095,0.045
1706,-0.095,0.050
1707,-0.085,0.045
1708,-0.085,0.040
1709,-0.100,0.040
1710,-0.110,0.035
1711,-0.120,0.030
1712,-0.130,0.035
1713,-0.140,0.040
1714,-0.135,0.035
1715,-0.130,0.030
1716,-0.125,0.025
1717,-0.120,0.020
1718,-0.140,0.015
1719,-0.160,0.010
1720,-0.170,0.015
1721,-0.180,0.020
1722,-0.165,0.015
1723,-0.150,0.010
1724,-0.155,0.010
1725,-0.160,0.010
1726,-0.155,0.005
1727,-0.155,0.000
1728,-0.170,0.005
1729,-0.180,0.010
1730,-0.175,0.010
1731,-0.170,0.005
1732,-0.170,-0.005
1733,-0.170,-0.005
1734,-0.175,0.005
1735,-0.185,0.010
1736,-0.200,0.005
1737,-0.195,0.000
1738,-0.170,-0.005
1739,-0.160,-0.010
1740,-0.160,-0.010
1741,-0.175,-0.005
1742,-0.195,0.005
1743,-0.195,0.010
1744,-0.185,0.005
1745,-0.180,0.000
1746,-0.180,0.000
1747,-0.175,0.000
1748,-0.165,0.000
1749,-0.160,0.000
1750,-0.160,0.000
1751,-0.185,0.005
1752,-0.210,0.020
1753,-0.195,0.005
1754,-0.180,-0.010
1755,-0.170,-0.010
1756,-0.160,-0.010
1757,-0.180,-0.010
1758,-0.200,-0.010
1759,-0.190,-0.005
1760,-0.180,0.000
1761,-0.180,-0.005
1762,-0.180,-0.010
1763,-0.170,-0.005
1764,-0.160,0.000
1765,-0.170,0.000
1766,-0.180,0.000
1767,-0.180,-0.005
1768,-0.175,-0.010
1769,-0.160,-0.005
1770,-0.150,-0.005
1771,-0.165,-0.020
1772,-0.170,-0.030
1773,-0.175,-0.025
1774,-0.180,-0.020
1775,-0.180,-0.015
1776,-0.180,-0.010
1777,-0.180,-0.015
1778,-0.180,-0.020
1779,-0.175,-0.020
1780,-0.170,-0.020
1781,-0.170,-0.015
1782,-0.170,-0.010
1783,-0.170,-0.015
1784,-0.170,-0.020
1785,-0.175,-0.025
1786,-0.170,-0.025
1787,-0.155,-0.015
1788,-0.155,-0.010
1789,-0.165,-0.015
1790,-0.175,-0.020
1791,-0.185,-0.025
1792,-0.175,-0.020
1793,-0.160,-0.010
1794,-0.150,-0.015
1795,-0.140,-0.020
1796,-0.155,-0.015
1797,-0.170,-0.010
1798,-0.155,-0.010
1799,-0.140,-0.010
1800,-0.140,0.000
1801,-0.140,0.010
1802,-0.125,0.005
1803,-0.110,0.000
1804,-0.095,0.015
1805,-0.070,0.030
1806,-0.035,0.010
1807,-0.005,0.000
1808,0.010,-0.010
1809,0.015,-0.025
1810,-0.005,-0.040
1811,-0.025,-0.055
1812,-0.045,-0.070
1813,-0.075,-0.085
1814,-0.110,-0.100
1815,-0.130,-0.110
1816,-0.125,-0.115
1817,-0.125,-0.125
1818,-0.135,-0.135
1819,-0.135,-0.130
1820,-0.115,-0.110
1821,-0.110,-0.080
1822,-0.110,-0.050
1823,-0.090,-0.025
1824,-0.060,-0.005
1825,-0.085,0.000
1826,-0.130,-0.005
1827,-0.160,-0.010
1828,-0.185,-0.010
1829,-0.190,-0.010
1830,-0.195,-0.010
1831,-0.195,-0.015
1832,-0.185,-0.025
1833,-0.180,-0.030
1834,-0.170,-0.030
1835,-0.160,-0.025
1836,-0.150,-0.020
1837,-0.160,-0.015
1838,-0.170,-0.010
1839,-0.160,-0.020
1840,-0.150,-0.030
1841,-0.155,-0.020
1842,-0.160,-0.010
1843,-0.155,-0.015
1844,-0.150,-0.020
1845,-0.150,-0.015
1846,-0.145,-0.005
1847,-0.120,0.015
1848,-0.095,0.080
1849,-0.070,0.235
1850,0.000,0.330
1851,0.140,0.330
1852,0.280,0.215
1853,0.430,-0.060
1854,0.665,-0.355
1855,0.990,-0.685
1856,1.315,-1.010
1857,1.640,-1.340
1858,1.720,-1.665
1859,1.615,-1.995
1860,1.370,-2.050
1861,1.040,-1.940
1862,0.710,-1.685
1863,0.385,-1.360
1864,0.055,-1.035
1865,-0.270,-0.710
1866,-0.340,-0.385
1867,-0.325,-0.060
1868,-0.285,0.065
1869,-0.240,0.135
1870,-0.190,0.110
1871,-0.135,0.055
1872,-0.155,0.070
1873,-0.185,0.095
1874,-0.160,0.105
1875,-0.190,0.100
1876,-0.090,0.160
1877,-0.060,0.200
1878,-0.085,0.140
1879,-0.110,0.085
1880,-0.090,0.165
1881,-0.070,0.230
1882,-0.080,0.155
1883,-0.085,0.090
1884,-0.040,0.105
1885,0.000,0.125
1886,0.010,0.160
1887,0.010,0.190
1888,-0.025,0.185
1889,-0.045,0.170
1890,-0.025,0.130
1891,-0.010,0.105
1892,-0.010,0.135
1893,0.020,0.160
1894,0.090,0.185
1895,0.100,0.205
1896,0.035,0.220
1897,0.030,0.220
1898,0.100,0.200
1899,0.135,0.195
1900,0.145,0.205
1901,0.135,0.195
1902,0.105,0.170
1903,0.130,0.185
1904,0.200,0.225
1905,0.225,0.255
1906,0.235,0.280
1907,0.260,0.260
1908,0.290,0.220
1909,0.310,0.250
1910,0.325,0.310
1911,0.375,0.290
1912,0.430,0.245
1913,0.465,0.275
1914,0.495,0.315
1915,0.560,0.355
1916,0.625,0.395
1917,0.610,0.305
1918,0.590,0.210
1919,0.695,0.250
1920,0.790,0.290
1921,0.820,0.315
1922,0.855,0.340
1923,0.915,0.330
1924,0.970,0.320
1925,0.940,0.310
1926,0.935,0.300
1927,1.015,0.300
1928,1.085,0.300
1929,1.110,0.285
1930,1.100,0.260
1931,0.990,0.225
1932,0.925,0.200
1933,0.950,0.205
1934,0.920,0.205
1935,0.790,0.190
1936,0.700,0.175
1937,0.650,0.160
1938,0.555,0.155
1939,0.415,0.165
1940,0.355,0.100
1941,0.370,-0.035
1942,0.290,-0.050
1943,0.130,0.020
1944,0.095,0.055
1945,0.135,0.075
1946,0.105,0.070
1947,0.040,0.055
1948,-0.015,0.055
1949,-0.065,0.065
1950,-0.040,0.030
1951,0.010,-0.030
1952,-0.015,-0.005
1953,-0.060,0.040
1954,-0.075,0.050
1955,-0.085,0.055
1956,-0.010,0.060
1957,0.085,0.060
1958,-0.020,0.040
1959,-0.140,0.010
1960,-0.050,0.020
1961,0.035,0.030
1962,-0.095,0.020
1963,-0.205,0.010
1964,-0.135,0.025
1965,-0.070,0.040
1966,-0.090,0.060
1967,-0.110,0.080
1968,-0.105,0.065
1969,-0.105,0.050
1970,-0.130,0.065
1971,-0.165,0.075
1972,-0.220,0.045
1973,-0.240,0.025
1974,-0.175,0.045
1975,-0.130,0.065
1976,-0.135,0.080
1977,-0.150,0.090
1978,-0.175,0.080
1979,-0.190,0.070
1980,-0.185,0.070
1981,-0.180,0.070
1982,-0.180,0.070
1983,-0.170,0.080
1984,-0.140,0.100
1985,-0.145,0.100
1986,-0.175,0.080
1987,-0.190,0.070
1988,-0.185,0.075
1989,-0.185,0.080
1990,-0.195,0.075
1991,-0.180,0.075
1992,-0.150,0.085
1993,-0.160,0.080
1994,-0.195,0.065
1995,-0.200,0.060
1996,-0.205,0.065
1997,-0.185,0.070
1998,-0.155,0.065
1999,-0.170,0.065
2000,-0.150,0.060
2001,-0.220,0.025
2002,-0.235,-0.030
2003,-0.030,0.005
2004,0.135,0.040
2005,-0.160,0.080
2006,-0.410,0.120
2007,-0.335,0.095
2008,-0.275,0.070
2009,-0.305,0.055
2010,-0.325,0.045
2011,-0.290,0.090
2012,-0.260,0.100
2013,-0.265,0.020
2014,-0.265,-0.025
2015,-0.250,0.020
2016,-0.240,0.050
2017,-0.240,0.040
2018,-0.240,0.030
2019,-0.235,0.025
2020,-0.235,0.025
2021,-0.260,0.040
2022,-0.260,0.050
2023,-0.240,0.045
2024,-0.225,0.035
2025,-0.210,0.025
2026,-0.210,0.025
2027,-0.230,0.035
2028,-0.240,0.040
2029,-0.235,0.035
2030,-0.235,0.030
2031,-0.245,0.030
2032,-0.245,0.030
2033,-0.235,0.030
2034,-0.230,0.015
2035,-0.225,-0.005
2036,-0.225,-0.005
2037,-0.235,0.005
2038,-0.230,0.010
2039,-0.215,0.015
2040,-0.210,0.025
2041,-0.215,0.035
2042,-0.215,0.030
2043,-0.210,0.020
2044,-0.210,0.005
2045,-0.210,-0.010
2046,-0.200,0.010
2047,-0.190,0.030
2048,-0.190,0.035
2049,-0.190,0.040
2050,-0.220,0.010
2051,-0.240,-0.010
2052,-0.235,0.005
2053,-0.230,0.020
2054,-0.215,0.025
2055,-0.200,0.030
2056,-0.195,0.025
2057,-0.195,0.020
2058,-0.210,0.020
2059,-0.220,0.020
2060,-0.215,0.010
2061,-0.210,0.000
2062,-0.205,0.010
2063,-0.200,0.025
2064,-0.195,0.040
2065,-0.190,0.040
2066,-0.195,0.015
2067,-0.190,0.000
2068,-0.170,-0.005
2069,-0.175,-0.005
2070,-0.200,0.015
2071,-0.200,0.020
2072,-0.180,0.020
2073,-0.170,0.020
2074,-0.175,0.015
2075,-0.180,0.010
2076,-0.180,0.015
2077,-0.165,0.020
2078,-0.145,0.015
2079,-0.170,0.010
2080,-0.205,0.015
2081,-0.190,0.020
2082,-0.165,0.025
2083,-0.160,0.030
2084,-0.150,0.020
2085,-0.130,0.030
2086,-0.110,0.040
2087,-0.095,0.045
2088,-0.080,0.050
2089,-0.075,0.035
2090,-0.065,0.020
2091,-0.020,0.030
2092,0.020,0.035
2093,0.005,-0.015
2094,-0.010,-0.050
2095,-0.025,-0.040
2096,-0.045,-0.035
2097,-0.075,-0.055
2098,-0.105,-0.070
2099,-0.130,-0.070
2100,-0.140,-0.080
2101,-0.115,-0.105
2102,-0.110,-0.120
2103,-0.135,-0.115
2104,-0.145,-0.095
2105,-0.120,-0.060
2106,-0.115,-0.025
2107,-0.125,0.005
2108,-0.120,0.020
2109,-0.090,0.020
2110,-0.110,0.015
2111,-0.160,0.005
2112,-0.195,0.000
2113,-0.220,0.005
2114,-0.205,0.010
2115,-0.170,0.005
2116,-0.175,0.000
2117,-0.195,0.005
2118,-0.195,0.010
2119,-0.185,0.015
2120,-0.180,0.015
2121,-0.180,0.005
2122,-0.185,0.000
2123,-0.195,0.005
2124,-0.195,0.005
2125,-0.200,0.010
2126,-0.165,-0.005
2127,-0.150,0.000
2128,-0.165,0.020
2129,-0.180,0.040
2130,-0.175,0.025
2131,-0.170,0.015
2132,-0.150,0.085
2133,-0.120,0.160
2134,-0.060,0.290
2135,0.025,0.375
2136,0.195,0.300
2137,0.395,0.150
2138,0.670,-0.175
2139,0.965,-0.505
2140,1.290,-0.835
2141,1.615,-1.160
2142,1.940,-1.490
2143,1.995,-1.640
2144,1.665,-1.545
2145,1.340,-1.515
2146,1.010,-1.570
2147,0.685,-1.435
2148,0.355,-1.110
2149,0.030,-0.785
2150,-0.300,-0.460
2151,-0.375,-0.200
2152,-0.275,0.020
2153,-0.240,0.100
2154,-0.235,0.100
2155,-0.230,0.110
2156,-0.230,0.125
2157,-0.215,0.130
2158,-0.190,0.135
2159,-0.180,0.140
2160,-0.175,0.135
2161,-0.170,0.135
2162,-0.170,0.145
2163,-0.165,0.135
2164,-0.155,0.115
2165,-0.145,0.125
2166,-0.135,0.145
2167,-0.115,0.155
2168,-0.100,0.160
2169,-0.100,0.150
2170,-0.100,0.140
2171,-0.090,0.145
2172,-0.080,0.150
2173,-0.080,0.140
2174,-0.075,0.130
2175,-0.040,0.145
2176,-0.015,0.160
2177,-0.040,0.165
2178,-0.055,0.170
2179,-0.030,0.155
2180,-0.005,0.140
2181,0.020,0.160
2182,0.040,0.170
2183,0.035,0.175
2184,0.040,0.180
2185,0.065,0.180
2186,0.090,0.180
2187,0.115,0.185
2188,0.135,0.195
2189,0.150,0.205
2190,0.165,0.210
2191,0.180,0.205
2192,0.205,0.205
2193,0.230,0.220
2194,0.270,0.225
2195,0.320,0.215
2196,0.360,0.215
2197,0.400,0.225
2198,0.430,0.235
2199,0.460,0.245
2200,0.510,0.250
2201,0.560,0.250
2202,0.620,0.245
2203,0.680,0.235
2204,0.730,0.240
2205,0.775,0.255
2206,0.805,0.255
2207,0.835,0.245
2208,0.880,0.240
2209,0.930,0.230
2210,0.960,0.225
2211,0.990,0.220
2212,1.010,0.210
2213,1.030,0.200
2214,1.050,0.175
2215,1.065,0.150
2216,1.030,0.150
2217,0.990,0.150
2218,0.935,0.140
2219,0.870,0.130
2220,0.790,0.120
2221,0.710,0.110
2222,0.625,0.100
2223,0.545,0.090
2224,0.455,0.085
2225,0.370,0.080
2226,0.295,0.085
2227,0.230,0.085
2228,0.185,0.070
2229,0.135,0.060
2230,0.080,0.065
2231,0.040,0.065
2232,0.020,0.055
2233,0.005,0.045
2234,-0.010,0.035
2235,-0.025,0.035
2236,-0.040,0.045
2237,-0.050,0.045
2238,-0.055,0.035
2239,-0.060,0.030
2240,-0.065,0.025
2241,-0.075,0.020
2242,-0.085,0.020
2243,-0.085,0.025
2244,-0.075,0.035
2245,-0.075,0.040
2246,-0.085,0.035
2247,-0.090,0.030
2248,-0.095,0.030
2249,-0.100,0.030
2250,-0.100,0.030
2251,-0.110,0.030
2252,-0.110,0.020
2253,-0.115,0.035
2254,-0.120,0.050
2255,-0.125,0.045
2256,-0.130,0.040
2257,-0.115,0.040
2258,-0.100,0.040
2259,-0.130,0.055
2260,-0.150,0.070
2261,-0.140,0.070
2262,-0.130,0.070
2263,-0.140,0.065
2264,-0.150,0.060
2265,-0.145,0.065
2266,-0.140,0.070
2267,-0.145,0.080
2268,-0.150,0.090
2269,-0.150,0.080
2270,-0.150,0.070
2271,-0.155,0.070
2272,-0.160,0.070
2273,-0.160,0.075
2274,-0.155,0.075
2275,-0.145,0.065
2276,-0.145,0.060
2277,-0.155,0.060
2278,-0.160,0.060
2279,-0.160,0.060
2280,-0.160,0.060
2281,-0.160,0.060
2282,-0.160,0.060
2283,-0.165,0.055
2284,-0.170,0.050
2285,-0.175,0.055
2286,-0.185,0.060
2287,-0.195,0.060
2288,-0.200,0.045
2289,-0.195,0.025
2290,-0.190,0.025
2291,-0.195,0.035
2292,-0.200,0.045
2293,-0.200,0.050
2294,-0.205,0.040
2295,-0.210,0.030
2296,-0.215,0.030
2297,-0.220,0.030
2298,-0.215,0.035
2299,-0.210,0.040
2300,-0.215,0.035
2301,-0.220,0.030
2302,-0.220,0.030
2303,-0.220,0.030
2304,-0.215,0.025
2305,-0.210,0.020
2306,-0.230,0.020
2307,-0.240,0.020
2308,-0.230,0.025
2309,-0.220,0.030
2310,-0.225,0.025
2311,-0.230,0.020
2312,-0.225,0.025
2313,-0.220,0.025
2314,-0.220,0.015
2315,-0.220,0.015
2316,-0.220,0.030
2317,-0.225,0.025
2318,-0.235,0.000
2319,-0.240,0.000
2320,-0.235,0.020
2321,-0.220,0.030
2322,-0.205,0.030
2323,-0.215,0.030
2324,-0.235,0.030
2325,-0.240,0.030
2326,-0.240,0.025
2327,-0.230,0.020
2328,-0.215,0.025
2329,-0.215,0.030
2330,-0.225,0.030
2331,-0.225,0.030
2332,-0.215,0.025
2333,-0.220,0.020
2334,-0.240,0.020
2335,-0.230,0.030
2336,-0.220,0.040
2337,-0.220,0.025
2338,-0.220,0.010
2339,-0.215,0.015
2340,-0.210,0.020
2341,-0.215,0.020
2342,-0.220,0.020
2343,-0.225,0.025
2344,-0.230,0.030
2345,-0.225,0.025
2346,-0.220,0.020
2347,-0.215,0.020
2348,-0.210,0.020
2349,-0.220,0.030
2350,-0.230,0.035
2351,-0.220,0.020
2352,-0.210,0.010
2353,-0.215,0.015
2354,-0.220,0.025
2355,-0.215,0.040
2356,-0.210,0.040
2357,-0.210,0.020
2358,-0.200,0.015
2359,-0.170,0.025
2360,-0.160,0.030
2361,-0.160,0.035
2362,-0.150,0.050
2363,-0.135,0.065
2364,-0.105,0.065
2365,-0.070,0.055
2366,-0.060,0.035
2367,-0.060,0.005
2368,-0.025,0.010
2369,0.020,0.025
2370,-0.010,0.000
2371,-0.065,-0.035
2372,-0.085,-0.050
2373,-0.105,-0.065
2374,-0.110,-0.070
2375,-0.110,-0.070
2376,-0.135,-0.085
2377,-0.160,-0.110
2378,-0.160,-0.075
2379,-0.160,-0.040
2380,-0.135,-0.030
2381,-0.110,-0.020
2382,-0.105,0.005
2383,-0.105,0.030
2384,-0.150,0.015
2385,-0.190,0.000
2386,-0.205,0.010
2387,-0.220,0.020
2388,-0.220,0.020
2389,-0.220,0.020
2390,-0.220,0.015
2391,-0.215,0.010
2392,-0.200,0.000
2393,-0.195,-0.010
2394,-0.215,0.000
2395,-0.230,0.010
2396,-0.230,-0.005
2397,-0.220,-0.005
2398,-0.200,0.010
2399,-0.195,0.020
2400,-0.210,0.020
2401,-0.215,0.020
2402,-0.200,0.015
2403,-0.190,0.010
2404,-0.190,0.010
2405,-0.180,0.030
2406,-0.165,0.060
2407,-0.140,0.165
2408,-0.110,0.300
2409,-0.010,0.330
2410,0.110,0.325
2411,0.305,0.055
2412,0.515,-0.265
2413,0.825,-0.590
2414,1.150,-0.915
2415,1.475,-1.245
2416,1.800,-1.570
2417,1.580,-1.790
2418,1.340,-2.000
2419,1.015,-1.875
2420,0.685,-1.735
2421,0.360,-1.410
2422,0.030,-1.085
2423,-0.295,-0.760
2424,-0.550,-0.440
2425,-0.405,-0.150
2426,-0.290,0.085
2427,-0.285,0.110
2428,-0.275,0.130
2429,-0.250,0.130
2430,-0.230,0.130
2431,-0.225,0.125
2432,-0.220,0.120
2433,-0.210,0.130
2434,-0.200,0.140
2435,-0.195,0.140
2436,-0.190,0.140
2437,-0.180,0.135
2438,-0.165,0.130
2439,-0.155,0.135
2440,-0.150,0.140
2441,-0.145,0.140
2442,-0.135,0.140
2443,-0.125,0.140
2444,-0.115,0.140
2445,-0.105,0.145
2446,-0.100,0.150
2447,-0.095,0.155
2448,-0.090,0.155
2449,-0.085,0.145
2450,-0.060,0.145
2451,-0.035,0.155
2452,-0.025,0.160
2453,-0.015,0.165
2454,-0.005,0.170
2455,0.005,0.165
2456,0.010,0.175
2457,0.015,0.195
2458,0.035,0.200
2459,0.060,0.200
2460,0.075,0.200
2461,0.090,0.200
2462,0.110,0.210
2463,0.130,0.220
2464,0.160,0.240
2465,0.190,0.260
2466,0.215,0.260
2467,0.245,0.260
2468,0.280,0.265
2469,0.315,0.270
2470,0.350,0.285
2471,0.395,0.300
2472,0.445,0.305
2473,0.490,0.310
2474,0.535,0.320
2475,0.580,0.330
2476,0.645,0.335
2477,0.695,0.340
2478,0.730,0.335
2479,0.775,0.335
2480,0.830,0.350
2481,0.875,0.355
2482,0.910,0.345
2483,0.940,0.340
2484,0.970,0.340
2485,1.005,0.335
2486,1.045,0.320
2487,1.070,0.305
2488,1.090,0.295
2489,1.100,0.275
2490,1.095,0.250
2491,1.060,0.225
2492,1.020,0.205
2493,0.935,0.190
2494,0.835,0.175
2495,0.745,0.155
2496,0.650,0.135
2497,0.555,0.120
2498,0.455,0.105
2499,0.385,0.090
2500,0.450,0.100
2501,0.250,0.055
2502,0.190,0.040
2503,0.140,0.050
2504,0.090,0.060
2505,0.065,0.050
2506,0.040,0.040
2507,0.005,0.045
2508,-0.020,0.050
2509,-0.025,0.040
2510,-0.030,0.030
2511,-0.035,0.035
2512,-0.040,0.040
2513,-0.055,0.045
2514,-0.070,0.050
2515,-0.060,0.040
2516,-0.050,0.030
2517,-0.060,0.020
2518,-0.070,0.010
2519,-0.070,0.020
2520,-0.070,0.030
2521,-0.065,0.045
2522,-0.060,0.045
2523,-0.065,0.035
2524,-0.075,0.030
2525,-0.085,0.030
2526,-0.090,0.035
2527,-0.090,0.050
2528,-0.090,0.060
2529,-0.090,0.055
2530,-0.095,0.050
2531,-0.105,0.050
2532,-0.110,0.055
2533,-0.105,0.065
2534,-0.100,0.070
2535,-0.105,0.075
2536,-0.110,0.080
2537,-0.115,0.080
2538,-0.120,0.080
2539,-0.125,0.075
2540,-0.130,0.070
2541,-0.130,0.065
2542,-0.140,0.065
2543,-0.150,0.070
2544,-0.140,0.075
2545,-0.130,0.080
2546,-0.145,0.080
2547,-0.160,0.080
2548,-0.155,0.070
2549,-0.150,0.060
2550,-0.150,0.055
2551,-0.150,0.050
2552,-0.150,0.060
2553,-0.150,0.065
2554,-0.160,0.045
2555,-0.170,0.030
2556,-0.165,0.035
2557,-0.160,0.040
2558,-0.170,0.035
2559,-0.180,0.030
2560,-0.185,0.040
2561,-0.190,0.050
2562,-0.180,0.045
2563,-0.175,0.035
2564,-0.190,0.025
2565,-0.200,0.025
2566,-0.205,0.035
2567,-0.210,0.040
2568,-0.210,0.040
2569,-0.210,0.035
2570,-0.205,0.025
2571,-0.205,0.020
2572,-0.215,0.025
2573,-0.220,0.030
2574,-0.220,0.030
2575,-0.220,0.030
2576,-0.220,0.035
2577,-0.235,0.035
2578,-0.255,0.025
2579,-0.240,0.020
2580,-0.215,0.015
2581,-0.215,0.010
2582,-0.225,0.015
2583,-0.230,0.020
2584,-0.230,0.020
2585,-0.225,0.015
2586,-0.220,0.010
2587,-0.230,0.015
2588,-0.240,0.020
2589,-0.230,0.030
2590,-0.220,0.040
2591,-0.230,0.030
2592,-0.240,0.020
2593,-0.245,0.020
2594,-0.250,0.020
2595,-0.250,0.015
2596,-0.250,0.010
2597,-0.240,0.010
2598,-0.230,0.010
2599,-0.225,0.010
2600,-0.225,0.010
2601,-0.240,0.015
2602,-0.250,0.020
2603,-0.240,0.015
2604,-0.230,0.010
2605,-0.230,0.010
2606,-0.235,0.010
2607,-0.250,0.005
2608,-0.255,0.000
2609,-0.245,0.005
2610,-0.240,0.010
2611,-0.240,0.005
2612,-0.240,0.000
2613,-0.245,0.000
2614,-0.250,0.005
2615,-0.250,0.015
2616,-0.250,0.010
2617,-0.245,-0.005
2618,-0.240,0.000
2619,-0.240,0.015
2620,-0.240,0.015
2621,-0.240,0.005
2622,-0.240,0.000
2623,-0.235,0.000
2624,-0.235,0.000
2625,-0.230,0.000
2626,-0.245,0.005
2627,-0.240,0.010
2628,-0.230,0.000
2629,-0.220,-0.010
2630,-0.235,0.000
2631,-0.250,0.010
2632,-0.240,0.005
2633,-0.230,0.000
2634,-0.235,-0.005
2635,-0.240,-0.010
2636,-0.225,-0.005
2637,-0.210,0.000
2638,-0.220,0.000
2639,-0.230,0.000
2640,-0.230,0.000
2641,-0.230,0.000
2642,-0.220,0.000
2643,-0.210,0.000
2644,-0.215,-0.005
2645,-0.220,-0.010
2646,-0.215,-0.010
2647,-0.210,-0.010
2648,-0.215,-0.005
2649,-0.215,0.000
2650,-0.205,-0.005
2651,-0.195,-0.010
2652,-0.180,-0.005
2653,-0.160,0.010
2654,-0.145,0.030
2655,-0.130,0.035
2656,-0.110,0.025
2657,-0.075,0.015
2658,-0.040,0.005
2659,-0.030,-0.015
2660,-0.030,-0.035
2661,-0.045,-0.045
2662,-0.065,-0.055
2663,-0.100,-0.070
2664,-0.135,-0.085
2665,-0.140,-0.090
2666,-0.140,-0.090
2667,-0.150,-0.100
2668,-0.160,-0.110
2669,-0.170,-0.105
2670,-0.180,-0.100
2671,-0.150,-0.075
2672,-0.120,-0.050
2673,-0.125,-0.030
2674,-0.130,-0.010
2675,-0.150,-0.005
2676,-0.175,0.000
2677,-0.205,-0.005
2678,-0.230,-0.010
2679,-0.225,-0.010
2680,-0.220,-0.010
2681,-0.225,-0.010
2682,-0.230,-0.010
2683,-0.220,-0.010
2684,-0.210,-0.010
2685,-0.215,-0.015
2686,-0.220,-0.020
2687,-0.220,-0.020
2688,-0.220,-0.020
2689,-0.220,-0.015
2690,-0.220,-0.010
2691,-0.220,-0.015
2692,-0.215,-0.020
2693,-0.205,-0.015
2694,-0.200,-0.010
2695,-0.195,-0.015
2696,-0.185,-0.015
2697,-0.175,-0.005
2698,-0.155,0.085
2699,-0.130,0.200
2700,-0.080,0.250
2701,-0.030,0.275
2702,0.130,0.170
2703,0.315,0.030
2704,0.620,-0.275
2705,0.945,-0.600
2706,1.270,-0.930
2707,1.595,-1.255
2708,1.920,-1.585
2709,2.240,-1.910
2710,1.915,-1.795
2711,1.585,-1.665
2712,1.260,-1.360
2713,0.930,-1.055
2714,0.605,-0.730
2715,0.275,-0.420
2716,-0.050,-0.165
2717,-0.315,0.045
2718,-0.300,0.070
2719,-0.285,0.090
2720,-0.260,0.095
2721,-0.240,0.100
2722,-0.235,0.105
2723,-0.230,0.110
2724,-0.235,0.115
2725,-0.235,0.120
2726,-0.220,0.125
2727,-0.210,0.130
2728,-0.205,0.125
2729,-0.200,0.120
2730,-0.185,0.120
2731,-0.175,0.120
2732,-0.165,0.125
2733,-0.155,0.130
2734,-0.145,0.130
2735,-0.140,0.130
2736,-0.135,0.135
2737,-0.130,0.140
2738,-0.125,0.140
2739,-0.110,0.140
2740,-0.095,0.140
2741,-0.090,0.150
2742,-0.085,0.165
2743,-0.070,0.155
2744,-0.055,0.135
2745,-0.040,0.140
2746,-0.025,0.155
2747,-0.020,0.160
2748,-0.015,0.160
2749,0.010,0.175
2750,-0.010,0.160
2751,0.055,0.195
2752,0.070,0.190
2753,0.085,0.200
2754,0.100,0.210
2755,0.120,0.215
2756,0.145,0.220
2757,0.180,0.235
2758,0.215,0.250
2759,0.250,0.260
2760,0.280,0.270
2761,0.295,0.270
2762,0.325,0.270
2763,0.385,0.285
2764,0.440,0.300
2765,0.475,0.310
2766,0.520,0.320
2767,0.575,0.330
2768,0.625,0.340
2769,0.675,0.335
2770,0.715,0.330
2771,0.760,0.335
2772,0.805,0.340
2773,0.855,0.345
2774,0.895,0.350
2775,0.925,0.355
2776,0.955,0.350
2777,0.985,0.330
2778,1.015,0.315
2779,1.040,0.305
2780,1.065,0.295
2781,1.090,0.285
2782,1.090,0.255
2783,1.075,0.220
2784,1.020,0.190
2785,0.955,0.165
2786,0.875,0.155
2787,0.790,0.145
2788,0.690,0.125
2789,0.590,0.105
2790,0.495,0.095
2791,0.405,0.085
2792,0.335,0.060
2793,0.270,0.040
2794,0.205,0.045
2795,0.140,0.050
2796,0.100,0.045
2797,0.060,0.040
2798,0.035,0.030
2799,0.010,0.020
2800,-0.005,0.015
2801,-0.020,0.010
2802,-0.035,0.010
2803,-0.050,0.010
2804,-0.055,0.010
2805,-0.060,0.010
2806,-0.065,0.005
2807,-0.070,0.000
2808,-0.070,0.005
2809,-0.070,0.010
2810,-0.065,0.015
2811,-0.060,0.020
2812,-0.070,0.010
2813,-0.080,0.000
2814,-0.080,0.005
2815,-0.080,0.015
2816,-0.085,0.025
2817,-0.090,0.030
2818,-0.095,0.025
2819,-0.100,0.020
2820,-0.105,0.020
2821,-0.110,0.025
2822,-0.110,0.035
2823,-0.110,0.040
2824,-0.110,0.035
2825,-0.120,0.045
2826,-0.135,0.065
2827,-0.140,0.060
2828,-0.140,0.045
2829,-0.135,0.040
2830,-0.125,0.045
2831,-0.125,0.050
2832,-0.135,0.050
2833,-0.140,0.050
2834,-0.130,0.060
2835,-0.135,0.055
2836,-0.140,0.050
2837,-0.145,0.045
2838,-0.150,0.040
2839,-0.135,0.035
2840,-0.120,0.030
2841,-0.140,0.045
2842,-0.160,0.060
2843,-0.150,0.040
2844,-0.140,0.020
2845,-0.150,0.025
2846,-0.160,0.030
2847,-0.155,0.025
2848,-0.155,0.020
2849,-0.170,0.020
2850,-0.180,0.020
2851,-0.175,0.020
2852,-0.170,0.020
2853,-0.170,0.010
2854,-0.170,0.000
2855,-0.185,0.000
2856,-0.190,0.000
2857,-0.190,0.005
2858,-0.190,0.010
2859,-0.190,0.015
2860,-0.195,0.010
2861,-0.205,-0.010
2862,-0.210,-0.020
2863,-0.205,-0.015
2864,-0.205,-0.010
2865,-0.215,-0.010
2866,-0.220,-0.005
2867,-0.215,0.005
2868,-0.215,0.000
2869,-0.225,-0.015
2870,-0.230,-0.020
2871,-0.225,-0.015
2872,-0.220,-0.010
2873,-0.225,-0.010
2874,-0.230,0.000
2875,-0.230,-0.010
2876,-0.225,-0.005
2877,-0.230,-0.030
2878,-0.235,-0.030
2879,-0.240,-0.030
2880,-0.215,-0.020
2881,-0.190,-0.010
2882,-0.210,-0.010
2883,-0.230,-0.010
2884,-0.230,-0.015
2885,-0.230,-0.020
2886,-0.220,-0.020
2887,-0.210,-0.020
2888,-0.225,-0.020
2889,-0.240,-0.020
2890,-0.230,-0.015
2891,-0.220,-0.010
2892,-0.225,-0.015
2893,-0.230,-0.020
2894,-0.225,-0.020
2895,-0.220,-0.020
2896,-0.220,-0.005
2897,-0.220,-0.005
2898,-0.225,-0.020
2899,-0.230,-0.030
2900,-0.225,-0.025
2901,-0.225,-0.020
2902,-0.235,-0.025
2903,-0.230,-0.025
2904,-0.215,-0.015
2905,-0.215,-0.010
2906,-0.225,-0.015
2907,-0.230,-0.020
2908,-0.235,-0.020
2909,-0.235,-0.020
2910,-0.225,-0.015
2911,-0.220,-0.010
2912,-0.225,-0.015
2913,-0.230,-0.020
2914,-0.225,-0.020
2915,-0.220,-0.020
2916,-0.225,-0.020
2917,-0.220,-0.025
2918,-0.210,-0.030
2919,-0.215,-0.025
2920,-0.220,-0.020
2921,-0.225,-0.025
2922,-0.230,-0.030
2923,-0.215,-0.030
2924,-0.200,-0.030
2925,-0.220,-0.035
2926,-0.240,-0.040
2927,-0.225,-0.025
2928,-0.210,-0.010
2929,-0.215,-0.020
2930,-0.220,-0.030
2931,-0.220,-0.035
2932,-0.220,-0.040
2933,-0.215,-0.035
2934,-0.210,-0.030
2935,-0.220,-0.030
2936,-0.230,-0.030
2937,-0.220,-0.025
2938,-0.210,-0.020
2939,-0.210,-0.025
2940,-0.205,-0.030
2941,-0.195,-0.030
2942,-0.190,-0.030
2943,-0.190,-0.035
2944,-0.185,-0.030
2945,-0.165,-0.010
2946,-0.160,0.000
2947,-0.155,-0.005
2948,-0.120,-0.015
2949,-0.080,-0.025
2950,-0.045,-0.030
2951,-0.010,-0.025
2952,-0.010,-0.045
2953,-0.025,-0.085
2954,-0.060,-0.090
2955,-0.095,-0.095
2956,-0.115,-0.100
2957,-0.135,-0.105
2958,-0.140,-0.110
2959,-0.140,-0.110
2960,-0.155,-0.130
2961,-0.170,-0.150
2962,-0.170,-0.140
2963,-0.170,-0.130
2964,-0.140,-0.100
2965,-0.110,-0.070
2966,-0.110,-0.035
2967,-0.115,-0.010
2968,-0.155,-0.020
2969,-0.190,-0.030
2970,-0.205,-0.040
2971,-0.220,-0.050
2972,-0.225,-0.050
2973,-0.230,-0.050
2974,-0.225,-0.045
2975,-0.220,-0.040
2976,-0.220,-0.040
2977,-0.220,-0.040
2978,-0.225,-0.040
2979,-0.230,-0.040
2980,-0.225,-0.045
2981,-0.220,-0.045
2982,-0.225,-0.035
2983,-0.230,-0.035
2984,-0.225,-0.050
2985,-0.220,-0.060
2986,-0.215,-0.055
2987,-0.200,-0.050
2988,-0.185,-0.050
2989,-0.180,-0.040
2990,-0.185,-0.025
2991,-0.175,0.070
2992,-0.145,0.195
2993,-0.090,0.230
2994,-0.020,0.245
2995,0.135,0.115
2996,0.300,-0.045
2997,0.610,-0.355
2998,0.935,-0.680
2999,1.260,-1.010
3000,0.955,-0.700
3001,1.915,-1.665
3002,2.210,-1.980
3003,1.885,-1.880
3004,1.555,-1.760
3005,1.230,-1.435
3006,0.900,-1.110
3007,0.575,-0.785
3008,0.245,-0.470
3009,-0.080,-0.200
3010,-0.335,0.015
3011,-0.315,0.040
3012,-0.295,0.060
3013,-0.270,0.065
3014,-0.250,0.070
3015,-0.250,0.080
3016,-0.245,0.090
3017,-0.230,0.080
3018,-0.220,0.070
3019,-0.220,0.075
3020,-0.210,0.080
3021,-0.185,0.080
3022,-0.170,0.080
3023,-0.175,0.085
3024,-0.180,0.090
3025,-0.175,0.095
3026,-0.165,0.100
3027,-0.150,0.095
3028,-0.140,0.095
3029,-0.135,0.105
3030,-0.120,0.110
3031,-0.105,0.110
3032,-0.100,0.110
3033,-0.100,0.115
3034,-0.090,0.120
3035,-0.075,0.115
3036,-0.065,0.110
3037,-0.055,0.115
3038,-0.045,0.120
3039,-0.035,0.125
3040,-0.020,0.130
3041,-0.005,0.130
3042,0.020,0.140
3043,0.040,0.150
3044,0.070,0.155
3045,0.100,0.160
3046,0.105,0.175
3047,0.110,0.190
3048,0.140,0.185
3049,0.170,0.180
3050,0.200,0.190
3051,0.225,0.200
3052,0.255,0.220
3053,0.290,0.240
3054,0.330,0.240
3055,0.370,0.240
3056,0.410,0.260
3057,0.455,0.270
3058,0.500,0.275
3059,0.550,0.280
3060,0.600,0.290
3061,0.650,0.300
3062,0.700,0.305
3063,0.750,0.310
3064,0.790,0.310
3065,0.830,0.310
3066,0.870,0.315
3067,0.910,0.315
3068,0.955,0.305
3069,0.980,0.300
3070,1.000,0.305
3071,1.025,0.295
3072,1.050,0.270
3073,1.075,0.245
3074,1.100,0.225
3075,1.090,0.205
3076,1.060,0.185
3077,0.995,0.155
3078,0.930,0.115
3079,0.835,0.105
3080,0.740,0.095
3081,0.655,0.080
3082,0.575,0.065
3083,0.480,0.055
3084,0.380,0.040
3085,0.315,0.035
3086,0.250,0.030
3087,0.195,0.010
3088,0.135,-0.010
3089,0.090,-0.010
3090,0.050,-0.010
3091,0.030,-0.010
3092,0.010,-0.010
3093,-0.010,-0.015
3094,-0.030,-0.020
3095,-0.045,-0.015
3096,-0.060,-0.010
3097,-0.050,-0.025
3098,-0.040,-0.040
3099,-0.050,-0.030
3100,-0.060,-0.020
3101,-0.070,-0.015
3102,-0.080,-0.010
3103,-0.085,-0.020
3104,-0.090,-0.030
3105,-0.075,-0.025
3106,-0.080,-0.020
3107,-0.100,-0.015
3108,-0.105,-0.010
3109,-0.095,-0.005
3110,-0.090,0.000
3111,-0.090,-0.005
3112,-0.095,-0.005
3113,-0.105,0.005
3114,-0.110,0.010
3115,-0.110,0.010
3116,-0.110,0.010
3117,-0.110,0.010
3118,-0.115,0.010
3119,-0.125,0.005
3120,-0.125,0.010
3121,-0.115,0.025
3122,-0.110,0.030
3123,-0.110,0.025
3124,-0.110,0.020
3125,-0.110,0.020
3126,-0.130,0.020
3127,-0.140,0.020
3128,-0.125,0.025
3129,-0.110,0.030
3130,-0.125,0.035
3131,-0.140,0.040
3132,-0.130,0.025
3133,-0.120,0.010
3134,-0.125,0.010
3135,-0.130,0.010
3136,-0.145,0.005
3137,-0.160,0.000
3138,-0.145,0.010
3139,-0.130,0.015
3140,-0.140,0.000
3141,-0.150,-0.010
3142,-0.160,0.000
3143,-0.170,0.010
3144,-0.170,0.000
3145,-0.170,-0.010
3146,-0.175,-0.005
3147,-0.180,0.000
3148,-0.180,0.005
3149,-0.185,0.005
3150,-0.195,-0.010
3151,-0.195,-0.020
3152,-0.185,-0.020
3153,-0.185,-0.020
3154,-0.195,-0.015
3155,-0.200,-0.010
3156,-0.205,-0.015
3157,-0.210,-0.020
3158,-0.205,-0.020
3159,-0.205,-0.020
3160,-0.215,-0.020
3161,-0.220,-0.020
3162,-0.215,-0.020
3163,-0.210,-0.020
3164,-0.215,-0.015
3165,-0.220,-0.010
3166,-0.225,-0.015
3167,-0.220,-0.015
3168,-0.210,-0.010
3169,-0.220,-0.020
3170,-0.230,-0.030
3171,-0.225,-0.035
3172,-0.220,-0.040
3173,-0.230,-0.040
3174,-0.240,-0.040
3175,-0.225,-0.040
3176,-0.210,-0.040
3177,-0.225,-0.035
3178,-0.240,-0.030
3179,-0.225,-0.025
3180,-0.210,-0.020
3181,-0.220,-0.030
3182,-0.230,-0.040
3183,-0.235,-0.035
3184,-0.240,-0.030
3185,-0.230,-0.025
3186,-0.220,-0.025
3187,-0.230,-0.040
3188,-0.240,-0.050
3189,-0.235,-0.045
3190,-0.225,-0.040
3191,-0.215,-0.045
3192,-0.210,-0.045
3193,-0.215,-0.035
3194,-0.220,-0.030
3195,-0.220,-0.035
3196,-0.225,-0.040
3197,-0.235,-0.040
3198,-0.235,-0.040
3199,-0.225,-0.035
3200,-0.220,-0.030
3201,-0.220,-0.030
3202,-0.220,-0.035
3203,-0.225,-0.045
3204,-0.220,-0.050
3205,-0.205,-0.045
3206,-0.210,-0.040
3207,-0.225,-0.035
3208,-0.220,-0.030
3209,-0.200,-0.030
3210,-0.205,-0.035
3211,-0.210,-0.040
3212,-0.215,-0.040
3213,-0.220,-0.040
3214,-0.215,-0.045
3215,-0.210,-0.050
3216,-0.205,-0.045
3217,-0.200,-0.040
3218,-0.205,-0.040
3219,-0.210,-0.040
3220,-0.220,-0.035
3221,-0.230,-0.030
3222,-0.220,-0.040
3223,-0.210,-0.050
3224,-0.215,-0.050
3225,-0.220,-0.050
3226,-0.220,-0.045
3227,-0.220,-0.040
3228,-0.215,-0.045
3229,-0.210,-0.050
3230,-0.215,-0.045
3231,-0.215,-0.040
3232,-0.200,-0.045
3233,-0.190,-0.050
3234,-0.195,-0.045
3235,-0.200,-0.040
3236,-0.195,-0.040
3237,-0.190,-0.040
3238,-0.190,-0.040
3239,-0.185,-0.040
3240,-0.175,-0.040
3241,-0.155,-0.040
3242,-0.135,-0.040
3243,-0.130,-0.030
3244,-0.125,-0.015
3245,-0.075,-0.015
3246,-0.020,-0.025
3247,-0.010,-0.045
3248,-0.005,-0.065
3249,-0.005,-0.070
3250,0.000,-0.070
3251,-0.060,-0.105
3252,-0.100,-0.130
3253,-0.120,-0.135
3254,-0.140,-0.140
3255,-0.130,-0.150
3256,-0.120,-0.160
3257,-0.135,-0.165
3258,-0.150,-0.165
3259,-0.145,-0.135
3260,-0.135,-0.105
3261,-0.110,-0.080
3262,-0.090,-0.060
3263,-0.095,-0.055
3264,-0.115,-0.050
3265,-0.160,-0.055
3266,-0.195,-0.060
3267,-0.210,-0.060
3268,-0.215,-0.060
3269,-0.195,-0.055
3270,-0.185,-0.050
3271,-0.200,-0.055
3272,-0.205,-0.060
3273,-0.195,-0.055
3274,-0.190,-0.050
3275,-0.190,-0.055
3276,-0.190,-0.060
3277,-0.195,-0.055
3278,-0.195,-0.050
3279,-0.185,-0.055
3280,-0.180,-0.060
3281,-0.185,-0.055
3282,-0.180,-0.050
3283,-0.165,-0.045
3284,-0.160,-0.045
3285,-0.155,-0.055
3286,-0.140,-0.015
3287,-0.125,0.040
3288,-0.100,0.155
3289,-0.075,0.280
3290,0.055,0.260
3291,0.195,0.225
3292,0.440,-0.100
3293,0.690,-0.430
3294,1.015,-0.755
3295,1.340,-1.085
3296,1.665,-1.410
3297,1.910,-1.700
3298,1.585,-1.720
3299,1.255,-1.735
3300,0.930,-1.690
3301,0.600,-1.580
3302,0.275,-1.255
3303,-0.055,-0.930
3304,-0.380,-0.605
3305,-0.555,-0.310
3306,-0.375,-0.085
3307,-0.260,0.060
3308,-0.250,0.060
3309,-0.240,0.065
3310,-0.240,0.080
3311,-0.235,0.090
3312,-0.215,0.090
3313,-0.200,0.095
3314,-0.205,0.105
3315,-0.200,0.110
3316,-0.175,0.105
3317,-0.160,0.095
3318,-0.160,0.085
3319,-0.155,0.085
3320,-0.145,0.095
3321,-0.135,0.100
3322,-0.125,0.100
3323,-0.120,0.100
3324,-0.120,0.105
3325,-0.100,0.110
3326,-0.075,0.105
3327,-0.075,0.105
3328,-0.085,0.115
3329,-0.075,0.120
3330,-0.055,0.120
3331,-0.045,0.120
3332,-0.035,0.125
3333,-0.025,0.130
3334,-0.010,0.130
3335,0.005,0.135
3336,0.020,0.140
3337,0.035,0.150
3338,0.050,0.160
3339,0.070,0.170
3340,0.090,0.180
3341,0.095,0.165
3342,0.105,0.155
3343,0.135,0.180
3344,0.165,0.200
3345,0.195,0.205
3346,0.220,0.210
3347,0.235,0.220
3348,0.260,0.230
3349,0.305,0.230
3350,0.345,0.235
3351,0.385,0.250
3352,0.425,0.265
3353,0.465,0.285
3354,0.505,0.300
3355,0.540,0.295
3356,0.585,0.295
3357,0.645,0.310
3358,0.695,0.320
3359,0.740,0.320
3360,0.780,0.320
3361,0.815,0.315
3362,0.860,0.310
3363,0.915,0.315
3364,0.940,0.315
3365,0.965,0.305
3366,0.995,0.300
3367,1.030,0.300
3368,1.055,0.285
3369,1.075,0.265
3370,1.085,0.250
3371,1.095,0.235
3372,1.075,0.210
3373,1.045,0.185
3374,0.980,0.160
3375,1.040,0.180
3376,0.820,0.120
3377,0.730,0.110
3378,0.630,0.100
3379,0.535,0.090
3380,0.455,0.070
3381,0.375,0.050
3382,0.310,0.045
3383,0.250,0.040
3384,0.175,0.040
3385,0.115,0.040
3386,0.090,0.025
3387,0.065,0.010
3388,0.040,0.010
3389,0.015,0.010
3390,0.000,0.010
3391,-0.010,0.010
3392,-0.020,0.010
3393,-0.030,0.010
3394,-0.035,0.005
3395,-0.040,0.000
3396,-0.045,0.000
3397,-0.050,0.005
3398,-0.050,0.015
3399,-0.055,0.015
3400,-0.065,0.000
3401,-0.070,-0.005
3402,-0.065,0.005
3403,-0.065,0.010
3404,-0.075,0.005
3405,-0.080,0.005
3406,-0.075,0.015
3407,-0.070,0.020
3408,-0.075,0.025
3409,-0.080,0.030
3410,-0.085,0.035
3411,-0.090,0.030
3412,-0.090,0.015
3413,-0.090,0.025
3414,-0.095,0.045
3415,-0.095,0.050
3416,-0.085,0.045
3417,-0.095,0.040
3418,-0.110,0.040
3419,-0.110,0.045
3420,-0.110,0.050
3421,-0.105,0.050
3422,-0.100,0.050
3423,-0.105,0.050
3424,-0.110,0.050
3425,-0.110,0.045
3426,-0.110,0.040
3427,-0.115,0.045
3428,-0.120,0.050
3429,-0.105,0.040
3430,-0.090,0.030
3431,-0.110,0.035
3432,-0.120,0.040
3433,-0.115,0.040
3434,-0.110,0.040
3435,-0.110,0.030
3436,-0.115,0.020
3437,-0.130,0.030
3438,-0.140,0.040
3439,-0.135,0.040
3440,-0.135,0.030
3441,-0.150,0.005
3442,-0.160,-0.005
3443,-0.155,0.005
3444,-0.150,0.010
3445,-0.155,0.005
3446,-0.160,0.005
3447,-0.165,0.015
3448,-0.170,0.015
3449,-0.170,0.005
3450,-0.170,0.000
3451,-0.175,0.000
3452,-0.180,0.000
3453,-0.175,0.000
3454,-0.180,0.000
3455,-0.195,0.000
3456,-0.200,0.000
3457,-0.195,-0.005
3458,-0.190,-0.010
3459,-0.190,0.000
3460,-0.195,-0.005
3461,-0.200,-0.010
3462,-0.195,-0.010
3463,-0.190,-0.010
3464,-0.200,-0.015
3465,-0.210,-0.020
3466,-0.205,-0.015
3467,-0.200,-0.010
3468,-0.200,-0.015
3469,-0.200,-0.020
3470,-0.205,-0.015
3471,-0.210,-0.010
3472,-0.200,-0.015
3473,-0.190,-0.020
3474,-0.200,-0.020
3475,-0.205,-0.020
3476,-0.190,-0.015
3477,-0.185,-0.010
3478,-0.205,-0.015
3479,-0.220,-0.020
3480,-0.205,-0.020
3481,-0.200,-0.020
3482,-0.200,-0.020
3483,-0.205,-0.020
3484,-0.215,-0.020
3485,-0.215,-0.020
3486,-0.205,-0.015
3487,-0.200,-0.010
3488,-0.200,-0.010
3489,-0.200,-0.010
3490,-0.205,-0.015
3491,-0.210,-0.020
3492,-0.205,-0.015
3493,-0.205,-0.010
3494,-0.215,-0.015
3495,-0.220,-0.020
3496,-0.220,-0.020
3497,-0.220,-0.020
3498,-0.215,-0.015
3499,-0.210,-0.010
3500,-0.210,-0.010
3501,-0.210,-0.005
3502,-0.220,-0.010
3503,-0.210,-0.010
3504,-0.200,-0.010
3505,-0.205,-0.015
3506,-0.210,-0.020
3507,-0.215,-0.015
3508,-0.220,-0.010
3509,-0.215,-0.015
3510,-0.210,-0.020
3511,-0.205,-0.020
3512,-0.200,-0.020
3513,-0.205,-0.020
3514,-0.210,-0.020
3515,-0.205,-0.015
3516,-0.200,-0.010
3517,-0.195,-0.015
3518,-0.190,-0.020
3519,-0.190,-0.020
3520,-0.190,-0.020
3521,-0.195,-0.025
3522,-0.195,-0.030
3523,-0.185,-0.025
3524,-0.185,-0.020
3525,-0.200,-0.025
3526,-0.205,-0.030
3527,-0.190,-0.025
3528,-0.180,-0.020
3529,-0.180,-0.020
3530,-0.185,-0.020
3531,-0.195,-0.025
3532,-0.190,-0.030
3533,-0.175,-0.025
3534,-0.170,-0.020
3535,-0.175,-0.020
3536,-0.175,-0.020
3537,-0.165,-0.015
3538,-0.160,-0.015
3539,-0.155,-0.025
3540,-0.145,-0.025
3541,-0.135,-0.015
3542,-0.110,0.005
3543,-0.090,0.020
3544,-0.060,0.000
3545,-0.030,-0.020
3546,0.005,-0.025
3547,0.040,-0.030
3548,0.015,-0.055
3549,-0.015,-0.080
3550,-0.050,-0.085
3551,-0.080,-0.090
3552,-0.085,-0.105
3553,-0.090,-0.120
3554,-0.100,-0.115
3555,-0.110,-0.115
3556,-0.115,-0.135
3557,-0.120,-0.140
3558,-0.130,-0.110
3559,-0.130,-0.080
3560,-0.090,-0.055
3561,-0.070,-0.030
3562,-0.075,-0.005
3563,-0.105,0.000
3564,-0.155,-0.020
3565,-0.180,-0.030
3566,-0.185,-0.025
3567,-0.190,-0.020
3568,-0.190,-0.020
3569,-0.185,-0.020
3570,-0.175,-0.025
3571,-0.180,-0.030
3572,-0.195,-0.025
3573,-0.195,-0.020
3574,-0.185,-0.025
3575,-0.180,-0.030
3576,-0.180,-0.030
3577,-0.180,-0.030
3578,-0.180,-0.030
3579,-0.175,-0.030
3580,-0.165,-0.030
3581,-0.160,-0.030
3582,-0.165,-0.025
3583,-0.160,-0.020
3584,-0.140,-0.030
3585,-0.130,0.035
3586,-0.120,0.105
3587,-0.085,0.210
3588,-0.040,0.310
3589,0.090,0.265
3590,0.240,0.180
3591,0.495,-0.145
3592,0.765,-0.475
3593,1.090,-0.800
3594,1.415,-1.130
3595,1.740,-1.455
3596,1.875,-1.690
3597,1.550,-1.705
3598,1.220,-1.710
3599,0.890,-1.680
3600,0.565,-1.535
3601,0.235,-1.210
3602,-0.090,-0.885
3603,-0.420,-0.560
3604,-0.515,-0.280
3605,-0.355,-0.045
3606,-0.270,0.075
3607,-0.245,0.090
3608,-0.230,0.100
3609,-0.225,0.105
3610,-0.215,0.110
3611,-0.200,0.110
3612,-0.190,0.110
3613,-0.190,0.115
3614,-0.185,0.120
3615,-0.175,0.120
3616,-0.160,0.120
3617,-0.145,0.115
3618,-0.140,0.115
3619,-0.140,0.125
3620,-0.130,0.130
3621,-0.115,0.130
3622,-0.105,0.130
3623,-0.095,0.135
3624,-0.090,0.140
3625,-0.090,0.140
3626,-0.070,0.135
3627,-0.060,0.140
3628,-0.055,0.140
3629,-0.050,0.140
3630,-0.030,0.140
3631,-0.010,0.140
3632,-0.010,0.150
3633,-0.010,0.160
3634,0.020,0.170
3635,0.040,0.180
3636,0.050,0.175
3637,0.065,0.170
3638,0.085,0.180
3639,0.105,0.190
3640,0.125,0.190
3641,0.140,0.195
3642,0.150,0.210
3643,0.170,0.220
3644,0.195,0.225
3645,0.225,0.230
3646,0.270,0.235
3647,0.300,0.245
3648,0.320,0.255
3649,0.355,0.265
3650,0.400,0.275
3651,0.435,0.280
3652,0.460,0.285
3653,0.510,0.295
3654,0.570,0.305
3655,0.615,0.310
3656,0.650,0.315
3657,0.690,0.325
3658,0.740,0.335
3659,0.790,0.340
3660,0.840,0.335
3661,0.870,0.335
3662,0.895,0.345
3663,0.945,0.340
3664,0.995,0.325
3665,1.010,0.315
3666,1.025,0.305
3667,1.060,0.295
3668,1.090,0.290
3669,1.100,0.255
3670,1.110,0.220
3671,1.080,0.210
3672,1.045,0.200
3673,0.995,0.175
3674,0.935,0.150
3675,0.840,0.130
3676,0.745,0.110
3677,0.665,0.105
3678,0.575,0.095
3679,0.480,0.075
3680,0.395,0.060
3681,0.330,0.050
3682,0.275,0.040
3683,0.225,0.045
3684,0.175,0.045
3685,0.130,0.030
3686,0.095,0.020
3687,0.080,0.020
3688,0.055,0.020
3689,0.025,0.015
3690,0.010,0.010
3691,0.005,0.015
3692,0.000,0.020
3693,-0.005,0.015
3694,-0.015,0.010
3695,-0.035,0.005
3696,-0.040,0.000
3697,-0.035,0.005
3698,-0.030,0.010
3699,-0.035,0.015
3700,-0.040,0.020
3701,-0.045,0.015
3702,-0.050,0.010
3703,-0.045,0.010
3704,-0.040,0.010
3705,-0.045,0.010
3706,-0.050,0.010
3707,-0.045,0.015
3708,-0.050,0.020
3709,-0.070,0.030
3710,-0.065,0.030
3711,-0.060,0.030
3712,-0.075,0.030
3713,-0.090,0.030
3714,-0.075,0.045
3715,-0.060,0.060
3716,-0.055,0.055
3717,-0.050,0.050
3718,-0.065,0.050
3719,-0.080,0.050
3720,-0.075,0.045
3721,-0.070,0.040
3722,-0.080,0.050
3723,-0.085,0.060
3724,-0.070,0.055
3725,-0.060,0.050
3726,-0.065,0.050
3727,-0.070,0.050
3728,-0.080,0.045
3729,-0.090,0.040
3730,-0.075,0.040
3731,-0.075,0.040
3732,-0.090,0.040
3733,-0.100,0.040
3734,-0.095,0.040
3735,-0.095,0.040
3736,-0.105,0.035
3737,-0.110,0.030
3738,-0.115,0.035
3739,-0.120,0.040
3740,-0.115,0.040
3741,-0.115,0.035
3742,-0.125,0.025
3743,-0.130,0.020
3744,-0.135,0.020
3745,-0.145,0.020
3746,-0.155,0.025
3747,-0.160,0.030
3748,-0.155,0.025
3749,-0.150,0.020
3750,-0.150,0.020
3751,-0.155,0.020
3752,-0.150,0.020
3753,-0.150,0.020
3754,-0.150,0.020
3755,-0.160,0.020
3756,-0.170,0.020
3757,-0.160,0.015
3758,-0.150,0.010
3759,-0.160,0.015
3760,-0.170,0.020
3761,-0.180,0.010
3762,-0.190,0.000
3763,-0.180,0.005
3764,-0.170,0.010
3765,-0.175,0.005
3766,-0.180,0.000
3767,-0.180,0.005
3768,-0.180,0.010
3769,-0.185,0.015
3770,-0.190,0.020
3771,-0.190,0.005
3772,-0.185,0.000
3773,-0.170,0.005
3774,-0.165,0.010
3775,-0.180,0.010
3776,-0.185,0.010
3777,-0.170,0.010
3778,-0.170,0.010
3779,-0.185,0.005
3780,-0.185,0.000
3781,-0.175,0.000
3782,-0.170,0.000
3783,-0.170,0.005
3784,-0.175,0.010
3785,-0.185,0.015
3786,-0.190,0.020
3787,-0.190,0.015
3788,-0.190,0.010
3789,-0.185,0.005
3790,-0.180,0.000
3791,-0.180,0.000
3792,-0.175,-0.005
3793,-0.170,-0.010
3794,-0.175,-0.005
3795,-0.180,0.000
3796,-0.175,0.000
3797,-0.170,0.000
3798,-0.185,0.000
3799,-0.200,0.000
3800,-0.180,0.005
3801,-0.160,0.010
3802,-0.175,0.005
3803,-0.190,0.000
3804,-0.185,0.005
3805,-0.180,0.010
3806,-0.175,0.005
3807,-0.170,0.000
3808,-0.180,0.010
3809,-0.190,0.020
3810,-0.185,0.010
3811,-0.180,0.000
3812,-0.180,-0.005
3813,-0.180,-0.005
3814,-0.180,0.005
3815,-0.180,0.005
3816,-0.180,-0.005
3817,-0.180,-0.005
3818,-0.185,0.005
3819,-0.185,0.005
3820,-0.175,-0.005
3821,-0.170,-0.010
3822,-0.175,-0.005
3823,-0.175,0.000
3824,-0.165,0.005
3825,-0.170,0.010
3826,-0.185,0.010
3827,-0.185,0.010
3828,-0.175,0.005
3829,-0.165,0.000
3830,-0.155,0.005
3831,-0.150,0.010
3832,-0.145,0.010
3833,-0.140,0.010
3834,-0.140,0.000
3835,-0.130,0.005
3836,-0.120,0.010
3837,-0.110,0.030
3838,-0.100,0.050
3839,-0.070,0.035
3840,-0.035,0.020
3841,0.000,0.005
3842,0.025,-0.010
3843,0.000,-0.025
3844,-0.025,-0.045
3845,-0.055,-0.065
3846,-0.080,-0.080
3847,-0.090,-0.080
3848,-0.100,-0.080
3849,-0.105,-0.090
3850,-0.110,-0.100
3851,-0.110,-0.105
3852,-0.110,-0.105
3853,-0.105,-0.085
3854,-0.100,-0.065
3855,-0.095,-0.050
3856,-0.085,-0.030
3857,-0.070,-0.005
3858,-0.085,0.005
3859,-0.140,-0.005
3860,-0.165,-0.010
3861,-0.175,-0.010
3862,-0.180,-0.010
3863,-0.180,-0.010
3864,-0.180,-0.005
3865,-0.175,0.005
3866,-0.170,0.000
3867,-0.170,-0.015
3868,-0.170,-0.020
3869,-0.165,-0.020
3870,-0.160,-0.020
3871,-0.165,-0.015
3872,-0.170,-0.010
3873,-0.170,-0.010
3874,-0.165,-0.005
3875,-0.170,-0.010
3876,-0.145,0.000
3877,-0.140,-0.010
3878,-0.140,-0.005
3879,-0.140,0.005
3880,-0.130,0.065
3881,-0.115,0.135
3882,-0.075,0.265
3883,-0.020,0.360
3884,0.085,0.305
3885,0.215,0.185
3886,0.415,-0.140
3887,0.650,-0.470
3888,0.975,-0.795
3889,1.300,-1.125
3890,1.625,-1.455
3891,1.725,-1.655
3892,1.430,-1.640
3893,1.125,-1.640
3894,0.795,-1.665
3895,0.470,-1.530
3896,0.140,-1.205
3897,-0.185,-0.880
3898,-0.515,-0.555
3899,-0.565,-0.275
3900,-0.400,-0.030
3901,-0.310,0.080
3902,-0.265,0.100
3903,-0.240,0.115
3904,-0.225,0.125
3905,-0.215,0.125
3906,-0.205,0.115
3907,-0.200,0.120
3908,-0.200,0.135
3909,-0.185,0.140
3910,-0.165,0.140
3911,-0.160,0.140
3912,-0.160,0.135
3913,-0.160,0.135
3914,-0.155,0.145
3915,-0.150,0.145
3916,-0.145,0.135
3917,-0.120,0.155
3918,-0.100,0.180
3919,-0.095,0.160
3920,-0.090,0.140
3921,-0.085,0.145
3922,-0.080,0.150
3923,-0.065,0.150
3924,-0.050,0.150
3925,-0.050,0.165
3926,-0.050,0.180
3927,-0.035,0.185
3928,-0.020,0.190
3929,-0.010,0.180
3930,0.000,0.170
3931,0.020,0.175
3932,0.035,0.180
3933,0.055,0.190
3934,0.075,0.200
3935,0.090,0.205
3936,0.105,0.210
3937,0.125,0.215
3938,0.145,0.220
3939,0.160,0.220
3940,0.190,0.225
3941,0.230,0.240
3942,0.265,0.255
3943,0.290,0.265
3944,0.315,0.275
3945,0.340,0.285
3946,0.385,0.290
3947,0.445,0.290
3948,0.480,0.300
3949,0.510,0.315
3950,0.555,0.320
3951,0.600,0.325
3952,0.645,0.330
3953,0.690,0.335
3954,0.735,0.340
3955,0.775,0.340
3956,0.815,0.340
3957,0.855,0.345
3958,0.880,0.350
3959,0.910,0.350
3960,0.935,0.335
3961,0.960,0.320
3962,0.975,0.315
3963,0.990,0.310
3964,1.015,0.290
3965,1.040,0.270
3966,1.025,0.250
3967,1.000,0.230
3968,0.940,0.215
3969,0.875,0.195
3970,0.810,0.160
3971,0.735,0.130
3972,0.645,0.125
3973,0.555,0.115
3974,0.470,0.100
3975,0.390,0.085
3976,0.300,0.070
3977,0.230,0.060
3978,0.180,0.055
3979,0.135,0.050
3980,0.090,0.050
3981,0.055,0.050
3982,0.025,0.045
3983,0.005,0.040
3984,-0.010,0.045
3985,-0.030,0.040
3986,-0.050,0.020
3987,-0.060,0.015
3988,-0.065,0.025
3989,-0.070,0.030
3990,-0.070,0.030
3991,-0.080,0.030
3992,-0.095,0.030
3993,-0.100,0.030
3994,-0.095,0.030
3995,-0.090,0.030
3996,-0.085,0.035
3997,-0.090,0.040
3998,-0.105,0.035
3999,-0.110,0.030
4000,-0.110,0.030
4001,-0.100,0.035
4002,-0.100,0.040
4003,-0.100,0.045
4004,-0.100,0.050
4005,-0.105,0.050
4006,-0.110,0.050
4007,-0.110,0.055
4008,-0.110,0.060
4009,-0.115,0.060
4010,-0.120,0.060
4011,-0.110,0.065
4012,-0.100,0.070
4013,-0.095,0.060
4014,-0.095,0.050
4015,-0.110,0.055
4016,-0.120,0.060
4017,-0.110,0.060
4018,-0.100,0.060
4019,-0.100,0.060
4020,-0.105,0.060
4021,-0.120,0.065
4022,-0.130,0.070
4023,-0.125,0.075
4024,-0.120,0.070
4025,-0.120,0.050
4026,-0.120,0.040
4027,-0.120,0.045
4028,-0.130,0.050
4029,-0.145,0.055
4030,-0.150,0.055
4031,-0.145,0.045
4032,-0.140,0.040
4033,-0.140,0.045
4034,-0.145,0.045
4035,-0.155,0.035
4036,-0.160,0.030
4037,-0.160,0.035
4038,-0.170,0.040
4039,-0.185,0.035
4040,-0.185,0.035
4041,-0.175,0.045
4042,-0.175,0.045
4043,-0.180,0.040
4044,-0.190,0.045
4045,-0.200,0.050
4046,-0.205,0.035
4047,-0.210,0.020
4048,-0.205,0.020
4049,-0.200,0.020
4050,-0.200,0.025
4051,-0.200,0.030
4052,-0.210,0.025
4053,-0.220,0.020
4054,-0.220,0.035
4055,-0.220,0.045
4056,-0.215,0.025
4057,-0.210,0.010
4058,-0.215,0.020
4059,-0.220,0.030
4060,-0.215,0.020
4061,-0.215,0.010
4062,-0.230,0.020
4063,-0.235,0.030
4064,-0.225,0.035
4065,-0.220,0.035
4066,-0.215,0.020
4067,-0.215,0.015
4068,-0.230,0.030
4069,-0.240,0.030
4070,-0.235,0.010
4071,-0.230,0.000
4072,-0.225,0.005
4073,-0.220,0.010
4074,-0.225,0.010
4075,-0.230,0.010
4076,-0.230,0.010
4077,-0.230,0.010
4078,-0.225,0.015
4079,-0.220,0.020
4080,-0.215,0.015
4081,-0.220,0.015
4082,-0.235,0.025
4083,-0.235,0.020
4084,-0.220,0.000
4085,-0.230,0.005
4086,-0.240,0.010
4087,-0.240,0.010
4088,-0.240,0.010
4089,-0.230,0.005
4090,-0.220,0.000
4091,-0.230,0.000
4092,-0.240,0.000
4093,-0.235,0.005
4094,-0.230,0.010
4095,-0.230,0.010
4096,-0.230,0.010
4097,-0.230,0.000
4098,-0.230,-0.010
4099,-0.235,-0.005
4100,-0.240,0.000
4101,-0.235,0.005
4102,-0.230,0.010
4103,-0.230,0.000
4104,-0.230,-0.010
4105,-0.230,0.005
4106,-0.225,0.010
4107,-0.215,0.005
4108,-0.215,0.000
4109,-0.230,0.000
4110,-0.235,0.000
4111,-0.225,-0.005
4112,-0.220,-0.010
4113,-0.225,-0.015
4114,-0.225,-0.015
4115,-0.215,-0.005
4116,-0.210,0.000
4117,-0.215,0.000
4118,-0.220,0.000
4119,-0.225,0.000
4120,-0.225,0.000
4121,-0.215,-0.005
4122,-0.210,-0.010
4123,-0.215,-0.005
4124,-0.220,0.000
4125,-0.220,0.000
4126,-0.195,-0.005
4127,-0.180,-0.020
4128,-0.190,-0.010
4129,-0.200,0.000
4130,-0.180,-0.005
4131,-0.160,-0.010
4132,-0.145,0.005
4133,-0.130,0.020
4134,-0.120,0.015
4135,-0.105,0.010
4136,-0.060,0.010
4137,-0.030,0.005
4138,-0.020,-0.025
4139,-0.010,-0.050
4140,-0.020,-0.050
4141,-0.045,-0.055
4142,-0.085,-0.085
4143,-0.115,-0.100
4144,-0.135,-0.100
4145,-0.150,-0.100
4146,-0.145,-0.095
4147,-0.140,-0.095
4148,-0.140,-0.110
4149,-0.140,-0.110
4150,-0.145,-0.080
4151,-0.150,-0.055
4152,-0.145,-0.030
4153,-0.125,-0.010
4154,-0.100,0.005
4155,-0.125,0.000
4156,-0.185,-0.015
4157,-0.210,-0.015
4158,-0.225,-0.005
4159,-0.220,-0.005
4160,-0.205,-0.015
4161,-0.200,-0.015
4162,-0.205,-0.005
4163,-0.210,0.000
4164,-0.205,-0.005
4165,-0.205,-0.010
4166,-0.215,-0.015
4167,-0.215,-0.015
4168,-0.210,-0.010
4169,-0.205,-0.010
4170,-0.200,-0.010
4171,-0.195,0.000
4172,-0.190,0.010
4173,-0.185,-0.005
4174,-0.180,-0.020
4175,-0.175,-0.010
4176,-0.170,0.025
4177,-0.150,0.140
4178,-0.120,0.235
4179,-0.070,0.275
4180,0.015,0.260
4181,0.160,0.130
4182,0.375,-0.075
4183,0.700,-0.405
4184,1.025,-0.730
4185,1.350,-1.060
4186,1.675,-1.385
4187,2.000,-1.715
4188,2.005,-1.830
4189,1.675,-1.730
4190,1.350,-1.520
4191,1.020,-1.225
4192,0.695,-0.910
4193,0.365,-0.585
4194,0.040,-0.305
4195,-0.290,-0.050
4196,-0.350,0.050
4197,-0.280,0.080
4198,-0.260,0.090
4199,-0.255,0.095
4200,-0.250,0.100
4201,-0.245,0.100
4202,-0.235,0.105
4203,-0.225,0.115
4204,-0.220,0.120
4205,-0.215,0.120
4206,-0.205,0.120
4207,-0.195,0.120
4208,-0.190,0.120
4209,-0.180,0.130
4210,-0.175,0.125
4211,-0.170,0.120
4212,-0.160,0.120
4213,-0.150,0.120
4214,-0.135,0.140
4215,-0.120,0.160
4216,-0.115,0.140
4217,-0.110,0.120
4218,-0.105,0.140
4219,-0.100,0.160
4220,-0.085,0.145
4221,-0.070,0.135
4222,-0.070,0.155
4223,-0.065,0.170
4224,-0.040,0.165
4225,-0.015,0.160
4226,0.005,0.170
4227,0.020,0.180
4228,0.025,0.185
4229,0.040,0.190
4230,0.075,0.185
4231,0.095,0.185
4232,0.105,0.195
4233,0.120,0.210
4234,0.140,0.230
4235,0.160,0.235
4236,0.180,0.225
4237,0.215,0.230
4238,0.255,0.245
4239,0.295,0.260
4240,0.340,0.285
4241,0.365,0.290
4242,0.395,0.290
4243,0.435,0.295
4244,0.480,0.305
4245,0.520,0.310
4246,0.555,0.315
4247,0.620,0.325
4248,0.685,0.335
4249,0.720,0.340
4250,0.690,0.340
4251,0.805,0.355
4252,0.850,0.360
4253,0.880,0.345
4254,0.910,0.330
4255,0.945,0.335
4256,0.980,0.340
4257,1.000,0.325
4258,1.020,0.310
4259,1.050,0.295
4260,1.070,0.280
4261,1.080,0.255
4262,1.080,0.235
4263,1.045,0.205
4264,0.995,0.175
4265,0.920,0.150
4266,0.845,0.130
4267,0.775,0.130
4268,0.690,0.120
4269,0.585,0.095
4270,0.495,0.080
4271,0.420,0.065
4272,0.345,0.055
4273,0.265,0.045
4274,0.205,0.040
4275,0.160,0.045
4276,0.120,0.045
4277,0.085,0.035
4278,0.050,0.025
4279,0.020,0.015
4280,0.000,0.010
4281,-0.015,0.015
4282,-0.025,0.020
4283,-0.035,0.015
4284,-0.045,0.010
4285,-0.055,0.015
4286,-0.060,0.020
4287,-0.060,0.015
4288,-0.065,0.010
4289,-0.075,0.010
4290,-0.075,0.005
4291,-0.065,-0.005
4292,-0.070,0.005
4293,-0.080,0.020
4294,-0.080,0.015
4295,-0.080,0.010
4296,-0.075,0.015
4297,-0.070,0.020
4298,-0.085,0.020
4299,-0.100,0.020
4300,-0.100,0.025
4301,-0.100,0.030
4302,-0.095,0.025
4303,-0.090,0.020
4304,-0.100,0.030
4305,-0.110,0.040
4306,-0.115,0.045
4307,-0.120,0.050
4308,-0.115,0.045
4309,-0.110,0.040
4310,-0.100,0.050
4311,-0.095,0.055
4312,-0.115,0.040
4313,-0.125,0.035
4314,-0.110,0.050
4315,-0.105,0.060
4316,-0.115,0.060
4317,-0.115,0.055
4318,-0.105,0.045
4319,-0.100,0.040
4320,-0.105,0.035
4321,-0.115,0.030
4322,-0.125,0.035
4323,-0.125,0.040
4324,-0.115,0.035
4325,-0.120,0.030
4326,-0.135,0.030
4327,-0.140,0.030
4328,-0.145,0.030
4329,-0.150,0.025
4330,-0.155,0.015
4331,-0.160,0.020
4332,-0.155,0.035
4333,-0.150,0.030
4334,-0.150,0.010
4335,-0.160,0.015
4336,-0.170,0.020
4337,-0.170,0.020
4338,-0.170,0.020
4339,-0.180,0.020
4340,-0.190,0.020
4341,-0.195,0.015
4342,-0.200,0.010
4343,-0.195,0.005
4344,-0.190,0.000
4345,-0.195,0.005
4346,-0.200,0.010
4347,-0.200,0.010
4348,-0.200,0.005
4349,-0.190,-0.010
4350,-0.190,-0.020
4351,-0.215,-0.010
4352,-0.225,0.000
4353,-0.210,0.000
4354,-0.200,0.000
4355,-0.215,0.000
4356,-0.220,0.000
4357,-0.215,-0.005
4358,-0.210,-0.010
4359,-0.210,-0.005
4360,-0.210,0.000
4361,-0.215,0.005
4362,-0.220,0.010
4363,-0.220,0.005
4364,-0.220,0.000
4365,-0.225,0.005
4366,-0.225,0.010
4367,-0.215,0.010
4368,-0.215,0.010
4369,-0.225,0.015
4370,-0.230,0.020
4371,-0.230,0.015
4372,-0.225,0.010
4373,-0.215,0.010
4374,-0.210,0.010
4375,-0.210,0.010
4376,-0.225,-0.005
4377,-0.240,-0.010
4378,-0.230,-0.005
4379,-0.220,0.000
4380,-0.220,-0.010
4381,-0.220,-0.020
4382,-0.220,-0.010
4383,-0.220,0.000
4384,-0.225,0.000
4385,-0.230,0.000
4386,-0.230,-0.005
4387,-0.230,-0.010
4388,-0.230,-0.010
4389,-0.230,-0.005
4390,-0.220,0.020
4391,-0.215,0.035
4392,-0.235,0.015
4393,-0.250,0.000
4394,-0.240,-0.005
4395,-0.230,-0.010
4396,-0.230,-0.010
4397,-0.230,-0.010
4398,-0.225,-0.010
4399,-0.220,-0.010
4400,-0.225,-0.015
4401,-0.230,-0.020
4402,-0.235,-0.020
4403,-0.235,-0.015
4404,-0.225,-0.005
4405,-0.220,0.000
4406,-0.225,-0.005
4407,-0.230,-0.010
4408,-0.230,-0.005
4409,-0.225,-0.015
4410,-0.215,-0.035
4411,-0.215,-0.025
4412,-0.225,-0.005
4413,-0.230,0.000
4414,-0.225,0.000
4415,-0.220,-0.005
4416,-0.225,-0.015
4417,-0.235,-0.010
4418,-0.240,0.000
4419,-0.215,-0.005
4420,-0.190,-0.010
4421,-0.190,-0.005
4422,-0.190,0.000
4423,-0.195,-0.005
4424,-0.200,-0.010
4425,-0.185,0.000
4426,-0.165,0.010
4427,-0.135,0.010
4428,-0.105,0.010
4429,-0.085,0.010
4430,-0.065,0.005
4431,-0.045,-0.030
4432,-0.035,-0.050
4433,-0.055,-0.040
4434,-0.080,-0.040
4435,-0.120,-0.070
4436,-0.140,-0.090
4437,-0.145,-0.085
4438,-0.150,-0.085
4439,-0.155,-0.095
4440,-0.160,-0.100
4441,-0.165,-0.100
4442,-0.165,-0.095
4443,-0.155,-0.085
4444,-0.150,-0.065
4445,-0.145,-0.030
4446,-0.135,-0.015
4447,-0.125,-0.005
4448,-0.160,0.000
4449,-0.215,-0.005
4450,-0.220,-0.010
4451,-0.205,-0.010
4452,-0.200,-0.010
4453,-0.205,-0.010
4454,-0.210,-0.010
4455,-0.215,-0.010
4456,-0.220,-0.010
4457,-0.225,-0.005
4458,-0.230,-0.005
4459,-0.230,-0.020
4460,-0.230,-0.015
4461,-0.230,-0.010
4462,-0.230,-0.015
4463,-0.230,-0.020
4464,-0.210,-0.015
4465,-0.190,-0.010
4466,-0.195,-0.010
4467,-0.200,-0.010
4468,-0.185,0.000
4469,-0.170,0.045
4470,-0.160,0.185
4471,-0.125,0.295
4472,-0.040,0.315
4473,0.080,0.255
4474,0.260,0.035
4475,0.495,-0.225
4476,0.820,-0.555
4477,1.145,-0.880
4478,1.470,-1.210
4479,1.795,-1.535
4480,2.120,-1.865
4481,2.105,-1.890
4482,1.775,-1.640
4483,1.450,-1.380
4484,1.120,-1.120
4485,0.795,-0.820
4486,0.465,-0.495
4487,0.135,-0.250
4488,-0.190,-0.040
4489,-0.290,0.040
4490,-0.305,0.070
4491,-0.295,0.080
4492,-0.275,0.075
4493,-0.280,0.085
4494,-0.295,0.105
4495,-0.290,0.105
4496,-0.275,0.095
4497,-0.250,0.095
4498,-0.225,0.105
4499,-0.220,0.115
4500,-0.220,0.110
4501,-0.215,0.110
4502,-0.220,0.090
4503,-0.195,0.100
4504,-0.170,0.110
4505,-0.175,0.110
4506,-0.180,0.110
4507,-0.180,0.120
4508,-0.180,0.130
4509,-0.160,0.120
4510,-0.140,0.110
4511,-0.130,0.125
4512,-0.120,0.140
4513,-0.105,0.130
4514,-0.090,0.120
4515,-0.090,0.115
4516,-0.090,0.110
4517,-0.080,0.120
4518,-0.070,0.130
4519,-0.065,0.130
4520,-0.055,0.130
4521,-0.040,0.130
4522,-0.020,0.130
4523,0.005,0.125
4524,0.030,0.130
4525,0.060,0.150
4526,0.075,0.160
4527,0.085,0.160
4528,0.095,0.160
4529,0.105,0.160
4530,0.125,0.155
4531,0.150,0.145
4532,0.190,0.150
4533,0.230,0.165
4534,0.275,0.170
4535,0.320,0.175
4536,0.350,0.180
4537,0.375,0.180
4538,0.430,0.180
4539,0.485,0.185
4540,0.520,0.190
4541,0.555,0.190
4542,0.605,0.200
4543,0.650,0.210
4544,0.700,0.185
4545,0.750,0.160
4546,0.785,0.170
4547,0.820,0.180
4548,0.835,0.180
4549,0.855,0.180
4550,0.895,0.180
4551,0.930,0.180
4552,0.925,0.165
4553,0.925,0.150
4554,0.950,0.135
4555,0.965,0.120
4556,0.945,0.110
4557,0.915,0.100
4558,0.865,0.095
4559,0.800,0.085
4560,0.715,0.065
4561,0.635,0.050
4562,0.545,0.050
4563,0.465,0.050
4564,0.385,0.045
4565,0.310,0.040
4566,0.225,0.040
4567,0.160,0.035
4568,0.105,0.025
4569,0.065,0.020
4570,0.030,0.015
4571,-0.005,0.010
4572,-0.045,0.010
4573,-0.060,0.010
4574,-0.065,0.010
4575,-0.080,0.010
4576,-0.095,0.005
4577,-0.110,0.000
4578,-0.125,0.000
4579,-0.130,0.000
4580,-0.130,-0.005
4581,-0.130,-0.010
4582,-0.135,-0.010
4583,-0.145,-0.010
4584,-0.160,-0.010
4585,-0.160,-0.015
4586,-0.160,-0.020
4587,-0.155,-0.015
4588,-0.150,-0.010
4589,-0.160,0.000
4590,-0.170,0.010
4591,-0.165,0.010
4592,-0.160,0.010
4593,-0.155,0.010
4594,-0.150,0.010
4595,-0.165,0.015
4596,-0.180,0.020
4597,-0.165,0.020
4598,-0.150,0.020
4599,-0.160,0.025
4600,-0.170,0.030
4601,-0.165,0.030
4602,-0.160,0.030
4603,-0.155,0.040
4604,-0.150,0.050
4605,-0.150,0.045
4606,-0.150,0.040
4607,-0.155,0.040
4608,-0.155,0.035
4609,-0.145,0.025
4610,-0.140,0.020
4611,-0.140,0.025
4612,-0.145,0.030
4613,-0.155,0.035
4614,-0.155,0.040
4615,-0.145,0.035
4616,-0.150,0.030
4617,-0.165,0.025
4618,-0.170,0.025
4619,-0.170,0.035
4620,-0.170,0.035
4621,-0.175,0.025
4622,-0.180,0.020
4623,-0.185,0.015
4624,-0.190,0.010
4625,-0.190,0.010
4626,-0.195,0.020
4627,-0.200,0.020
4628,-0.195,0.015
4629,-0.190,0.010
4630,-0.205,0.010
4631,-0.220,0.010
4632,-0.220,0.005
4633,-0.220,0.000
4634,-0.220,0.005
4635,-0.220,0.010
4636,-0.225,0.005
4637,-0.230,0.000
4638,-0.235,0.000
4639,-0.240,0.000
4640,-0.240,-0.005
4641,-0.240,-0.010
4642,-0.245,-0.005
4643,-0.250,0.000
4644,-0.240,0.000
4645,-0.230,0.000
4646,-0.245,-0.005
4647,-0.250,-0.010
4648,-0.250,-0.010
4649,-0.250,-0.005
4650,-0.250,0.005
4651,-0.250,0.010
4652,-0.250,0.005
4653,-0.250,0.000
4654,-0.255,0.000
4655,-0.260,0.000
4656,-0.265,0.000
4657,-0.260,0.000
4658,-0.245,0.000
4659,-0.245,0.000
4660,-0.255,0.000
4661,-0.265,0.000
4662,-0.275,0.000
4663,-0.270,0.000
4664,-0.255,0.000
4665,-0.250,0.000
4666,-0.255,-0.005
4667,-0.255,0.000
4668,-0.250,0.010
4669,-0.255,0.000
4670,-0.260,-0.010
4671,-0.260,-0.010
4672,-0.260,-0.010
4673,-0.260,-0.010
4674,-0.260,-0.010
4675,-0.265,-0.005
4676,-0.270,0.000
4677,-0.270,-0.005
4678,-0.270,-0.010
4679,-0.265,-0.010
4680,-0.260,-0.010
4681,-0.250,-0.010
4682,-0.240,-0.010
4683,-0.250,-0.005
4684,-0.260,0.000
4685,-0.260,-0.005
4686,-0.260,-0.010
4687,-0.250,-0.010
4688,-0.245,-0.010
4689,-0.255,-0.015
4690,-0.260,-0.015
4691,-0.260,-0.005
4692,-0.260,-0.005
4693,-0.260,-0.015
4694,-0.260,-0.020
4695,-0.255,-0.015
4696,-0.250,-0.010
4697,-0.250,-0.010
4698,-0.250,-0.010
4699,-0.255,-0.010
4700,-0.245,-0.010
4701,-0.225,-0.005
4702,-0.220,-0.005
4703,-0.220,-0.015
4704,-0.220,-0.020
4705,-0.215,-0.015
4706,-0.205,-0.010
4707,-0.195,-0.005
4708,-0.185,0.005
4709,-0.170,0.020
4710,-0.115,0.015
4711,-0.060,0.010
4712,-0.065,-0.025
4713,-0.070,-0.060
4714,-0.070,-0.050
4715,-0.075,-0.045
4716,-0.125,-0.080
4717,-0.170,-0.110
4718,-0.170,-0.100
4719,-0.170,-0.095
4720,-0.180,-0.115
4721,-0.190,-0.130
4722,-0.190,-0.125
4723,-0.190,-0.115
4724,-0.185,-0.090
4725,-0.180,-0.060
4726,-0.170,-0.030
4727,-0.160,-0.010
4728,-0.150,-0.005
4729,-0.165,0.000
4730,-0.220,-0.015
4731,-0.250,-0.020
4732,-0.255,-0.015
4733,-0.255,-0.010
4734,-0.245,-0.005
4735,-0.245,-0.005
4736,-0.255,-0.020
4737,-0.255,-0.025
4738,-0.245,-0.015
4739,-0.240,-0.010
4740,-0.240,-0.015
4741,-0.240,-0.020
4742,-0.240,-0.020
4743,-0.240,-0.020
4744,-0.245,-0.020
4745,-0.245,-0.020
4746,-0.235,-0.020
4747,-0.220,-0.020
4748,-0.205,-0.015
4749,-0.200,0.005
4750,-0.200,-0.010
4751,-0.165,0.165
4752,-0.140,0.300
4753,-0.075,0.295
4754,0.005,0.270
4755,0.180,0.010
4756,0.375,-0.255
4757,0.700,-0.580
4758,1.025,-0.910
4759,1.350,-1.235
4760,1.675,-1.565
4761,2.000,-1.890
4762,2.145,-2.080
4763,1.820,-1.905
4764,1.490,-1.675
4765,1.160,-1.350
4766,0.835,-1.025
4767,0.505,-0.700
4768,0.180,-0.385
4769,-0.150,-0.090
4770,-0.325,0.075
4771,-0.315,0.100
4772,-0.300,0.110
4773,-0.280,0.105
4774,-0.270,0.105
4775,-0.265,0.115
4776,-0.255,0.120
4777,-0.245,0.125
4778,-0.235,0.130
4779,-0.225,0.130
4780,-0.220,0.130
4781,-0.215,0.135
4782,-0.205,0.135
4783,-0.195,0.125
4784,-0.190,0.120
4785,-0.185,0.125
4786,-0.180,0.130
4787,-0.175,0.135
4788,-0.165,0.140
4789,-0.155,0.145
4790,-0.145,0.150
4791,-0.135,0.150
4792,-0.125,0.155
4793,-0.120,0.160
4794,-0.105,0.155
4795,-0.090,0.150
4796,-0.090,0.160
4797,-0.090,0.170
4798,-0.070,0.170
4799,-0.050,0.170
4800,-0.040,0.175
4801,-0.030,0.180
4802,-0.015,0.195
4803,0.005,0.210
4804,0.030,0.205
4805,0.050,0.200
4806,0.055,0.205
4807,0.070,0.210
4808,0.105,0.215
4809,0.135,0.225
4810,0.150,0.245
4811,0.180,0.260
4812,0.225,0.260
4813,0.260,0.265
4814,0.285,0.280
4815,0.315,0.290
4816,0.355,0.295
4817,0.400,0.310
4818,0.455,0.330
4819,0.505,0.345
4820,0.545,0.355
4821,0.595,0.360
4822,0.655,0.360
4823,0.700,0.360
4824,0.745,0.360
4825,0.790,0.365
4826,0.830,0.375
4827,0.865,0.380
4828,0.905,0.375
4829,0.930,0.365
4830,0.955,0.355
4831,0.980,0.340
4832,1.005,0.325
4833,1.020,0.300
4834,1.040,0.270
4835,1.035,0.255
4836,1.030,0.240
4837,0.980,0.205
4838,0.925,0.170
4839,0.835,0.155
4840,0.750,0.140
4841,0.660,0.125
4842,0.570,0.110
4843,0.470,0.100
4844,0.375,0.090
4845,0.310,0.080
4846,0.245,0.070
4847,0.175,0.055
4848,0.115,0.040
4849,0.070,0.040
4850,0.030,0.040
4851,0.005,0.035
4852,-0.020,0.030
4853,-0.050,0.025
4854,-0.070,0.020
4855,-0.070,0.025
4856,-0.075,0.030
4857,-0.085,0.030
4858,-0.090,0.030
4859,-0.095,0.030
4860,-0.100,0.030
4861,-0.100,0.025
4862,-0.100,0.020
4863,-0.105,0.020
4864,-0.110,0.020
4865,-0.105,0.020
4866,-0.110,0.025
4867,-0.125,0.035
4868,-0.125,0.040
4869,-0.115,0.035
4870,-0.110,0.030
4871,-0.110,0.025
4872,-0.115,0.030
4873,-0.125,0.045
4874,-0.130,0.050
4875,-0.130,0.050
4876,-0.135,0.040
4877,-0.150,0.040
4878,-0.145,0.050
4879,-0.140,0.060
4880,-0.140,0.065
4881,-0.140,0.070
4882,-0.150,0.065
4883,-0.160,0.060
4884,-0.160,0.060
4885,-0.160,0.060
4886,-0.155,0.060
4887,-0.150,0.060
4888,-0.145,0.070
4889,-0.145,0.080
4890,-0.160,0.075
4891,-0.170,0.070
4892,-0.170,0.065
4893,-0.170,0.060
4894,-0.160,0.065
4895,-0.155,0.070
4896,-0.180,0.055
4897,-0.185,0.050
4898,-0.170,0.050
4899,-0.165,0.050
4900,-0.180,0.045
4901,-0.185,0.040
4902,-0.175,0.045
4903,-0.175,0.050
4904,-0.185,0.045
4905,-0.190,0.040
4906,-0.195,0.035
4907,-0.200,0.030
4908,-0.195,0.030
4909,-0.200,0.030
4910,-0.215,0.035
4911,-0.215,0.040
4912,-0.205,0.035
4913,-0.210,0.030
4914,-0.225,0.025
4915,-0.230,0.020
4916,-0.230,0.020
4917,-0.230,0.020
4918,-0.230,0.020
4919,-0.235,0.020
4920,-0.240,0.020
4921,-0.240,0.015
4922,-0.240,0.010
4923,-0.240,0.010
4924,-0.240,0.010
4925,-0.245,0.015
4926,-0.250,0.020
4927,-0.240,0.015
4928,-0.230,0.010
4929,-0.240,0.000
4930,-0.250,-0.010
4931,-0.245,0.010
4932,-0.240,0.020
4933,-0.245,0.015
4934,-0.250,0.010
4935,-0.245,0.005
4936,-0.240,0.000
4937,-0.250,0.010
4938,-0.255,0.020
4939,-0.245,0.015
4940,-0.240,0.010
4941,-0.240,0.010
4942,-0.245,0.010
4943,-0.255,0.010
4944,-0.260,0.010
4945,-0.255,0.005
4946,-0.250,0.000
4947,-0.255,0.005
4948,-0.255,0.010
4949,-0.245,0.010
4950,-0.240,0.010
4951,-0.240,0.005
4952,-0.245,0.000
4953,-0.255,0.005
4954,-0.260,0.010
4955,-0.255,0.005
4956,-0.250,0.000
4957,-0.250,0.000
4958,-0.250,0.000
4959,-0.250,0.000
4960,-0.250,0.000
4961,-0.250,0.000
4962,-0.255,0.000
4963,-0.260,0.000
4964,-0.250,0.000
4965,-0.240,0.000
4966,-0.250,0.000
4967,-0.260,0.000
4968,-0.255,0.000
4969,-0.250,0.000
4970,-0.255,0.000
4971,-0.260,0.000
4972,-0.250,-0.005
4973,-0.240,-0.010
4974,-0.245,-0.005
4975,-0.250,0.000
4976,-0.250,0.000
4977,-0.250,0.000
4978,-0.245,-0.005
4979,-0.240,-0.010
4980,-0.240,-0.010
4981,-0.240,-0.010
4982,-0.240,-0.005
4983,-0.240,0.000
4984,-0.235,-0.005
4985,-0.230,-0.010
4986,-0.225,-0.010
4987,-0.215,-0.010
4988,-0.205,-0.005
4989,-0.195,0.000
4990,-0.185,0.005
4991,-0.175,0.015
4992,-0.165,0.025
4993,-0.135,0.020
4994,-0.100,0.005
4995,-0.065,0.000
4996,-0.035,-0.005
4997,-0.040,-0.030
4998,-0.055,-0.055
4999,-0.090,-0.065
5000,-0.060,-0.060
5001,-0.150,-0.080
5002,-0.170,-0.080
5003,-0.170,-0.085
5004,-0.170,-0.090
5005,-0.175,-0.110
5006,-0.180,-0.125
5007,-0.195,-0.090
5008,-0.205,-0.060
5009,-0.170,-0.050
5010,-0.140,-0.035
5011,-0.130,-0.010
5012,-0.135,0.010
5013,-0.195,0.000
5014,-0.240,-0.010
5015,-0.245,-0.010
5016,-0.250,-0.010
5017,-0.255,-0.010
5018,-0.260,-0.010
5019,-0.250,-0.015
5020,-0.240,-0.020
5021,-0.240,-0.005
5022,-0.240,-0.005
5023,-0.245,-0.015
5024,-0.250,-0.020
5025,-0.245,-0.020
5026,-0.240,-0.020
5027,-0.245,-0.020
5028,-0.240,-0.020
5029,-0.225,-0.020
5030,-0.220,-0.020
5031,-0.220,-0.015
5032,-0.220,-0.010
5033,-0.215,-0.005
5034,-0.195,0.060
5035,-0.175,0.135
5036,-0.140,0.220
5037,-0.105,0.310
5038,0.025,0.270
5039,0.170,0.215
5040,0.395,-0.095
5041,0.625,-0.420
5042,0.950,-0.750
5043,1.275,-1.080
5044,1.600,-1.405
5045,1.875,-1.710
5046,1.550,-1.720
5047,1.220,-1.720
5048,0.895,-1.640
5049,0.565,-1.515
5050,0.240,-1.190
5051,-0.090,-0.865
5052,-0.415,-0.540
5053,-0.620,-0.250
5054,-0.450,-0.050
5055,-0.330,0.090
5056,-0.330,0.110
5057,-0.325,0.120
5058,-0.300,0.120
5059,-0.280,0.120
5060,-0.275,0.125
5061,-0.270,0.130
5062,-0.265,0.135
5063,-0.255,0.140
5064,-0.240,0.140
5065,-0.230,0.140
5066,-0.235,0.140
5067,-0.225,0.140
5068,-0.200,0.135
5069,-0.190,0.135
5070,-0.190,0.145
5071,-0.180,0.150
5072,-0.160,0.155
5073,-0.155,0.155
5074,-0.165,0.145
5075,-0.160,0.145
5076,-0.145,0.155
5077,-0.135,0.160
5078,-0.125,0.160
5079,-0.120,0.165
5080,-0.115,0.175
5081,-0.095,0.180
5082,-0.075,0.175
5083,-0.065,0.170
5084,-0.050,0.180
5085,-0.035,0.195
5086,-0.020,0.210
5087,-0.010,0.205
5088,0.000,0.200
5089,0.025,0.210
5090,0.050,0.220
5091,0.065,0.235
5092,0.080,0.250
5093,0.100,0.255
5094,0.125,0.260
5095,0.155,0.255
5096,0.185,0.255
5097,0.215,0.275
5098,0.250,0.290
5099,0.285,0.300
5100,0.330,0.315
5101,0.380,0.330
5102,0.420,0.340
5103,0.450,0.345
5104,0.495,0.350
5105,0.550,0.350
5106,0.605,0.355
5107,0.655,0.365
5108,0.700,0.370
5109,0.735,0.370
5110,0.775,0.370
5111,0.820,0.370
5112,0.865,0.365
5113,0.905,0.355
5114,0.935,0.350
5115,0.960,0.350
5116,0.985,0.345
5117,1.005,0.335
5118,1.025,0.310
5119,1.045,0.275
5120,1.030,0.250
5121,1.005,0.225
5122,0.960,0.205
5123,0.915,0.185
5124,0.835,0.165
5125,0.910,0.180
5126,0.640,0.125
5127,0.530,0.110
5128,0.465,0.095
5129,0.395,0.080
5130,0.325,0.070
5131,0.255,0.060
5132,0.185,0.055
5133,0.125,0.050
5134,0.080,0.045
5135,0.035,0.040
5136,0.010,0.040
5137,-0.010,0.040
5138,-0.025,0.040
5139,-0.045,0.040
5140,-0.065,0.035
5141,-0.080,0.030
5142,-0.080,0.025
5143,-0.080,0.020
5144,-0.090,0.020
5145,-0.100,0.020
5146,-0.100,0.020
5147,-0.100,0.020
5148,-0.095,0.025
5149,-0.095,0.030
5150,-0.110,0.030
5151,-0.115,0.030
5152,-0.105,0.030
5153,-0.100,0.030
5154,-0.105,0.035
5155,-0.110,0.040
5156,-0.115,0.035
5157,-0.120,0.040
5158,-0.125,0.055
5159,-0.130,0.055
5160,-0.130,0.045
5161,-0.130,0.045
5162,-0.130,0.055
5163,-0.130,0.060
5164,-0.135,0.065
5165,-0.140,0.070
5166,-0.140,0.065
5167,-0.135,0.070
5168,-0.130,0.080
5169,-0.145,0.075
5170,-0.160,0.070
5171,-0.150,0.065
5172,-0.140,0.060
5173,-0.150,0.070
5174,-0.160,0.080
5175,-0.155,0.080
5176,-0.150,0.080
5177,-0.150,0.070
5178,-0.150,0.060
5179,-0.155,0.065
5180,-0.160,0.070
5181,-0.165,0.075
5182,-0.170,0.075
5183,-0.175,0.060
5184,-0.180,0.050
5185,-0.170,0.050
5186,-0.165,0.050
5187,-0.180,0.045
5188,-0.185,0.040
5189,-0.175,0.040
5190,-0.170,0.040
5191,-0.175,0.040
5192,-0.185,0.035
5193,-0.195,0.025
5194,-0.200,0.025
5195,-0.195,0.035
5196,-0.195,0.040
5197,-0.205,0.035
5198,-0.210,0.030
5199,-0.205,0.030
5200,-0.200,0.030
5201,-0.205,0.025
5202,-0.210,0.025
5203,-0.215,0.035
5204,-0.220,0.035
5205,-0.220,0.025
5206,-0.220,0.020
5207,-0.220,0.025
5208,-0.220,0.025
5209,-0.220,0.010
5210,-0.220,0.020
5211,-0.220,0.030
5212,-0.225,0.020
5213,-0.230,0.010
5214,-0.225,0.015
5215,-0.220,0.020
5216,-0.230,0.015
5217,-0.240,0.010
5218,-0.230,0.010
5219,-0.220,0.010
5220,-0.220,0.015
5221,-0.220,0.020
5222,-0.230,0.025
5223,-0.235,0.030
5224,-0.220,0.020
5225,-0.215,0.010
5226,-0.230,0.020
5227,-0.240,0.030
5228,-0.235,0.025
5229,-0.230,0.020
5230,-0.235,0.015
5231,-0.240,0.010
5232,-0.235,0.015
5233,-0.230,0.020
5234,-0.230,0.020
5235,-0.230,0.020
5236,-0.230,0.020
5237,-0.230,0.020
5238,-0.225,0.020
5239,-0.230,0.015
5240,-0.245,0.005
5241,-0.235,0.000
5242,-0.215,0.005
5243,-0.220,0.010
5244,-0.235,0.015
5245,-0.240,0.015
5246,-0.240,0.005
5247,-0.235,0.000
5248,-0.225,0.000
5249,-0.220,0.000
5250,-0.220,0.000
5251,-0.225,0.005
5252,-0.230,0.010
5253,-0.230,0.000
5254,-0.230,-0.010
5255,-0.230,-0.010
5256,-0.230,-0.010
5257,-0.230,-0.010
5258,-0.230,-0.010
5259,-0.235,0.010
5260,-0.240,0.030
5261,-0.235,0.005
5262,-0.230,-0.010
5263,-0.240,-0.005
5264,-0.245,0.000
5265,-0.225,0.005
5266,-0.210,0.010
5267,-0.215,0.010
5268,-0.220,0.010
5269,-0.220,0.010
5270,-0.215,0.010
5271,-0.190,0.010
5272,-0.185,0.010
5273,-0.195,0.010
5274,-0.190,0.015
5275,-0.170,0.030
5276,-0.155,0.040
5277,-0.145,0.040
5278,-0.120,0.030
5279,-0.085,0.010
5280,-0.055,-0.005
5281,-0.030,-0.015
5282,-0.025,-0.020
5283,-0.035,-0.025
5284,-0.065,-0.040
5285,-0.100,-0.055
5286,-0.130,-0.070
5287,-0.155,-0.085
5288,-0.150,-0.090
5289,-0.135,-0.085
5290,-0.140,-0.100
5291,-0.155,-0.125
5292,-0.165,-0.095
5293,-0.170,-0.060
5294,-0.155,-0.040
5295,-0.140,-0.020
5296,-0.125,0.000
5297,-0.115,0.020
5298,-0.170,0.015
5299,-0.220,0.010
5300,-0.225,0.005
5301,-0.230,0.000
5302,-0.225,0.005
5303,-0.220,0.010
5304,-0.220,0.005
5305,-0.220,0.000
5306,-0.220,0.005
5307,-0.220,0.010
5308,-0.210,0.000
5309,-0.205,-0.010
5310,-0.225,0.000
5311,-0.240,0.010
5312,-0.230,0.005
5313,-0.220,0.000
5314,-0.215,0.005
5315,-0.210,0.010
5316,-0.210,0.010
5317,-0.195,0.010
5318,-0.170,0.010
5319,-0.160,0.070
5320,-0.165,0.165
5321,-0.135,0.245
5322,-0.075,0.320
5323,0.045,0.290
5324,0.185,0.220
5325,0.410,-0.055
5326,0.655,-0.380
5327,0.965,-0.710
5328,1.290,-1.035
5329,1.615,-1.365
5330,1.940,-1.690
5331,1.670,-1.690
5332,1.345,-1.655
5333,1.015,-1.515
5334,0.685,-1.365
5335,0.360,-1.040
5336,0.030,-0.715
5337,-0.295,-0.390
5338,-0.575,-0.090
5339,-0.440,0.015
5340,-0.320,0.110
5341,-0.295,0.115
5342,-0.270,0.120
5343,-0.270,0.130
5344,-0.270,0.140
5345,-0.255,0.145
5346,-0.240,0.150
5347,-0.250,0.150
5348,-0.250,0.150
5349,-0.215,0.140
5350,-0.190,0.135
5351,-0.190,0.150
5352,-0.190,0.160
5353,-0.190,0.165
5354,-0.190,0.170
5355,-0.185,0.155
5356,-0.175,0.150
5357,-0.160,0.155
5358,-0.150,0.165
5359,-0.145,0.175
5360,-0.135,0.180
5361,-0.120,0.180
5362,-0.110,0.175
5363,-0.110,0.165
5364,-0.100,0.165
5365,-0.085,0.175
5366,-0.075,0.185
5367,-0.065,0.195
5368,-0.055,0.200
5369,-0.045,0.205
5370,-0.035,0.210
5371,-0.025,0.205
5372,0.010,0.200
5373,0.045,0.200
5374,0.055,0.205
5375,0.050,0.200
5376,0.080,0.225
5377,0.090,0.230
5378,0.130,0.245
5379,0.170,0.260
5380,0.170,0.270
5381,0.175,0.280
5382,0.245,0.285
5383,0.300,0.290
5384,0.315,0.300
5385,0.340,0.310
5386,0.385,0.305
5387,0.430,0.300
5388,0.475,0.310
5389,0.520,0.325
5390,0.560,0.340
5391,0.605,0.345
5392,0.650,0.315
5393,0.700,0.305
5394,0.750,0.320
5395,0.790,0.330
5396,0.825,0.325
5397,0.850,0.320
5398,0.875,0.315
5399,0.900,0.310
5400,0.930,0.305
5401,0.955,0.285
5402,0.980,0.255
5403,0.990,0.235
5404,0.995,0.225
5405,0.990,0.210
5406,0.970,0.190
5407,0.915,0.175
5408,0.845,0.165
5409,0.765,0.145
5410,0.675,0.125
5411,0.585,0.110
5412,0.495,0.095
5413,0.425,0.090
5414,0.355,0.090
5415,0.280,0.080
5416,0.205,0.065
5417,0.150,0.065
5418,0.100,0.070
5419,0.065,0.060
5420,0.030,0.050
5421,0.020,0.050
5422,0.005,0.050
5423,-0.035,0.040
5424,-0.070,0.030
5425,-0.060,0.040
5426,-0.050,0.050
5427,-0.065,0.040
5428,-0.080,0.030
5429,-0.075,0.035
5430,-0.070,0.040
5431,-0.075,0.040
5432,-0.085,0.040
5433,-0.100,0.040
5434,-0.110,0.040
5435,-0.100,0.040
5436,-0.090,0.040
5437,-0.095,0.045
5438,-0.100,0.050
5439,-0.095,0.050
5440,-0.095,0.050
5441,-0.110,0.050
5442,-0.115,0.050
5443,-0.105,0.055
5444,-0.105,0.065
5445,-0.115,0.075
5446,-0.120,0.070
5447,-0.120,0.055
5448,-0.120,0.050
5449,-0.120,0.055
5450,-0.120,0.070
5451,-0.115,0.085
5452,-0.120,0.090
5453,-0.135,0.090
5454,-0.125,0.090
5455,-0.105,0.085
5456,-0.125,0.080
5457,-0.155,0.080
5458,-0.150,0.080
5459,-0.130,0.070
5460,-0.130,0.075
5461,-0.130,0.080
5462,-0.130,0.080
5463,-0.130,0.080
5464,-0.135,0.075
5465,-0.140,0.070
5466,-0.140,0.060
5467,-0.140,0.050
5468,-0.135,0.050
5469,-0.130,0.050
5470,-0.140,0.055
5471,-0.150,0.060
5472,-0.155,0.055
5473,-0.160,0.050
5474,-0.165,0.050
5475,-0.170,0.050
5476,-0.175,0.050
5477,-0.180,0.050
5478,-0.175,0.050
5479,-0.170,0.050
5480,-0.175,0.035
5481,-0.180,0.030
5482,-0.175,0.035
5483,-0.175,0.035
5484,-0.190,0.025
5485,-0.200,0.025
5486,-0.195,0.035
5487,-0.190,0.040
5488,-0.195,0.040
5489,-0.200,0.040
5490,-0.205,0.035
5491,-0.205,0.030
5492,-0.195,0.030
5493,-0.200,0.030
5494,-0.215,0.030
5495,-0.210,0.030
5496,-0.195,0.035
5497,-0.210,0.030
5498,-0.235,0.015
5499,-0.235,0.010
5500,-0.240,0.010
5501,-0.210,0.020
5502,-0.200,0.020
5503,-0.210,0.020
5504,-0.220,0.020
5505,-0.215,0.020
5506,-0.210,0.020
5507,-0.215,0.010
5508,-0.220,0.000
5509,-0.220,0.015
5510,-0.220,0.030
5511,-0.220,0.020
5512,-0.220,0.010
5513,-0.225,0.015
5514,-0.225,0.020
5515,-0.210,0.010
5516,-0.200,0.000
5517,-0.210,0.005
5518,-0.220,0.010
5519,-0.220,0.010
5520,-0.220,0.010
5521,-0.220,0.010
5522,-0.220,0.010
5523,-0.215,0.010
5524,-0.210,0.005
5525,-0.215,-0.005
5526,-0.220,-0.005
5527,-0.215,0.010
5528,-0.210,0.015
5529,-0.210,0.005
5530,-0.210,0.000
5531,-0.210,0.000
5532,-0.210,0.000
5533,-0.210,0.000
5534,-0.210,0.000
5535,-0.215,0.005
5536,-0.220,0.005
5537,-0.220,-0.005
5538,-0.215,-0.010
5539,-0.205,-0.010
5540,-0.210,-0.005
5541,-0.225,0.005
5542,-0.210,0.005
5543,-0.190,0.000
5544,-0.200,0.005
5545,-0.210,0.010
5546,-0.205,0.005
5547,-0.200,0.000
5548,-0.185,0.005
5549,-0.170,0.010
5550,-0.180,0.005
5551,-0.190,0.000
5552,-0.170,0.005
5553,-0.150,0.010
5554,-0.140,0.020
5555,-0.120,0.030
5556,-0.085,0.020
5557,-0.055,0.005
5558,-0.030,-0.015
5559,-0.015,-0.030
5560,-0.035,-0.040
5561,-0.060,-0.055
5562,-0.085,-0.075
5563,-0.115,-0.090
5564,-0.145,-0.095
5565,-0.160,-0.100
5566,-0.155,-0.100
5567,-0.150,-0.110
5568,-0.150,-0.130
5569,-0.150,-0.120
5570,-0.150,-0.085
5571,-0.140,-0.060
5572,-0.120,-0.040
5573,-0.110,-0.015
5574,-0.115,0.005
5575,-0.150,0.000
5576,-0.190,-0.015
5577,-0.200,-0.020
5578,-0.205,-0.020
5579,-0.210,-0.020
5580,-0.205,-0.015
5581,-0.205,-0.010
5582,-0.215,-0.015
5583,-0.220,-0.020
5584,-0.210,-0.020
5585,-0.210,-0.020
5586,-0.210,-0.020
5587,-0.220,-0.015
5588,-0.230,-0.010
5589,-0.210,-0.015
5590,-0.190,-0.020
5591,-0.195,-0.015
5592,-0.200,-0.010
5593,-0.195,-0.010
5594,-0.185,-0.010
5595,-0.165,-0.010
5596,-0.150,0.020
5597,-0.150,0.125
5598,-0.135,0.220
5599,-0.075,0.285
5600,0.010,0.290
5601,0.145,0.185
5602,0.325,-0.020
5603,0.580,-0.350
5604,0.865,-0.675
5605,1.190,-1.005
5606,1.515,-1.330
5607,1.840,-1.660
5608,1.795,-1.695
5609,1.465,-1.510
5610,1.140,-1.380
5611,0.810,-1.285
5612,0.480,-1.035
5613,0.155,-0.710
5614,-0.175,-0.385
5615,-0.500,-0.065
5616,-0.475,0.035
5617,-0.330,0.070
5618,-0.285,0.080
5619,-0.265,0.085
5620,-0.260,0.100
5621,-0.260,0.115
5622,-0.255,0.120
5623,-0.245,0.115
5624,-0.235,0.110
5625,-0.240,0.110
5626,-0.210,0.110
5627,-0.200,0.120
5628,-0.200,0.120
5629,-0.200,0.120
5630,-0.195,0.120
5631,-0.190,0.120
5632,-0.165,0.120
5633,-0.140,0.120
5634,-0.145,0.125
5635,-0.150,0.130
5636,-0.135,0.130
5637,-0.120,0.130
5638,-0.120,0.130
5639,-0.120,0.130
5640,-0.110,0.140
5641,-0.095,0.150
5642,-0.080,0.145
5643,-0.070,0.140
5644,-0.065,0.150
5645,-0.055,0.160
5646,-0.040,0.160
5647,-0.025,0.160
5648,-0.015,0.155
5649,0.010,0.160
5650,0.045,0.180
5651,0.060,0.190
5652,0.060,0.190
5653,0.075,0.190
5654,0.100,0.190
5655,0.130,0.190
5656,0.160,0.195
5657,0.180,0.210
5658,0.195,0.225
5659,0.230,0.230
5660,0.270,0.235
5661,0.305,0.245
5662,0.335,0.255
5663,0.380,0.265
5664,0.425,0.275
5665,0.465,0.280
5666,0.505,0.285
5667,0.565,0.305
5668,0.620,0.320
5669,0.660,0.320
5670,0.700,0.320
5671,0.730,0.320
5672,0.765,0.320
5673,0.815,0.320
5674,0.860,0.320
5675,0.880,0.315
5676,0.905,0.310
5677,0.930,0.310
5678,0.955,0.305
5679,0.985,0.285
5680,1.010,0.270
5681,1.005,0.250
5682,0.995,0.235
5683,0.980,0.210
5684,0.945,0.185
5685,0.870,0.165
5686,0.800,0.145
5687,0.720,0.130
5688,0.640,0.115
5689,0.560,0.105
5690,0.480,0.095
5691,0.405,0.085
5692,0.335,0.080
5693,0.265,0.075
5694,0.205,0.065
5695,0.140,0.055
5696,0.100,0.045
5697,0.060,0.035
5698,0.030,0.030
5699,0.000,0.030
5700,-0.025,0.030
5701,-0.045,0.030
5702,-0.050,0.030
5703,-0.045,0.030
5704,-0.050,0.030
5705,-0.065,0.025
5706,-0.070,0.020
5707,-0.075,0.020
5708,-0.080,0.020
5709,-0.080,0.020
5710,-0.090,0.020
5711,-0.100,0.020
5712,-0.095,0.025
5713,-0.090,0.030
5714,-0.090,0.025
5715,-0.090,0.020
5716,-0.085,0.035
5717,-0.080,0.050
5718,-0.085,0.045
5719,-0.090,0.040
5720,-0.090,0.045
5721,-0.090,0.050
5722,-0.085,0.050
5723,-0.080,0.050
5724,-0.090,0.045
5725,-0.095,0.040
5726,-0.080,0.040
5727,-0.075,0.040
5728,-0.090,0.045
5729,-0.100,0.050
5730,-0.095,0.055
5731,-0.090,0.060
5732,-0.090,0.055
5733,-0.090,0.050
5734,-0.090,0.050
5735,-0.090,0.050
5736,-0.090,0.045
5737,-0.095,0.040
5738,-0.105,0.035
5739,-0.110,0.030
5740,-0.105,0.030
5741,-0.100,0.030
5742,-0.100,0.025
5743,-0.100,0.020
5744,-0.105,0.020
5745,-0.110,0.020
5746,-0.110,0.025
5747,-0.115,0.030
5748,-0.125,0.030
5749,-0.130,0.025
5750,-0.130,0.030
5751,-0.135,0.015
5752,-0.150,0.020
5753,-0.150,0.020
5754,-0.150,0.020
5755,-0.155,0.020
5756,-0.160,0.020
5757,-0.170,0.015
5758,-0.180,0.010
5759,-0.170,0.010
5760,-0.160,0.010
5761,-0.170,0.010
5762,-0.180,0.010
5763,-0.180,0.010
5764,-0.180,0.010
5765,-0.180,0.005
5766,-0.180,0.000
5767,-0.185,-0.005
5768,-0.190,-0.010
5769,-0.185,0.000
5770,-0.180,0.010
5771,-0.195,0.010
5772,-0.200,0.010
5773,-0.195,0.005
5774,-0.190,0.000
5775,-0.195,0.000
5776,-0.200,0.000
5777,-0.205,0.005
5778,-0.205,0.010
5779,-0.195,0.010
5780,-0.195,0.010
5781,-0.205,0.010
5782,-0.205,0.005
5783,-0.195,-0.005
5784,-0.195,-0.010
5785,-0.205,-0.005
5786,-0.205,0.000
5787,-0.195,0.005
5788,-0.190,0.010
5789,-0.195,0.005
5790,-0.200,0.000
5791,-0.200,-0.005
5792,-0.195,-0.005
5793,-0.190,0.000
5794,-0.205,0.005
5795,-0.220,0.010
5796,-0.210,0.005
5797,-0.200,0.000
5798,-0.200,0.005
5799,-0.200,0.010
5800,-0.205,0.010
5801,-0.210,0.010
5802,-0.205,0.010
5803,-0.200,0.010
5804,-0.210,0.005
5805,-0.220,0.000
5806,-0.210,-0.005
5807,-0.200,-0.010
5808,-0.205,-0.010
5809,-0.210,-0.010
5810,-0.205,0.000
5811,-0.200,0.010
5812,-0.210,0.005
5813,-0.210,0.000
5814,-0.190,-0.005
5815,-0.185,-0.010
5816,-0.200,-0.005
5817,-0.210,0.000
5818,-0.210,-0.005
5819,-0.200,-0.005
5820,-0.180,0.005
5821,-0.185,0.000
5822,-0.210,-0.015
5823,-0.215,-0.015
5824,-0.205,-0.005
5825,-0.200,0.000
5826,-0.195,0.000
5827,-0.190,0.000
5828,-0.195,0.000
5829,-0.200,0.000
5830,-0.200,0.000
5831,-0.190,0.000
5832,-0.175,-0.005
5833,-0.170,-0.010
5834,-0.160,0.000
5835,-0.165,-0.005
5836,-0.170,-0.010
5837,-0.145,0.005
5838,-0.120,0.020
5839,-0.110,0.020
5840,-0.095,0.020
5841,-0.060,0.015
5842,-0.030,0.005
5843,-0.010,-0.030
5844,0.005,-0.060
5845,-0.020,-0.060
5846,-0.050,-0.060
5847,-0.085,-0.075
5848,-0.110,-0.090
5849,-0.120,-0.090
5850,-0.130,-0.095
5851,-0.135,-0.110
5852,-0.140,-0.120
5853,-0.140,-0.130
5854,-0.140,-0.125
5855,-0.135,-0.090
5856,-0.125,-0.060
5857,-0.110,-0.035
5858,-0.100,-0.015
5859,-0.095,-0.005
5860,-0.125,-0.005
5861,-0.180,-0.015
5862,-0.200,-0.020
5863,-0.200,-0.025
5864,-0.205,-0.025
5865,-0.215,-0.015
5866,-0.210,-0.015
5867,-0.195,-0.025
5868,-0.200,-0.030
5869,-0.215,-0.030
5870,-0.215,-0.030
5871,-0.205,-0.030
5872,-0.200,-0.030
5873,-0.195,-0.030
5874,-0.195,-0.030
5875,-0.190,-0.030
5876,-0.195,-0.035
5877,-0.180,-0.050
5878,-0.170,-0.030
5879,-0.160,-0.010
5880,-0.150,0.000
5881,-0.140,0.030
5882,-0.130,0.170
5883,-0.105,0.290
5884,-0.025,0.290
5885,0.080,0.240
5886,0.250,0.020
5887,0.470,-0.230
5888,0.795,-0.555
5889,1.120,-0.885
5890,1.445,-1.215
5891,1.770,-1.540
5892,2.095,-1.870
5893,2.150,-2.015
5894,1.820,-1.900
5895,1.495,-1.690
5896,1.165,-1.365
5897,0.840,-1.040
5898,0.510,-0.715
5899,0.185,-0.395
5900,-0.145,-0.075
5901,-0.275,0.065
5902,-0.275,0.090
5903,-0.265,0.100
5904,-0.240,0.105
5905,-0.240,0.110
5906,-0.255,0.110
5907,-0.245,0.110
5908,-0.225,0.115
5909,-0.210,0.120
5910,-0.195,0.120
5911,-0.190,0.120
5912,-0.195,0.125
5913,-0.200,0.130
5914,-0.195,0.125
5915,-0.175,0.120
5916,-0.155,0.120
5917,-0.145,0.130
5918,-0.140,0.140
5919,-0.130,0.135
5920,-0.120,0.130
5921,-0.115,0.135
5922,-0.110,0.140
5923,-0.105,0.140
5924,-0.100,0.140
5925,-0.095,0.145
5926,-0.085,0.150
5927,-0.060,0.150
5928,-0.040,0.150
5929,-0.040,0.155
5930,-0.035,0.160
5931,-0.010,0.170
5932,0.010,0.180
5933,0.020,0.180
5934,0.035,0.180
5935,0.050,0.185
5936,0.065,0.190
5937,0.080,0.200
5938,0.105,0.210
5939,0.135,0.210
5940,0.165,0.215
5941,0.195,0.230
5942,0.215,0.245
5943,0.230,0.260
5944,0.265,0.275
5945,0.305,0.285
5946,0.345,0.295
5947,0.385,0.305
5948,0.425,0.310
5949,0.460,0.310
5950,0.515,0.320
5951,0.575,0.335
5952,0.610,0.340
5953,0.635,0.340
5954,0.690,0.340
5955,0.755,0.340
5956,0.795,0.345
5957,0.835,0.355
5958,0.865,0.360
5959,0.900,0.350
5960,0.935,0.345
5961,0.970,0.340
5962,0.995,0.325
5963,1.020,0.310
5964,1.040,0.285
5965,1.060,0.260
5966,1.055,0.235
5967,1.045,0.210
5968,1.015,0.190
5969,0.970,0.165
5970,0.885,0.135
5971,0.795,0.110
5972,0.705,0.105
5973,0.615,0.095
5974,0.540,0.075
5975,0.450,0.060
5976,0.350,0.060
5977,0.275,0.050
5978,0.235,0.025
5979,0.185,0.010
5980,0.120,0.015
5981,0.080,0.020
5982,0.055,0.020
5983,0.035,0.015
5984,0.020,0.005
5985,0.005,0.000
5986,-0.010,-0.005
5987,-0.025,0.000
5988,-0.035,0.015
5989,-0.040,0.015
5990,-0.045,0.005
5991,-0.055,0.000
5992,-0.065,-0.005
5993,-0.065,-0.010
5994,-0.055,-0.010
5995,-0.055,0.000
5996,-0.065,0.015
5997,-0.070,0.020
5998,-0.075,0.015
5999,-0.080,0.010
6000,-0.080,0.010
6001,-0.080,0.010
6002,-0.070,0.010
6003,-0.075,0.015
6004,-0.080,0.020
6005,-0.090,0.025
6006,-0.100,0.030
6007,-0.100,0.025
6008,-0.100,0.020
6009,-0.105,0.025
6010,-0.110,0.030
6011,-0.110,0.035
6012,-0.110,0.040
6013,-0.120,0.040
6014,-0.125,0.040
6015,-0.110,0.040
6016,-0.105,0.040
6017,-0.125,0.040
6018,-0.140,0.040
6019,-0.135,0.045
6020,-0.130,0.050
6021,-0.115,0.050
6022,-0.115,0.050
6023,-0.130,0.045
6024,-0.135,0.035
6025,-0.125,0.025
6026,-0.120,0.025
6027,-0.125,0.035
6028,-0.135,0.040
6029,-0.145,0.040
6030,-0.150,0.035
6031,-0.145,0.025
6032,-0.150,0.015
6033,-0.165,0.005
6034,-0.160,0.005
6035,-0.145,0.015
6036,-0.155,0.020
6037,-0.175,0.020
6038,-0.180,0.015
6039,-0.180,0.005
6040,-0.180,0.000
6041,-0.185,0.005
6042,-0.190,0.010
6043,-0.190,0.010
6044,-0.200,0.000
6045,-0.210,-0.010
6046,-0.215,-0.005
6047,-0.220,0.000
6048,-0.215,0.000
6049,-0.210,0.000
6050,-0.210,0.000
6051,-0.210,0.000
6052,-0.220,-0.005
6053,-0.230,-0.010
6054,-0.225,-0.010
6055,-0.220,-0.010
6056,-0.220,-0.010
6057,-0.220,-0.010
6058,-0.225,-0.005
6059,-0.230,0.000
6060,-0.235,-0.005
6061,-0.240,-0.010
6062,-0.240,-0.010
6063,-0.240,-0.010
6064,-0.235,-0.010
6065,-0.230,-0.010
6066,-0.235,-0.015
6067,-0.240,-0.015
6068,-0.235,-0.005
6069,-0.235,0.000
6070,-0.245,-0.005
6071,-0.245,-0.010
6072,-0.235,-0.005
6073,-0.230,-0.005
6074,-0.230,-0.015
6075,-0.235,-0.015
6076,-0.245,-0.005
6077,-0.245,0.000
6078,-0.235,-0.005
6079,-0.230,-0.010
6080,-0.235,-0.010
6081,-0.240,-0.010
6082,-0.235,-0.015
6083,-0.235,-0.020
6084,-0.250,-0.020
6085,-0.245,-0.015
6086,-0.240,-0.010
6087,-0.240,-0.015
6088,-0.240,-0.020
6089,-0.245,-0.020
6090,-0.250,-0.020
6091,-0.245,-0.015
6092,-0.240,-0.010
6093,-0.245,-0.020
6094,-0.250,-0.030
6095,-0.240,-0.025
6096,-0.230,-0.020
6097,-0.225,-0.025
6098,-0.220,-0.030
6099,-0.230,-0.030
6100,-0.240,-0.030
6101,-0.245,-0.030
6102,-0.250,-0.030
6103,-0.240,-0.030
6104,-0.230,-0.030
6105,-0.230,-0.030
6106,-0.235,-0.030
6107,-0.245,-0.030
6108,-0.245,-0.030
6109,-0.235,-0.030
6110,-0.235,-0.030
6111,-0.245,-0.030
6112,-0.245,-0.030
6113,-0.235,-0.035
6114,-0.230,-0.030
6115,-0.225,-0.015
6116,-0.220,-0.010
6117,-0.220,-0.010
6118,-0.215,-0.010
6119,-0.205,-0.015
6120,-0.180,-0.020
6121,-0.155,-0.025
6122,-0.155,-0.015
6123,-0.165,0.005
6124,-0.135,-0.005
6125,-0.170,0.010
6126,-0.070,-0.040
6127,-0.050,-0.050
6128,-0.055,-0.065
6129,-0.060,-0.080
6130,-0.110,-0.090
6131,-0.150,-0.100
6132,-0.155,-0.110
6133,-0.160,-0.120
6134,-0.165,-0.125
6135,-0.170,-0.130
6136,-0.180,-0.140
6137,-0.190,-0.145
6138,-0.185,-0.115
6139,-0.180,-0.085
6140,-0.170,-0.065
6141,-0.155,-0.050
6142,-0.140,-0.040
6143,-0.150,-0.030
6144,-0.200,-0.035
6145,-0.235,-0.040
6146,-0.260,-0.025
6147,-0.270,-0.030
6148,-0.265,-0.050
6149,-0.255,-0.055
6150,-0.245,-0.045
6151,-0.240,-0.040
6152,-0.235,-0.035
6153,-0.240,-0.030
6154,-0.255,-0.035
6155,-0.260,-0.035
6156,-0.255,-0.025
6157,-0.250,-0.030
6158,-0.245,-0.045
6159,-0.240,-0.045
6160,-0.235,-0.035
6161,-0.230,-0.035
6162,-0.225,-0.045
6163,-0.220,-0.045
6164,-0.220,-0.035
6165,-0.210,0.085
6166,-0.195,0.205
6167,-0.125,0.255
6168,-0.055,0.300
6169,0.115,0.150
6170,0.300,-0.015
6171,0.560,-0.340
6172,0.830,-0.670
6173,1.155,-0.995
6174,1.480,-1.325
6175,1.805,-1.650
6176,1.990,-1.885
6177,1.665,-1.755
6178,1.335,-1.615
6179,1.010,-1.440
6180,0.680,-1.220
6181,0.350,-0.895
6182,0.025,-0.570
6183,-0.305,-0.245
6184,-0.470,-0.030
6185,-0.385,0.025
6186,-0.340,0.060
6187,-0.335,0.065
6188,-0.325,0.075
6189,-0.310,0.085
6190,-0.300,0.090
6191,-0.295,0.090
6192,-0.290,0.090
6193,-0.285,0.090
6194,-0.280,0.090
6195,-0.275,0.095
6196,-0.260,0.100
6197,-0.240,0.100
6198,-0.225,0.100
6199,-0.215,0.100
6200,-0.220,0.100
6201,-0.235,0.105
6202,-0.230,0.110
6203,-0.215,0.105
6204,-0.200,0.100
6205,-0.185,0.105
6206,-0.180,0.110
6207,-0.185,0.110
6208,-0.170,0.110
6209,-0.140,0.110
6210,-0.140,0.120
6211,-0.140,0.130
6212,-0.120,0.130
6213,-0.100,0.130
6214,-0.095,0.130
6215,-0.090,0.130
6216,-0.080,0.140
6217,-0.065,0.150
6218,-0.040,0.150
6219,-0.020,0.150
6220,-0.010,0.150
6221,0.000,0.150
6222,0.015,0.155
6223,0.035,0.160
6224,0.055,0.165
6225,0.085,0.170
6226,0.125,0.180
6227,0.155,0.195
6228,0.175,0.210
6229,0.200,0.220
6230,0.235,0.220
6231,0.265,0.220
6232,0.300,0.220
6233,0.340,0.225
6234,0.380,0.235
6235,0.430,0.240
6236,0.480,0.240
6237,0.530,0.235
6238,0.575,0.225
6239,0.625,0.220
6240,0.675,0.225
6241,0.710,0.230
6242,0.740,0.230
6243,0.760,0.230
6244,0.775,0.225
6245,0.815,0.205
6246,0.865,0.185
6247,0.870,0.175
6248,0.875,0.165
6249,0.905,0.155
6250,0.880,0.160
6251,0.930,0.130
6252,0.920,0.120
6253,0.855,0.105
6254,0.785,0.090
6255,0.710,0.070
6256,0.630,0.050
6257,0.545,0.045
6258,0.460,0.040
6259,0.380,0.030
6260,0.305,0.020
6261,0.230,0.005
6262,0.155,-0.010
6263,0.085,-0.005
6264,0.035,0.000
6265,0.010,-0.010
6266,-0.020,-0.020
6267,-0.050,-0.010
6268,-0.070,-0.005
6269,-0.075,-0.020
6270,-0.095,-0.030
6271,-0.130,-0.025
6272,-0.145,-0.020
6273,-0.135,-0.020
6274,-0.135,-0.020
6275,-0.145,-0.020
6276,-0.150,-0.020
6277,-0.145,-0.020
6278,-0.145,-0.025
6279,-0.155,-0.035
6280,-0.160,-0.035
6281,-0.160,-0.025
6282,-0.160,-0.020
6283,-0.160,-0.015
6284,-0.160,-0.015
6285,-0.165,-0.025
6286,-0.170,-0.030
6287,-0.170,-0.025
6288,-0.170,-0.015
6289,-0.175,-0.005
6290,-0.190,0.000
6291,-0.205,-0.005
6292,-0.195,-0.005
6293,-0.180,0.000
6294,-0.185,0.005
6295,-0.190,0.010
6296,-0.185,0.010
6297,-0.180,0.010
6298,-0.185,0.010
6299,-0.190,0.010
6300,-0.190,0.010
6301,-0.190,0.010
6302,-0.180,0.005
6303,-0.170,0.000
6304,-0.175,0.010
6305,-0.185,0.020
6306,-0.205,0.020
6307,-0.215,0.020
6308,-0.195,0.010
6309,-0.180,0.000
6310,-0.190,0.005
6311,-0.195,0.010
6312,-0.175,0.005
6313,-0.175,0.000
6314,-0.210,0.000
6315,-0.225,-0.005
6316,-0.210,-0.020
6317,-0.200,-0.025
6318,-0.200,-0.015
6319,-0.210,-0.010
6320,-0.230,-0.010
6321,-0.235,-0.010
6322,-0.225,-0.010
6323,-0.230,-0.010
6324,-0.245,-0.015
6325,-0.240,-0.020
6326,-0.225,-0.025
6327,-0.225,-0.025
6328,-0.235,-0.015
6329,-0.245,-0.015
6330,-0.255,-0.025
6331,-0.255,-0.030
6332,-0.245,-0.030
6333,-0.260,-0.030
6334,-0.290,-0.030
6335,-0.260,-0.030
6336,-0.230,-0.030
6337,-0.250,-0.035
6338,-0.270,-0.040
6339,-0.270,-0.040
6340,-0.270,-0.040
6341,-0.270,-0.035
6342,-0.270,-0.030
6343,-0.270,-0.025
6344,-0.270,-0.020
6345,-0.265,-0.030
6346,-0.260,-0.040
6347,-0.275,-0.040
6348,-0.290,-0.040
6349,-0.280,-0.035
6350,-0.270,-0.030
6351,-0.265,-0.025
6352,-0.260,-0.020
6353,-0.270,-0.025
6354,-0.280,-0.030
6355,-0.275,-0.035
6356,-0.270,-0.040
6357,-0.270,-0.045
6358,-0.270,-0.045
6359,-0.265,-0.035
6360,-0.265,-0.030
6361,-0.275,-0.035
6362,-0.275,-0.040
6363,-0.265,-0.035
6364,-0.260,-0.030
6365,-0.265,-0.035
6366,-0.270,-0.040
6367,-0.270,-0.035
6368,-0.270,-0.035
6369,-0.270,-0.045
6370,-0.270,-0.050
6371,-0.275,-0.045
6372,-0.265,-0.040
6373,-0.245,-0.045
6374,-0.255,-0.050
6375,-0.240,-0.050
6376,-0.280,-0.035
6377,-0.280,-0.030
6378,-0.270,-0.035
6379,-0.260,-0.040
6380,-0.270,-0.045
6381,-0.280,-0.050
6382,-0.270,-0.040
6383,-0.260,-0.030
6384,-0.265,-0.040
6385,-0.270,-0.050
6386,-0.255,-0.045
6387,-0.240,-0.040
6388,-0.240,-0.040
6389,-0.240,-0.040
6390,-0.245,-0.030
6391,-0.245,-0.020
6392,-0.225,-0.030
6393,-0.205,-0.040
6394,-0.190,-0.035
6395,-0.170,-0.030
6396,-0.135,-0.030
6397,-0.110,-0.035
6398,-0.085,-0.045
6399,-0.080,-0.060
6400,-0.100,-0.080
6401,-0.120,-0.095
6402,-0.140,-0.105
6403,-0.160,-0.120
6404,-0.180,-0.135
6405,-0.190,-0.135
6406,-0.195,-0.125
6407,-0.200,-0.140
6408,-0.205,-0.170
6409,-0.205,-0.160
6410,-0.195,-0.125
6411,-0.190,-0.110
6412,-0.185,-0.095
6413,-0.180,-0.065
6414,-0.175,-0.035
6415,-0.200,-0.035
6416,-0.235,-0.045
6417,-0.250,-0.055
6418,-0.260,-0.060
6419,-0.255,-0.060
6420,-0.250,-0.060
6421,-0.260,-0.055
6422,-0.270,-0.050
6423,-0.260,-0.055
6424,-0.250,-0.060
6425,-0.250,-0.060
6426,-0.250,-0.060
6427,-0.250,-0.055
6428,-0.250,-0.050
6429,-0.245,-0.045
6430,-0.240,-0.040
6431,-0.240,-0.050
6432,-0.240,-0.060
6433,-0.230,-0.050
6434,-0.220,-0.040
6435,-0.215,-0.040
6436,-0.210,0.000
6437,-0.210,0.090
6438,-0.180,0.180
6439,-0.115,0.270
6440,-0.020,0.270
6441,0.090,0.195
6442,0.285,-0.030
6443,0.530,-0.360
6444,0.825,-0.685
6445,1.150,-1.015
6446,1.475,-1.345
6447,1.800,-1.670
6448,1.650,-1.610
6449,1.325,-1.405
6450,0.995,-1.425
6451,0.670,-1.515
6452,0.340,-1.265
6453,0.015,-0.940
6454,-0.315,-0.615
6455,-0.640,-0.290
6456,-0.520,-0.125
6457,-0.360,0.025
6458,-0.340,0.035
6459,-0.320,0.050
6460,-0.315,0.060
6461,-0.310,0.070
6462,-0.295,0.065
6463,-0.280,0.060
6464,-0.275,0.070
6465,-0.270,0.080
6466,-0.260,0.075
6467,-0.250,0.070
6468,-0.240,0.085
6469,-0.230,0.100
6470,-0.230,0.095
6471,-0.230,0.090
6472,-0.220,0.085
6473,-0.210,0.080
6474,-0.200,0.085
6475,-0.190,0.090
6476,-0.180,0.090
6477,-0.170,0.090
6478,-0.165,0.095
6479,-0.155,0.100
6480,-0.140,0.105
6481,-0.130,0.110
6482,-0.130,0.115
6483,-0.125,0.120
6484,-0.110,0.120
6485,-0.095,0.120
6486,-0.080,0.120
6487,-0.065,0.120
6488,-0.055,0.125
6489,-0.040,0.130
6490,-0.015,0.130
6491,0.000,0.140
6492,0.015,0.155
6493,0.040,0.160
6494,0.065,0.160
6495,0.080,0.160
6496,0.095,0.165
6497,0.130,0.175
6498,0.165,0.185
6499,0.190,0.200
6500,0.170,0.190
6501,0.250,0.225
6502,0.280,0.230
6503,0.325,0.235
6504,0.370,0.240
6505,0.410,0.255
6506,0.455,0.270
6507,0.500,0.275
6508,0.545,0.280
6509,0.585,0.285
6510,0.630,0.290
6511,0.675,0.295
6512,0.720,0.300
6513,0.755,0.295
6514,0.785,0.290
6515,0.810,0.290
6516,0.840,0.290
6517,0.875,0.290
6518,0.900,0.285
6519,0.910,0.270
6520,0.925,0.255
6521,0.950,0.240
6522,0.955,0.215
6523,0.945,0.185
6524,0.910,0.165
6525,0.845,0.155
6526,0.780,0.135
6527,0.715,0.110
6528,0.630,0.090
6529,0.540,0.075
6530,0.450,0.065
6531,0.365,0.055
6532,0.300,0.050
6533,0.245,0.050
6534,0.180,0.040
6535,0.115,0.025
6536,0.080,0.020
6537,0.055,0.015
6538,0.015,0.010
6539,-0.025,0.010
6540,-0.040,0.010
6541,-0.055,0.010
6542,-0.065,0.005
6543,-0.070,0.000
6544,-0.085,0.000
6545,-0.100,0.000
6546,-0.105,0.000
6547,-0.110,0.000
6548,-0.115,0.010
6549,-0.120,0.020
6550,-0.110,0.015
6551,-0.100,0.010
6552,-0.105,0.010
6553,-0.110,0.010
6554,-0.115,0.015
6555,-0.120,0.020
6556,-0.120,0.015
6557,-0.120,0.010
6558,-0.125,0.020
6559,-0.130,0.030
6560,-0.120,0.025
6561,-0.110,0.020
6562,-0.115,0.020
6563,-0.120,0.025
6564,-0.115,0.035
6565,-0.110,0.040
6566,-0.110,0.035
6567,-0.110,0.030
6568,-0.110,0.030
6569,-0.110,0.030
6570,-0.105,0.030
6571,-0.110,0.030
6572,-0.125,0.035
6573,-0.115,0.040
6574,-0.095,0.035
6575,-0.100,0.030
6576,-0.115,0.025
6577,-0.120,0.020
6578,-0.120,0.025
6579,-0.120,0.030
6580,-0.115,0.030
6581,-0.115,0.030
6582,-0.125,0.025
6583,-0.130,0.015
6584,-0.130,0.000
6585,-0.130,0.000
6586,-0.130,0.000
6587,-0.140,0.000
6588,-0.150,0.000
6589,-0.150,0.005
6590,-0.150,0.010
6591,-0.155,0.005
6592,-0.160,0.000
6593,-0.160,0.005
6594,-0.165,0.010
6595,-0.185,0.010
6596,-0.195,0.010
6597,-0.175,0.000
6598,-0.165,-0.010
6599,-0.180,0.000
6600,-0.190,0.010
6601,-0.195,0.015
6602,-0.200,0.015
6603,-0.195,0.000
6604,-0.190,-0.010
6605,-0.195,0.005
6606,-0.200,0.005
6607,-0.200,-0.005
6608,-0.200,-0.010
6609,-0.200,-0.010
6610,-0.205,-0.010
6611,-0.215,-0.005
6612,-0.220,0.000
6613,-0.220,0.000
6614,-0.220,-0.005
6615,-0.215,-0.015
6616,-0.210,-0.010
6617,-0.210,0.005
6618,-0.215,0.010
6619,-0.225,0.010
6620,-0.225,0.010
6621,-0.215,0.005
6622,-0.210,0.000
6623,-0.210,-0.005
6624,-0.215,-0.005
6625,-0.210,-0.010
6626,-0.225,0.000
6627,-0.220,-0.010
6628,-0.225,-0.010
6629,-0.230,-0.010
6630,-0.225,-0.005
6631,-0.220,0.000
6632,-0.220,0.000
6633,-0.220,0.000
6634,-0.230,0.000
6635,-0.240,0.000
6636,-0.240,0.000
6637,-0.240,0.000
6638,-0.230,-0.010
6639,-0.220,-0.020
6640,-0.215,-0.015
6641,-0.210,-0.010
6642,-0.220,-0.005
6643,-0.230,0.000
6644,-0.220,0.000
6645,-0.210,0.000
6646,-0.215,-0.015
6647,-0.225,-0.020
6648,-0.235,-0.015
6649,-0.230,-0.010
6650,-0.210,-0.010
6651,-0.205,-0.010
6652,-0.215,-0.015
6653,-0.220,-0.020
6654,-0.220,-0.025
6655,-0.215,-0.025
6656,-0.205,-0.015
6657,-0.200,-0.010
6658,-0.200,-0.005
6659,-0.200,-0.005
6660,-0.205,-0.015
6661,-0.210,-0.020
6662,-0.210,-0.020
6663,-0.205,-0.015
6664,-0.195,-0.005
6665,-0.205,0.000
6666,-0.225,0.000
6667,-0.210,-0.005
6668,-0.190,-0.010
6669,-0.185,-0.015
6670,-0.180,-0.020
6671,-0.175,-0.010
6672,-0.170,0.000
6673,-0.155,0.000
6674,-0.140,0.000
6675,-0.130,0.015
6676,-0.115,0.030
6677,-0.075,0.010
6678,-0.035,-0.015
6679,-0.010,-0.035
6680,0.010,-0.050
6681,-0.010,-0.050
6682,-0.030,-0.055
6683,-0.065,-0.075
6684,-0.100,-0.090
6685,-0.125,-0.095
6686,-0.140,-0.100
6687,-0.130,-0.105
6688,-0.125,-0.115
6689,-0.140,-0.130
6690,-0.150,-0.125
6691,-0.155,-0.095
6692,-0.145,-0.075
6693,-0.120,-0.060
