'sample interval','ECG1','ECG2'
'0.004 sec','mV','mV'
0,-0.015,-0.095
1,-0.015,-0.080
2,-0.015,-0.075
3,-0.015,-0.080
4,-0.015,-0.085
5,-0.020,-0.085
6,-0.025,-0.085
7,-0.020,-0.085
8,-0.015,-0.085
9,-0.015,-0.080
10,-0.015,-0.075
11,-0.040,-0.075
12,-0.045,-0.075
13,0.000,-0.065
14,0.115,-0.055
15,0.365,-0.045
16,0.560,0.000
17,0.665,0.095
18,0.590,0.160
19,0.260,0.175
20,-0.065,0.100
21,-0.395,-0.085
22,-0.540,-0.310
23,-0.510,-0.575
24,-0.415,-0.685
25,-0.275,-0.665
26,-0.175,-0.555
27,-0.100,-0.385
28,-0.065,-0.255
29,-0.045,-0.140
30,-0.035,-0.085
31,-0.040,-0.055
32,-0.045,-0.045
33,-0.040,-0.040
34,-0.035,-0.035
35,-0.035,-0.040
36,-0.035,-0.045
37,-0.030,-0.045
38,-0.025,-0.045
39,-0.025,-0.045
40,-0.025,-0.045
41,-0.020,-0.040
42,-0.020,-0.040
43,-0.025,-0.045
44,-0.020,-0.040
45,-0.015,-0.035
46,-0.005,-0.030
47,0.005,-0.025
48,0.005,-0.025
49,0.005,-0.025
50,0.005,-0.025
51,0.005,-0.025
52,0.010,-0.020
53,0.015,-0.015
54,0.015,-0.020
55,0.015,-0.025
56,0.020,-0.015
57,0.025,-0.005
58,0.025,-0.010
59,0.025,-0.015
60,0.035,-0.010
61,0.045,-0.005
62,0.050,0.000
63,0.060,0.005
64,0.075,0.010
65,0.090,0.020
66,0.100,0.030
67,0.110,0.035
68,0.120,0.040
69,0.130,0.050
70,0.140,0.060
71,0.155,0.075
72,0.170,0.090
73,0.180,0.095
74,0.190,0.100
75,0.195,0.105
76,0.200,0.105
77,0.205,0.110
78,0.205,0.120
79,0.200,0.125
80,0.190,0.120
81,0.175,0.115
82,0.160,0.110
83,0.145,0.095
84,0.125,0.075
85,0.105,0.060
86,0.085,0.045
87,0.065,0.025
88,0.045,0.005
89,0.030,-0.015
90,0.015,-0.035
91,0.005,-0.045
92,-0.005,-0.055
93,-0.015,-0.070
94,-0.025,-0.085
95,-0.035,-0.090
96,-0.045,-0.095
97,-0.055,-0.105
98,-0.065,-0.115
99,-0.065,-0.115
100,-0.065,-0.115
101,-0.070,-0.115
102,-0.075,-0.115
103,-0.075,-0.115
104,-0.075,-0.115
105,-0.070,-0.120
106,-0.065,-0.125
107,-0.060,-0.120
108,-0.055,-0.115
109,-0.050,-0.115
110,-0.045,-0.115
111,-0.040,-0.110
112,-0.035,-0.105
113,-0.040,-0.105
114,-0.045,-0.105
115,-0.040,-0.100
116,-0.035,-0.095
117,-0.035,-0.095
118,-0.035,-0.095
119,-0.035,-0.095
120,-0.035,-0.095
121,-0.030,-0.095
122,-0.025,-0.095
123,-0.025,-0.095
124,-0.025,-0.095
125,-0.025,-0.095
126,-0.030,-0.100
127,-0.025,-0.105
128,-0.035,-0.105
129,-0.045,-0.105
130,-0.045,-0.105
131,-0.045,-0.105
132,-0.050,-0.110
133,-0.055,-0.115
134,-0.055,-0.115
135,-0.055,-0.115
136,-0.050,-0.115
137,-0.045,-0.115
138,-0.050,-0.120
139,-0.055,-0.125
140,-0.060,-0.125
141,-0.065,-0.125
142,-0.065,-0.125
143,-0.065,-0.125
144,-0.065,-0.125
145,-0.065,-0.125
146,-0.065,-0.125
147,-0.065,-0.125
148,-0.070,-0.125
149,-0.075,-0.125
150,-0.070,-0.125
151,-0.065,-0.125
152,-0.065,-0.125
153,-0.065,-0.125
154,-0.065,-0.125
155,-0.065,-0.125
156,-0.060,-0.125
157,-0.060,-0.125
158,-0.070,-0.125
159,-0.070,-0.125
160,-0.060,-0.125
161,-0.055,-0.125
162,-0.060,-0.130
163,-0.065,-0.135
164,-0.065,-0.130
165,-0.070,-0.125
166,-0.080,-0.125
167,-0.075,-0.130
168,-0.065,-0.135
169,-0.065,-0.140
170,-0.065,-0.145
171,-0.070,-0.145
172,-0.075,-0.145
173,-0.075,-0.145
174,-0.075,-0.145
175,-0.070,-0.145
176,-0.065,-0.145
177,-0.060,-0.145
178,-0.055,-0.145
179,-0.060,-0.140
180,-0.065,-0.135
181,-0.070,-0.130
182,-0.075,-0.125
183,-0.075,-0.125
184,-0.075,-0.125
185,-0.070,-0.125
186,-0.065,-0.125
187,-0.070,-0.125
188,-0.075,-0.125
189,-0.070,-0.125
190,-0.065,-0.125
191,-0.065,-0.120
192,-0.065,-0.115
193,-0.070,-0.120
194,-0.080,-0.125
195,-0.090,-0.120
196,-0.055,-0.105
197,0.005,-0.090
198,0.220,-0.070
199,0.485,-0.050
200,0.605,0.020
201,0.680,0.110
202,0.425,0.150
203,0.100,0.180
204,-0.230,-0.010
205,-0.555,-0.235
206,-0.525,-0.505
207,-0.460,-0.775
208,-0.345,-0.725
209,-0.225,-0.655
210,-0.165,-0.480
211,-0.105,-0.310
212,-0.085,-0.215
213,-0.065,-0.125
214,-0.065,-0.095
215,-0.065,-0.065
216,-0.065,-0.060
217,-0.065,-0.055
218,-0.060,-0.060
219,-0.055,-0.065
220,-0.050,-0.065
221,-0.045,-0.065
222,-0.045,-0.060
223,-0.045,-0.055
224,-0.045,-0.055
225,-0.045,-0.055
226,-0.040,-0.055
227,-0.035,-0.055
228,-0.035,-0.055
229,-0.035,-0.055
230,-0.030,-0.055
231,-0.025,-0.055
232,-0.025,-0.055
233,-0.025,-0.055
234,-0.020,-0.050
235,-0.015,-0.045
236,-0.010,-0.045
237,-0.005,-0.045
238,-0.005,-0.040
239,0.000,-0.035
240,0.010,-0.030
241,0.015,-0.025
242,0.010,-0.030
243,0.010,-0.025
244,0.020,-0.010
245,0.025,-0.005
246,0.025,-0.010
247,0.030,-0.015
248,0.040,-0.010
249,0.050,-0.005
250,0.045,-0.005
251,0.080,0.020
252,0.095,0.035
253,0.110,0.045
254,0.125,0.055
255,0.135,0.065
256,0.145,0.075
257,0.150,0.080
258,0.155,0.085
259,0.155,0.100
260,0.155,0.115
261,0.165,0.110
262,0.175,0.105
263,0.175,0.100
264,0.170,0.095
265,0.155,0.090
266,0.145,0.085
267,0.135,0.080
268,0.120,0.065
269,0.100,0.040
270,0.085,0.025
271,0.070,0.010
272,0.055,-0.005
273,0.035,-0.025
274,0.015,-0.040
275,-0.005,-0.055
276,-0.020,-0.070
277,-0.030,-0.080
278,-0.040,-0.090
279,-0.050,-0.100
280,-0.060,-0.110
281,-0.070,-0.120
282,-0.075,-0.125
283,-0.070,-0.130
284,-0.070,-0.135
285,-0.080,-0.135
286,-0.085,-0.135
287,-0.090,-0.135
288,-0.095,-0.135
289,-0.095,-0.135
290,-0.085,-0.135
291,-0.070,-0.130
292,-0.080,-0.130
293,-0.095,-0.135
294,-0.080,-0.130
295,-0.065,-0.125
296,-0.070,-0.125
297,-0.075,-0.125
298,-0.060,-0.120
299,-0.045,-0.115
300,-0.045,-0.120
301,-0.045,-0.125
302,-0.045,-0.120
303,-0.045,-0.115
304,-0.045,-0.110
305,-0.045,-0.105
306,-0.045,-0.105
307,-0.045,-0.105
308,-0.040,-0.105
309,-0.035,-0.105
310,-0.045,-0.105
311,-0.055,-0.105
312,-0.055,-0.110
313,-0.055,-0.115
314,-0.050,-0.115
315,-0.045,-0.115
316,-0.050,-0.110
317,-0.055,-0.105
318,-0.060,-0.110
319,-0.065,-0.115
320,-0.070,-0.115
321,-0.070,-0.115
322,-0.060,-0.115
323,-0.055,-0.115
324,-0.060,-0.120
325,-0.065,-0.125
326,-0.070,-0.125
327,-0.075,-0.125
328,-0.080,-0.130
329,-0.085,-0.135
330,-0.080,-0.130
331,-0.075,-0.125
332,-0.080,-0.125
333,-0.085,-0.125
334,-0.095,-0.115
335,-0.085,-0.115
336,-0.075,-0.115
337,-0.065,-0.115
338,-0.055,-0.115
339,-0.065,-0.115
340,-0.075,-0.115
341,-0.075,-0.115
342,-0.075,-0.115
343,-0.070,-0.115
344,-0.065,-0.115
345,-0.065,-0.110
346,-0.065,-0.105
347,-0.060,-0.105
348,-0.060,-0.105
349,-0.075,-0.110
350,-0.085,-0.115
351,-0.085,-0.110
352,-0.080,-0.105
353,-0.060,-0.115
354,-0.050,-0.125
355,-0.075,-0.125
356,-0.085,-0.125
357,-0.080,-0.125
358,-0.075,-0.125
359,-0.070,-0.130
360,-0.060,-0.130
361,-0.045,-0.120
362,-0.040,-0.115
363,-0.050,-0.115
364,-0.060,-0.115
365,-0.070,-0.110
366,-0.070,-0.105
367,-0.060,-0.100
368,-0.065,-0.095
369,-0.080,-0.095
370,-0.080,-0.095
371,-0.070,-0.095
372,-0.065,-0.095
373,-0.070,-0.100
374,-0.065,-0.105
375,-0.075,-0.105
376,-0.045,-0.100
377,-0.045,-0.095
378,-0.080,-0.090
379,-0.110,-0.085
380,-0.045,-0.070
381,0.055,-0.055
382,0.365,-0.040
383,0.625,-0.010
384,0.705,0.090
385,0.690,0.170
386,0.365,0.205
387,0.035,0.180
388,-0.290,-0.025
389,-0.515,-0.240
390,-0.525,-0.475
391,-0.485,-0.625
392,-0.340,-0.625
393,-0.225,-0.565
394,-0.155,-0.425
395,-0.105,-0.295
396,-0.080,-0.180
397,-0.060,-0.105
398,-0.050,-0.065
399,-0.045,-0.040
400,-0.045,-0.030
401,-0.045,-0.030
402,-0.050,-0.040
403,-0.050,-0.045
404,-0.040,-0.040
405,-0.035,-0.035
406,-0.035,-0.035
407,-0.035,-0.035
408,-0.035,-0.030
409,-0.035,-0.025
410,-0.030,-0.025
411,-0.025,-0.025
412,-0.030,-0.025
413,-0.035,-0.025
414,-0.030,-0.020
415,-0.025,-0.015
416,-0.020,-0.015
417,-0.020,-0.015
418,-0.025,-0.015
419,-0.025,-0.015
420,-0.025,-0.015
421,-0.020,-0.010
422,-0.015,-0.005
423,-0.005,-0.005
424,0.005,-0.005
425,0.010,-0.005
426,0.015,-0.005
427,0.010,0.000
428,0.005,0.005
429,0.015,0.010
430,0.025,0.015
431,0.035,0.020
432,0.045,0.025
433,0.055,0.025
434,0.065,0.025
435,0.070,0.035
436,0.080,0.045
437,0.095,0.055
438,0.110,0.065
439,0.125,0.070
440,0.140,0.080
441,0.150,0.090
442,0.155,0.095
443,0.160,0.100
444,0.170,0.110
445,0.180,0.130
446,0.185,0.135
447,0.180,0.130
448,0.175,0.125
449,0.170,0.120
450,0.150,0.105
451,0.130,0.090
452,0.115,0.085
453,0.100,0.080
454,0.085,0.065
455,0.070,0.050
456,0.055,0.030
457,0.040,0.010
458,0.015,-0.005
459,-0.015,-0.025
460,-0.030,-0.035
461,-0.045,-0.045
462,-0.050,-0.055
463,-0.055,-0.065
464,-0.060,-0.075
465,-0.065,-0.085
466,-0.065,-0.090
467,-0.065,-0.095
468,-0.065,-0.095
469,-0.065,-0.095
470,-0.070,-0.095
471,-0.075,-0.095
472,-0.075,-0.095
473,-0.075,-0.095
474,-0.065,-0.095
475,-0.055,-0.095
476,-0.055,-0.095
477,-0.055,-0.095
478,-0.045,-0.090
479,-0.035,-0.085
480,-0.035,-0.085
481,-0.030,-0.085
482,-0.020,-0.080
483,-0.015,-0.075
484,-0.010,-0.070
485,-0.005,-0.065
486,-0.005,-0.065
487,-0.005,-0.065
488,-0.005,-0.060
489,-0.005,-0.055
490,-0.005,-0.055
491,-0.005,-0.055
492,-0.005,-0.055
493,-0.005,-0.055
494,-0.005,-0.055
495,-0.010,-0.055
496,-0.020,-0.055
497,-0.025,-0.055
498,-0.020,-0.055
499,-0.015,-0.055
500,-0.015,-0.055
501,-0.025,-0.055
502,-0.025,-0.055
503,-0.025,-0.060
504,-0.025,-0.065
505,-0.025,-0.065
506,-0.025,-0.065
507,-0.025,-0.070
508,-0.025,-0.075
509,-0.030,-0.070
510,-0.035,-0.065
511,-0.035,-0.065
512,-0.035,-0.065
513,-0.035,-0.070
514,-0.035,-0.075
515,-0.035,-0.070
516,-0.035,-0.065
517,-0.030,-0.065
518,-0.025,-0.065
519,-0.025,-0.070
520,-0.025,-0.075
521,-0.030,-0.070
522,-0.030,-0.065
523,-0.020,-0.070
524,-0.015,-0.070
525,-0.010,-0.060
526,-0.005,-0.055
527,-0.010,-0.055
528,-0.015,-0.055
529,-0.010,-0.055
530,-0.015,-0.055
531,-0.030,-0.060
532,-0.035,-0.065
533,-0.030,-0.065
534,-0.015,-0.070
535,0.000,-0.080
536,0.000,-0.085
537,-0.010,-0.085
538,-0.015,-0.085
539,-0.020,-0.085
540,-0.025,-0.085
541,-0.025,-0.090
542,-0.020,-0.095
543,-0.015,-0.095
544,-0.015,-0.100
545,-0.015,-0.105
546,-0.025,-0.100
547,-0.035,-0.095
548,-0.035,-0.090
549,-0.035,-0.085
550,-0.035,-0.085
551,-0.035,-0.085
552,-0.035,-0.085
553,-0.035,-0.085
554,-0.030,-0.090
555,-0.025,-0.095
556,-0.030,-0.090
557,-0.035,-0.085
558,-0.030,-0.085
559,-0.025,-0.085
560,-0.035,-0.080
561,-0.045,-0.075
562,-0.045,-0.075
563,0.040,-0.070
564,0.215,-0.055
565,0.455,-0.010
566,0.750,0.065
567,0.775,0.150
568,0.610,0.250
569,0.340,0.230
570,0.010,0.145
571,-0.235,-0.110
572,-0.445,-0.435
573,-0.420,-0.620
574,-0.305,-0.755
575,-0.215,-0.650
576,-0.130,-0.475
577,-0.090,-0.335
578,-0.060,-0.195
579,-0.050,-0.135
580,-0.040,-0.080
581,-0.035,-0.070
582,-0.040,-0.060
583,-0.045,-0.055
584,-0.045,-0.055
585,-0.045,-0.055
586,-0.045,-0.055
587,-0.025,-0.045
588,-0.005,-0.035
589,-0.010,-0.035
590,-0.015,-0.035
591,-0.010,-0.035
592,-0.005,-0.035
593,0.000,-0.025
594,0.005,-0.015
595,0.010,-0.015
596,0.015,-0.015
597,0.010,-0.015
598,0.005,-0.015
599,0.010,-0.010
600,0.015,-0.005
601,0.015,-0.005
602,0.015,-0.005
603,0.025,0.000
604,0.035,0.005
605,0.040,0.005
606,0.045,0.005
607,0.050,0.010
608,0.055,0.015
609,0.060,0.020
610,0.070,0.025
611,0.080,0.030
612,0.085,0.035
613,0.085,0.040
614,0.095,0.050
615,0.110,0.060
616,0.125,0.070
617,0.140,0.080
618,0.160,0.095
619,0.180,0.110
620,0.190,0.115
621,0.200,0.120
622,0.220,0.140
623,0.240,0.160
624,0.250,0.170
625,0.245,0.165
626,0.265,0.190
627,0.265,0.195
628,0.255,0.195
629,0.245,0.195
630,0.230,0.185
631,0.215,0.175
632,0.195,0.170
633,0.175,0.165
634,0.160,0.150
635,0.145,0.130
636,0.120,0.105
637,0.100,0.080
638,0.080,0.060
639,0.060,0.040
640,0.045,0.025
641,0.030,0.015
642,0.015,0.005
643,0.005,-0.005
644,-0.005,-0.015
645,-0.015,-0.025
646,-0.020,-0.040
647,-0.025,-0.045
648,-0.030,-0.050
649,-0.035,-0.055
650,-0.035,-0.050
651,-0.040,-0.050
652,-0.050,-0.060
653,-0.055,-0.065
654,-0.050,-0.065
655,-0.045,-0.065
656,-0.045,-0.065
657,-0.040,-0.065
658,-0.030,-0.060
659,-0.025,-0.055
660,-0.030,-0.050
661,-0.035,-0.045
662,-0.030,-0.045
663,-0.025,-0.045
664,-0.025,-0.040
665,-0.020,-0.035
666,-0.010,-0.030
667,0.000,-0.025
668,0.005,-0.025
669,0.005,-0.025
670,0.005,-0.025
671,0.010,-0.020
672,0.015,-0.015
673,0.015,-0.015
674,0.015,-0.015
675,0.015,-0.015
676,0.015,-0.015
677,0.010,-0.020
678,0.005,-0.025
679,0.005,-0.025
680,0.005,-0.025
681,0.005,-0.025
682,0.005,-0.025
683,0.000,-0.030
684,-0.005,-0.035
685,-0.010,-0.035
686,-0.015,-0.035
687,-0.010,-0.040
688,-0.010,-0.045
689,-0.020,-0.045
690,-0.030,-0.045
691,-0.040,-0.045
692,-0.040,-0.045
693,-0.030,-0.050
694,-0.030,-0.055
695,-0.050,-0.055
696,-0.045,-0.055
697,-0.030,-0.055
698,-0.025,-0.055
699,-0.025,-0.055
700,-0.030,-0.055
701,-0.040,-0.055
702,-0.045,-0.055
703,-0.040,-0.055
704,-0.035,-0.055
705,-0.040,-0.055
706,-0.045,-0.055
707,-0.045,-0.060
708,-0.045,-0.065
709,-0.045,-0.055
710,-0.040,-0.060
711,-0.035,-0.065
712,-0.040,-0.060
713,-0.045,-0.055
714,-0.055,-0.055
715,-0.065,-0.055
716,-0.070,-0.065
717,-0.075,-0.075
718,-0.060,-0.085
719,-0.045,-0.095
720,-0.035,-0.095
721,-0.025,-0.095
722,-0.040,-0.095
723,-0.055,-0.095
724,-0.060,-0.100
725,-0.065,-0.105
726,-0.055,-0.110
727,-0.045,-0.115
728,-0.045,-0.110
729,-0.045,-0.105
730,-0.060,-0.100
731,-0.065,-0.095
732,-0.065,-0.095
733,-0.065,-0.095
734,-0.060,-0.090
735,-0.055,-0.085
736,-0.050,-0.080
737,-0.045,-0.075
738,-0.050,-0.080
739,-0.055,-0.085
740,-0.055,-0.085
741,-0.055,-0.085
742,-0.060,-0.085
743,-0.065,-0.085
744,-0.060,-0.080
745,-0.055,-0.075
746,-0.060,-0.075
747,0.100,-0.065
748,0.285,-0.050
749,0.540,0.025
750,0.295,-0.045
751,0.550,0.190
752,0.290,0.270
753,-0.035,0.120
754,-0.340,-0.045
755,-0.440,-0.370
756,-0.515,-0.660
757,-0.415,-0.705
758,-0.320,-0.715
759,-0.220,-0.535
760,-0.140,-0.370
761,-0.105,-0.250
762,-0.075,-0.155
763,-0.085,-0.100
764,-0.095,-0.065
765,-0.095,-0.055
766,-0.095,-0.045
767,-0.090,-0.045
768,-0.085,-0.045
769,-0.075,-0.050
770,-0.065,-0.055
771,-0.070,-0.055
772,-0.075,-0.055
773,-0.070,-0.050
774,-0.065,-0.045
775,-0.065,-0.045
776,-0.065,-0.045
777,-0.065,-0.040
778,-0.065,-0.035
779,-0.065,-0.040
780,-0.060,-0.045
781,-0.050,-0.040
782,-0.045,-0.035
783,-0.040,-0.035
784,-0.035,-0.035
785,-0.040,-0.030
786,-0.040,-0.025
787,-0.030,-0.020
788,-0.030,-0.015
789,-0.040,-0.020
790,-0.040,-0.020
791,-0.030,-0.010
792,-0.010,-0.005
793,0.005,-0.005
794,0.000,-0.005
795,-0.005,-0.005
796,0.000,0.005
797,0.005,0.015
798,0.025,0.015
799,0.045,0.015
800,0.050,0.025
801,0.055,0.035
802,0.065,0.045
803,0.075,0.055
804,0.085,0.060
805,0.095,0.065
806,0.115,0.075
807,0.130,0.090
808,0.150,0.105
809,0.165,0.115
810,0.170,0.120
811,0.175,0.125
812,0.180,0.130
813,0.185,0.135
814,0.180,0.130
815,0.175,0.125
816,0.170,0.125
817,0.150,0.120
818,0.125,0.105
819,0.105,0.085
820,0.085,0.065
821,0.065,0.045
822,0.045,0.030
823,0.020,0.005
824,0.000,-0.025
825,-0.015,-0.045
826,-0.030,-0.060
827,-0.035,-0.075
828,-0.040,-0.090
829,-0.060,-0.095
830,-0.080,-0.100
831,-0.085,-0.105
832,-0.080,-0.110
833,-0.075,-0.120
834,-0.085,-0.135
835,-0.095,-0.135
836,-0.105,-0.135
837,-0.110,-0.135
838,-0.115,-0.135
839,-0.120,-0.140
840,-0.125,-0.145
841,-0.125,-0.145
842,-0.125,-0.145
843,-0.120,-0.145
844,-0.115,-0.145
845,-0.110,-0.145
846,-0.105,-0.145
847,-0.095,-0.140
848,-0.085,-0.135
849,-0.095,-0.135
850,-0.100,-0.135
851,-0.085,-0.130
852,-0.075,-0.125
853,-0.085,-0.125
854,-0.095,-0.125
855,-0.090,-0.120
856,-0.085,-0.120
857,-0.085,-0.130
858,-0.085,-0.135
859,-0.080,-0.130
860,-0.075,-0.125
861,-0.080,-0.120
862,-0.085,-0.115
863,-0.080,-0.115
864,-0.075,-0.115
865,-0.080,-0.115
866,-0.085,-0.115
867,-0.085,-0.110
868,-0.085,-0.105
869,-0.080,-0.110
870,-0.080,-0.115
871,-0.090,-0.115
872,-0.095,-0.115
873,-0.100,-0.115
874,-0.105,-0.115
875,-0.105,-0.115
876,-0.100,-0.120
877,-0.105,-0.115
878,-0.110,-0.115
879,-0.115,-0.115
880,-0.115,-0.120
881,-0.115,-0.125
882,-0.115,-0.125
883,-0.115,-0.125
884,-0.120,-0.120
885,-0.125,-0.115
886,-0.130,-0.125
887,-0.135,-0.135
888,-0.130,-0.130
889,-0.125,-0.125
890,-0.120,-0.120
891,-0.115,-0.115
892,-0.115,-0.120
893,-0.115,-0.125
894,-0.125,-0.115
895,-0.135,-0.105
896,-0.120,-0.110
897,-0.125,-0.115
898,-0.145,-0.110
899,-0.155,-0.105
900,-0.150,-0.105
901,-0.140,-0.110
902,-0.130,-0.120
903,-0.125,-0.125
904,-0.130,-0.130
905,-0.140,-0.135
906,-0.150,-0.135
907,-0.155,-0.135
908,-0.150,-0.135
909,-0.140,-0.135
910,-0.130,-0.140
911,-0.130,-0.145
912,-0.140,-0.140
913,-0.150,-0.135
914,-0.160,-0.130
915,-0.165,-0.125
916,-0.160,-0.120
917,-0.155,-0.125
918,-0.155,-0.135
919,-0.150,-0.135
920,-0.145,-0.135
921,-0.145,-0.130
922,-0.145,-0.125
923,-0.150,-0.120
924,-0.155,-0.115
925,-0.150,-0.115
926,-0.145,-0.115
927,-0.150,-0.120
928,-0.155,-0.125
929,-0.170,-0.115
930,-0.160,-0.105
931,-0.080,-0.095
932,0.080,-0.080
933,0.375,-0.055
934,0.595,0.010
935,0.705,0.120
936,0.620,0.190
937,0.290,0.210
938,-0.035,0.115
939,-0.365,-0.105
940,-0.525,-0.360
941,-0.550,-0.645
942,-0.495,-0.745
943,-0.370,-0.700
944,-0.285,-0.575
945,-0.220,-0.400
946,-0.180,-0.270
947,-0.155,-0.155
948,-0.145,-0.105
949,-0.145,-0.075
950,-0.145,-0.065
951,-0.145,-0.065
952,-0.145,-0.065
953,-0.140,-0.065
954,-0.135,-0.065
955,-0.130,-0.060
956,-0.125,-0.055
957,-0.125,-0.055
958,-0.125,-0.055
959,-0.125,-0.055
960,-0.120,-0.050
961,-0.115,-0.045
962,-0.110,-0.045
963,-0.105,-0.045
964,-0.105,-0.045
965,-0.105,-0.045
966,-0.105,-0.045
967,-0.105,-0.045
968,-0.100,-0.040
969,-0.095,-0.035
970,-0.090,-0.035
971,-0.085,-0.035
972,-0.080,-0.035
973,-0.075,-0.035
974,-0.075,-0.025
975,-0.075,-0.015
976,-0.070,-0.010
977,-0.065,-0.005
978,-0.060,0.000
979,-0.055,0.005
980,-0.040,0.010
981,-0.030,0.015
982,-0.020,0.020
983,-0.010,0.030
984,0.000,0.040
985,0.015,0.050
986,0.035,0.060
987,0.055,0.070
988,0.075,0.080
989,0.090,0.090
990,0.100,0.100
991,0.115,0.110
992,0.130,0.120
993,0.135,0.130
994,0.140,0.140
995,0.145,0.145
996,0.150,0.145
997,0.155,0.145
998,0.150,0.140
999,0.140,0.130
1000,0.145,0.135
1001,0.105,0.100
1002,0.085,0.085
1003,0.065,0.065
1004,0.045,0.045
1005,0.025,0.020
1006,0.005,-0.005
1007,-0.015,-0.020
1008,-0.035,-0.035
1009,-0.045,-0.050
1010,-0.055,-0.065
1011,-0.065,-0.075
1012,-0.075,-0.085
1013,-0.085,-0.090
1014,-0.095,-0.095
1015,-0.100,-0.105
1016,-0.105,-0.115
1017,-0.110,-0.115
1018,-0.115,-0.115
1019,-0.120,-0.120
1020,-0.125,-0.125
1021,-0.120,-0.125
1022,-0.115,-0.125
1023,-0.115,-0.125
1024,-0.115,-0.125
1025,-0.115,-0.125
1026,-0.115,-0.125
1027,-0.115,-0.125
1028,-0.115,-0.125
1029,-0.110,-0.125
1030,-0.100,-0.125
1031,-0.090,-0.120
1032,-0.085,-0.115
1033,-0.080,-0.110
1034,-0.075,-0.105
1035,-0.075,-0.100
1036,-0.075,-0.095
1037,-0.070,-0.095
1038,-0.065,-0.095
1039,-0.065,-0.095
1040,-0.065,-0.095
1041,-0.060,-0.090
1042,-0.055,-0.085
1043,-0.055,-0.085
1044,-0.055,-0.090
1045,-0.055,-0.095
1046,-0.060,-0.090
1047,-0.065,-0.085
1048,-0.060,-0.090
1049,-0.055,-0.095
1050,-0.055,-0.100
1051,-0.055,-0.105
1052,-0.060,-0.105
1053,-0.065,-0.105
1054,-0.065,-0.105
1055,-0.065,-0.105
1056,-0.070,-0.105
1057,-0.075,-0.105
1058,-0.070,-0.105
1059,-0.065,-0.105
1060,-0.055,-0.100
1061,-0.045,-0.095
1062,-0.040,-0.090
1063,-0.035,-0.085
1064,-0.030,-0.080
1065,-0.030,-0.070
1066,-0.040,-0.060
1067,-0.040,-0.055
1068,-0.030,-0.055
1069,-0.020,-0.055
1070,0.000,-0.060
1071,0.005,-0.065
1072,0.000,-0.065
1073,-0.005,-0.065
1074,-0.010,-0.070
1075,-0.015,-0.080
1076,-0.020,-0.090
1077,-0.030,-0.095
1078,-0.040,-0.100
1079,-0.050,-0.105
1080,-0.060,-0.105
1081,-0.075,-0.105
1082,-0.090,-0.105
1083,-0.095,-0.105
1084,-0.095,-0.105
1085,-0.100,-0.110
1086,-0.105,-0.115
1087,-0.105,-0.115
1088,-0.105,-0.115
1089,-0.105,-0.115
1090,-0.105,-0.115
1091,-0.110,-0.120
1092,-0.115,-0.125
1093,-0.110,-0.120
1094,-0.105,-0.115
1095,-0.100,-0.115
1096,-0.095,-0.115
1097,-0.105,-0.115
1098,-0.115,-0.115
1099,-0.120,-0.115
1100,-0.075,-0.110
1101,0.060,-0.095
1102,0.275,-0.060
1103,0.595,0.010
1104,0.720,0.090
1105,0.625,0.195
1106,0.405,0.215
1107,0.075,0.155
1108,-0.220,-0.060
1109,-0.490,-0.390
1110,-0.530,-0.635
1111,-0.425,-0.835
1112,-0.325,-0.785
1113,-0.235,-0.600
1114,-0.195,-0.435
1115,-0.170,-0.275
1116,-0.150,-0.195
1117,-0.130,-0.140
1118,-0.125,-0.110
1119,-0.125,-0.090
1120,-0.125,-0.085
1121,-0.125,-0.085
1122,-0.125,-0.085
1123,-0.120,-0.090
1124,-0.110,-0.095
1125,-0.115,-0.095
1126,-0.090,-0.085
1127,-0.085,-0.085
1128,-0.075,-0.080
1129,-0.065,-0.075
1130,-0.070,-0.075
1131,-0.075,-0.075
1132,-0.065,-0.075
1133,-0.055,-0.075
1134,-0.055,-0.070
1135,-0.055,-0.065
1136,-0.045,-0.065
1137,-0.035,-0.065
1138,-0.030,-0.065
1139,-0.025,-0.065
1140,-0.030,-0.060
1141,-0.035,-0.055
1142,-0.030,-0.050
1143,-0.025,-0.045
1144,-0.015,-0.040
1145,-0.005,-0.035
1146,-0.005,-0.030
1147,0.000,-0.020
1148,0.010,-0.010
1149,0.020,-0.005
1150,0.035,0.000
1151,0.045,0.005
1152,0.040,0.010
1153,0.045,0.025
1154,0.060,0.040
1155,0.070,0.045
1156,0.080,0.050
1157,0.100,0.070
1158,0.125,0.090
1159,0.145,0.095
1160,0.160,0.100
1161,0.165,0.115
1162,0.165,0.130
1163,0.185,0.140
1164,0.210,0.150
1165,0.215,0.155
1166,0.210,0.155
1167,0.215,0.155
1168,0.225,0.155
1169,0.190,0.145
1170,0.155,0.135
1171,0.145,0.120
1172,0.135,0.105
1173,0.110,0.085
1174,0.085,0.065
1175,0.055,0.045
1176,0.035,0.020
1177,0.015,-0.005
1178,-0.005,-0.025
1179,-0.010,-0.040
1180,-0.020,-0.055
1181,-0.040,-0.075
1182,-0.055,-0.085
1183,-0.065,-0.090
1184,-0.075,-0.095
1185,-0.085,-0.105
1186,-0.095,-0.115
1187,-0.100,-0.120
1188,-0.100,-0.125
1189,-0.090,-0.120
1190,-0.090,-0.115
1191,-0.100,-0.115
1192,-0.105,-0.115
1193,-0.105,-0.115
1194,-0.105,-0.115
1195,-0.105,-0.115
1196,-0.100,-0.115
1197,-0.090,-0.110
1198,-0.085,-0.105
1199,-0.090,-0.105
1200,-0.090,-0.105
1201,-0.080,-0.100
1202,-0.075,-0.095
1203,-0.070,-0.095
1204,-0.065,-0.095
1205,-0.070,-0.090
1206,-0.075,-0.085
1207,-0.080,-0.090
1208,-0.080,-0.095
1209,-0.065,-0.085
1210,-0.060,-0.090
1211,-0.055,-0.095
1212,-0.055,-0.090
1213,-0.055,-0.085
1214,-0.060,-0.090
1215,-0.065,-0.095
1216,-0.070,-0.095
1217,-0.075,-0.095
1218,-0.070,-0.100
1219,-0.065,-0.105
1220,-0.060,-0.105
1221,-0.055,-0.105
1222,-0.050,-0.105
1223,-0.050,-0.105
1224,-0.065,-0.110
1225,-0.075,-0.115
1226,-0.085,-0.115
1227,-0.095,-0.115
1228,-0.085,-0.115
1229,-0.075,-0.115
1230,-0.060,-0.120
1231,-0.055,-0.125
1232,-0.060,-0.130
1233,-0.065,-0.130
1234,-0.065,-0.120
1235,-0.065,-0.115
1236,-0.065,-0.115
1237,-0.065,-0.115
1238,-0.060,-0.120
1239,-0.060,-0.125
1240,-0.070,-0.125
1241,-0.075,-0.125
1242,-0.070,-0.125
1243,-0.065,-0.125
1244,-0.060,-0.120
1245,-0.055,-0.115
1246,-0.050,-0.120
1247,-0.045,-0.125
1248,-0.045,-0.125
1249,-0.045,-0.125
1250,-0.045,-0.125
1251,-0.045,-0.125
1252,-0.035,-0.115
1253,-0.040,-0.120
1254,-0.045,-0.125
1255,-0.045,-0.125
1256,-0.045,-0.125
1257,-0.030,-0.125
1258,-0.015,-0.125
1259,-0.010,-0.115
1260,-0.005,-0.105
1261,-0.010,-0.105
1262,-0.015,-0.105
1263,-0.020,-0.100
1264,-0.025,-0.095
1265,-0.020,-0.090
1266,-0.010,-0.085
1267,0.005,-0.090
1268,0.015,-0.095
1269,0.005,-0.100
1270,-0.005,-0.105
1271,-0.005,-0.110
1272,-0.010,-0.120
1273,-0.020,-0.130
1274,-0.025,-0.135
1275,-0.025,-0.130
1276,-0.030,-0.125
1277,-0.045,-0.130
1278,-0.055,-0.135
1279,-0.055,-0.130
1280,-0.055,-0.125
1281,-0.055,-0.120
1282,-0.055,-0.120
1283,-0.055,-0.130
1284,-0.065,-0.135
1285,-0.080,-0.140
1286,-0.080,-0.145
1287,-0.070,-0.145
1288,-0.065,-0.145
1289,-0.065,-0.145
1290,-0.065,-0.145
1291,-0.065,-0.145
1292,-0.065,-0.145
1293,-0.065,-0.145
1294,-0.075,-0.150
1295,-0.085,-0.155
1296,-0.085,-0.145
1297,-0.075,-0.135
1298,0.040,-0.120
1299,0.185,-0.100
1300,0.475,-0.060
1301,0.710,-0.005
1302,0.740,0.110
1303,0.680,0.195
1304,0.355,0.200
1305,0.025,0.135
1306,-0.305,-0.100
1307,-0.515,-0.345
1308,-0.520,-0.605
1309,-0.480,-0.755
1310,-0.370,-0.730
1311,-0.275,-0.645
1312,-0.195,-0.480
1313,-0.140,-0.340
1314,-0.110,-0.230
1315,-0.095,-0.155
1316,-0.090,-0.115
1317,-0.085,-0.095
1318,-0.090,-0.090
1319,-0.095,-0.085
1320,-0.090,-0.090
1321,-0.085,-0.095
1322,-0.085,-0.090
1323,-0.085,-0.085
1324,-0.080,-0.085
1325,-0.075,-0.085
1326,-0.080,-0.080
1327,-0.085,-0.075
1328,-0.080,-0.075
1329,-0.075,-0.075
1330,-0.070,-0.070
1331,-0.065,-0.065
1332,-0.070,-0.065
1333,-0.070,-0.065
1334,-0.055,-0.065
1335,-0.060,-0.065
1336,-0.065,-0.065
1337,-0.060,-0.055
1338,-0.055,-0.045
1339,-0.050,-0.050
1340,-0.045,-0.055
1341,-0.045,-0.050
1342,-0.045,-0.045
1343,-0.040,-0.045
1344,-0.035,-0.045
1345,-0.020,-0.035
1346,-0.005,-0.025
1347,-0.005,-0.020
1348,-0.005,-0.015
1349,0.000,-0.010
1350,0.005,-0.005
1351,0.015,0.000
1352,0.030,0.005
1353,0.050,0.015
1354,0.065,0.025
1355,0.080,0.040
1356,0.090,0.050
1357,0.100,0.060
1358,0.110,0.070
1359,0.120,0.080
1360,0.130,0.090
1361,0.145,0.100
1362,0.155,0.105
1363,0.150,0.110
1364,0.145,0.115
1365,0.140,0.115
1366,0.135,0.115
1367,0.130,0.115
1368,0.120,0.110
1369,0.110,0.100
1370,0.095,0.085
1371,0.080,0.070
1372,0.055,0.045
1373,0.030,0.020
1374,0.010,0.010
1375,0.025,0.015
1376,-0.030,-0.025
1377,-0.045,-0.045
1378,-0.065,-0.060
1379,-0.085,-0.075
1380,-0.090,-0.085
1381,-0.095,-0.095
1382,-0.100,-0.105
1383,-0.105,-0.115
1384,-0.115,-0.120
1385,-0.125,-0.125
1386,-0.130,-0.130
1387,-0.135,-0.135
1388,-0.135,-0.140
1389,-0.135,-0.145
1390,-0.140,-0.145
1391,-0.145,-0.145
1392,-0.140,-0.145
1393,-0.135,-0.145
1394,-0.135,-0.145
1395,-0.135,-0.145
1396,-0.135,-0.145
1397,-0.130,-0.145
1398,-0.115,-0.140
1399,-0.105,-0.135
1400,-0.105,-0.130
1401,-0.105,-0.125
1402,-0.105,-0.125
1403,-0.105,-0.125
1404,-0.100,-0.125
1405,-0.095,-0.125
1406,-0.095,-0.125
1407,-0.085,-0.125
1408,-0.070,-0.120
1409,-0.065,-0.115
1410,-0.070,-0.115
1411,-0.075,-0.115
1412,-0.080,-0.115
1413,-0.085,-0.115
1414,-0.085,-0.115
1415,-0.085,-0.115
1416,-0.090,-0.115
1417,-0.095,-0.120
1418,-0.095,-0.125
1419,-0.105,-0.130
1420,-0.115,-0.135
1421,-0.110,-0.135
1422,-0.105,-0.135
1423,-0.110,-0.140
1424,-0.115,-0.145
1425,-0.115,-0.145
1426,-0.115,-0.145
1427,-0.120,-0.150
1428,-0.125,-0.155
1429,-0.120,-0.155
1430,-0.115,-0.155
1431,-0.115,-0.155
1432,-0.115,-0.155
1433,-0.120,-0.160
1434,-0.125,-0.165
1435,-0.125,-0.165
1436,-0.125,-0.165
1437,-0.125,-0.165
1438,-0.120,-0.165
1439,-0.110,-0.165
1440,-0.110,-0.165
1441,-0.120,-0.165
1442,-0.125,-0.165
1443,-0.125,-0.170
1444,-0.120,-0.175
1445,-0.110,-0.170
1446,-0.105,-0.165
1447,-0.100,-0.165
1448,-0.090,-0.165
1449,-0.080,-0.165
1450,-0.080,-0.160
1451,-0.090,-0.150
1452,-0.095,-0.145
1453,-0.090,-0.145
1454,-0.070,-0.145
1455,-0.050,-0.150
1456,-0.050,-0.155
1457,-0.060,-0.160
1458,-0.075,-0.165
1459,-0.095,-0.175
1460,-0.100,-0.185
1461,-0.105,-0.195
1462,-0.100,-0.200
1463,-0.095,-0.205
1464,-0.115,-0.200
1465,-0.135,-0.195
1466,-0.135,-0.190
1467,-0.135,-0.185
1468,-0.140,-0.190
1469,-0.145,-0.195
1470,-0.150,-0.195
1471,-0.155,-0.195
1472,-0.155,-0.195
1473,-0.155,-0.195
1474,-0.160,-0.200
1475,-0.165,-0.205
1476,-0.165,-0.200
1477,-0.160,-0.195
1478,-0.145,-0.195
1479,-0.135,-0.195
1480,-0.150,-0.195
1481,-0.160,-0.195
1482,-0.175,-0.190
1483,-0.185,-0.185
1484,-0.190,-0.185
1485,-0.120,-0.180
1486,0.000,-0.165
1487,0.260,-0.125
1488,0.585,-0.070
1489,0.720,0.025
1490,0.780,0.145
1491,0.545,0.175
1492,0.220,0.180
1493,-0.110,-0.065
1494,-0.435,-0.380
1495,-0.490,-0.670
1496,-0.500,-0.955
1497,-0.420,-0.865
1498,-0.320,-0.735
1499,-0.270,-0.555
1500,-0.315,-0.725
1501,-0.200,-0.290
1502,-0.185,-0.205
1503,-0.180,-0.185
1504,-0.175,-0.165
1505,-0.180,-0.160
1506,-0.185,-0.155
1507,-0.175,-0.155
1508,-0.165,-0.155
1509,-0.165,-0.150
1510,-0.165,-0.145
1511,-0.160,-0.140
1512,-0.155,-0.135
1513,-0.155,-0.135
1514,-0.155,-0.135
1515,-0.155,-0.130
1516,-0.155,-0.125
1517,-0.150,-0.120
1518,-0.145,-0.115
1519,-0.140,-0.120
1520,-0.135,-0.125
1521,-0.135,-0.120
1522,-0.135,-0.115
1523,-0.130,-0.110
1524,-0.125,-0.105
1525,-0.120,-0.100
1526,-0.115,-0.095
1527,-0.110,-0.095
1528,-0.105,-0.095
1529,-0.105,-0.090
1530,-0.105,-0.085
1531,-0.100,-0.080
1532,-0.085,-0.075
1533,-0.070,-0.075
1534,-0.065,-0.065
1535,-0.060,-0.050
1536,-0.050,-0.045
1537,-0.040,-0.040
1538,-0.025,-0.035
1539,-0.010,-0.030
1540,0.005,-0.020
1541,0.020,-0.010
1542,0.035,0.010
1543,0.045,0.025
1544,0.060,0.035
1545,0.075,0.045
1546,0.085,0.065
1547,0.095,0.085
1548,0.105,0.095
1549,0.115,0.105
1550,0.120,0.115
1551,0.125,0.125
1552,0.115,0.115
1553,0.105,0.105
1554,0.100,0.100
1555,0.090,0.095
1556,0.070,0.085
1557,0.050,0.070
1558,0.025,0.050
1559,0.000,0.030
1560,-0.015,0.010
1561,-0.030,-0.015
1562,-0.045,-0.040
1563,-0.065,-0.060
1564,-0.085,-0.070
1565,-0.100,-0.080
1566,-0.110,-0.095
1567,-0.115,-0.110
1568,-0.120,-0.125
1569,-0.130,-0.135
1570,-0.140,-0.140
1571,-0.145,-0.145
1572,-0.145,-0.150
1573,-0.145,-0.155
1574,-0.150,-0.155
1575,-0.155,-0.155
1576,-0.155,-0.155
1577,-0.155,-0.155
1578,-0.155,-0.160
1579,-0.155,-0.165
1580,-0.150,-0.160
1581,-0.145,-0.155
1582,-0.145,-0.155
1583,-0.145,-0.155
1584,-0.135,-0.145
1585,-0.130,-0.140
1586,-0.125,-0.135
1587,-0.110,-0.135
1588,-0.095,-0.135
1589,-0.095,-0.135
1590,-0.095,-0.135
1591,-0.090,-0.130
1592,-0.085,-0.125
1593,-0.085,-0.125
1594,-0.085,-0.125
1595,-0.080,-0.120
1596,-0.075,-0.115
1597,-0.080,-0.120
1598,-0.085,-0.125
1599,-0.090,-0.125
1600,-0.095,-0.125
1601,-0.100,-0.130
1602,-0.105,-0.135
1603,-0.105,-0.130
1604,-0.105,-0.125
1605,-0.100,-0.130
1606,-0.100,-0.135
1607,-0.110,-0.140
1608,-0.110,-0.145
1609,-0.100,-0.145
1610,-0.095,-0.145
1611,-0.100,-0.145
1612,-0.110,-0.145
1613,-0.120,-0.145
1614,-0.125,-0.145
1615,-0.120,-0.145
1616,-0.110,-0.145
1617,-0.100,-0.150
1618,-0.100,-0.155
1619,-0.110,-0.160
1620,-0.120,-0.165
1621,-0.130,-0.160
1622,-0.135,-0.155
1623,-0.130,-0.160
1624,-0.125,-0.165
1625,-0.125,-0.165
1626,-0.115,-0.155
1627,-0.115,-0.155
1628,-0.115,-0.155
1629,-0.115,-0.155
1630,-0.125,-0.155
1631,-0.135,-0.155
1632,-0.120,-0.160
1633,-0.105,-0.165
1634,-0.100,-0.160
1635,-0.095,-0.155
1636,-0.090,-0.155
1637,-0.085,-0.155
1638,-0.075,-0.145
1639,-0.065,-0.135
1640,-0.075,-0.130
1641,-0.080,-0.125
1642,-0.065,-0.120
1643,-0.055,-0.115
1644,-0.050,-0.120
1645,-0.045,-0.125
1646,-0.045,-0.120
1647,-0.045,-0.120
1648,-0.050,-0.135
1649,-0.055,-0.145
1650,-0.055,-0.145
1651,-0.060,-0.145
1652,-0.070,-0.145
1653,-0.085,-0.145
1654,-0.100,-0.150
1655,-0.115,-0.155
1656,-0.130,-0.155
1657,-0.125,-0.155
1658,-0.110,-0.150
1659,-0.115,-0.150
1660,-0.130,-0.160
1661,-0.135,-0.165
1662,-0.140,-0.165
1663,-0.145,-0.165
1664,-0.140,-0.165
1665,-0.135,-0.165
1666,-0.140,-0.165
1667,-0.130,-0.165
1668,-0.115,-0.165
1669,-0.125,-0.165
1670,-0.135,-0.165
1671,-0.140,-0.160
1672,-0.145,-0.155
1673,-0.150,-0.150
1674,-0.140,-0.145
1675,-0.030,-0.125
1676,0.115,-0.100
1677,0.390,-0.060
1678,0.595,0.000
1679,0.605,0.110
1680,0.515,0.180
1681,0.185,0.145
1682,-0.140,0.025
1683,-0.470,-0.270
1684,-0.635,-0.535
1685,-0.550,-0.765
1686,-0.455,-0.845
1687,-0.335,-0.725
1688,-0.250,-0.580
1689,-0.200,-0.405
1690,-0.170,-0.275
1691,-0.160,-0.185
1692,-0.150,-0.135
1693,-0.140,-0.115
1694,-0.135,-0.105
1695,-0.135,-0.105
1696,-0.135,-0.105
1697,-0.135,-0.105
1698,-0.125,-0.105
1699,-0.110,-0.100
1700,-0.110,-0.095
1701,-0.120,-0.095
1702,-0.120,-0.095
1703,-0.110,-0.090
1704,-0.105,-0.085
1705,-0.105,-0.080
1706,-0.100,-0.075
1707,-0.090,-0.075
1708,-0.090,-0.075
1709,-0.105,-0.075
1710,-0.095,-0.070
1711,-0.085,-0.065
1712,-0.075,-0.060
1713,-0.065,-0.055
1714,-0.055,-0.055
1715,-0.045,-0.055
1716,-0.055,-0.050
1717,-0.065,-0.045
1718,-0.045,-0.040
1719,-0.025,-0.035
1720,-0.030,-0.035
1721,-0.035,-0.035
1722,-0.025,-0.025
1723,-0.010,-0.015
1724,0.005,-0.010
1725,0.015,-0.005
1726,0.020,0.005
1727,0.030,0.015
1728,0.045,0.025
1729,0.055,0.035
1730,0.070,0.040
1731,0.085,0.050
1732,0.105,0.060
1733,0.115,0.070
1734,0.120,0.080
1735,0.140,0.095
1736,0.165,0.115
1737,0.175,0.125
1738,0.170,0.130
1739,0.170,0.135
1740,0.180,0.135
1741,0.185,0.135
1742,0.180,0.130
1743,0.175,0.125
1744,0.175,0.125
1745,0.160,0.120
1746,0.140,0.110
1747,0.120,0.095
1748,0.100,0.080
1749,0.085,0.060
1750,0.095,0.075
1751,0.050,0.015
1752,0.035,-0.005
1753,0.010,-0.025
1754,-0.015,-0.045
1755,-0.025,-0.060
1756,-0.035,-0.075
1757,-0.035,-0.085
1758,-0.035,-0.095
1759,-0.040,-0.090
1760,-0.045,-0.085
1761,-0.060,-0.090
1762,-0.075,-0.095
1763,-0.080,-0.105
1764,-0.085,-0.115
1765,-0.075,-0.115
1766,-0.065,-0.115
1767,-0.065,-0.120
1768,-0.065,-0.125
1769,-0.075,-0.120
1770,-0.085,-0.115
1771,-0.080,-0.120
1772,-0.075,-0.125
1773,-0.070,-0.125
1774,-0.065,-0.120
1775,-0.060,-0.110
1776,-0.055,-0.105
1777,-0.050,-0.100
1778,-0.045,-0.095
1779,-0.040,-0.095
1780,-0.035,-0.095
1781,-0.035,-0.090
1782,-0.035,-0.085
1783,-0.035,-0.080
1784,-0.030,-0.075
1785,-0.020,-0.070
1786,-0.015,-0.065
1787,-0.020,-0.070
1788,-0.025,-0.075
1789,-0.030,-0.075
1790,-0.035,-0.075
1791,-0.030,-0.070
1792,-0.030,-0.065
1793,-0.035,-0.065
1794,-0.040,-0.070
1795,-0.045,-0.075
1796,-0.040,-0.075
1797,-0.035,-0.075
1798,-0.035,-0.075
1799,-0.035,-0.075
1800,-0.045,-0.075
1801,-0.055,-0.075
1802,-0.060,-0.075
1803,-0.065,-0.075
1804,-0.060,-0.080
1805,-0.055,-0.085
1806,-0.055,-0.080
1807,-0.055,-0.075
1808,-0.060,-0.075
1809,-0.065,-0.075
1810,-0.065,-0.075
1811,-0.065,-0.075
1812,-0.065,-0.080
1813,-0.065,-0.085
1814,-0.065,-0.080
1815,-0.065,-0.075
1816,-0.060,-0.075
1817,-0.055,-0.075
1818,-0.055,-0.075
1819,-0.055,-0.075
1820,-0.055,-0.070
1821,-0.045,-0.065
1822,-0.030,-0.060
1823,-0.025,-0.055
1824,-0.020,-0.050
1825,-0.015,-0.045
1826,-0.020,-0.040
1827,-0.015,-0.035
1828,0.000,-0.030
1829,0.005,-0.025
1830,0.005,-0.025
1831,0.005,-0.030
1832,0.000,-0.040
1833,-0.005,-0.050
1834,-0.015,-0.065
1835,-0.020,-0.070
1836,-0.025,-0.075
1837,-0.030,-0.075
1838,-0.035,-0.075
1839,-0.050,-0.075
1840,-0.065,-0.075
1841,-0.075,-0.075
1842,-0.085,-0.075
1843,-0.090,-0.080
1844,-0.095,-0.085
1845,-0.100,-0.085
1846,-0.105,-0.085
1847,-0.100,-0.090
1848,-0.095,-0.095
1849,-0.100,-0.095
1850,-0.105,-0.095
1851,-0.105,-0.095
1852,-0.105,-0.095
1853,-0.105,-0.090
1854,-0.105,-0.085
1855,-0.105,-0.085
1856,-0.105,-0.085
1857,-0.110,-0.090
1858,-0.115,-0.090
1859,-0.120,-0.080
1860,-0.035,-0.070
1861,0.115,-0.060
1862,0.380,-0.015
1863,0.700,0.045
1864,0.715,0.145
1865,0.605,0.265
1866,0.325,0.255
1867,0.000,0.200
1868,-0.280,-0.080
1869,-0.545,-0.405
1870,-0.495,-0.610
1871,-0.390,-0.795
1872,-0.300,-0.665
1873,-0.210,-0.495
1874,-0.175,-0.335
1875,-0.205,-0.485
1876,-0.120,-0.120
1877,-0.105,-0.065
1878,-0.110,-0.050
1879,-0.115,-0.035
1880,-0.115,-0.040
1881,-0.115,-0.045
1882,-0.110,-0.045
1883,-0.105,-0.045
1884,-0.100,-0.035
1885,-0.095,-0.025
1886,-0.095,-0.030
1887,-0.095,-0.035
1888,-0.085,-0.035
1889,-0.075,-0.035
1890,-0.075,-0.025
1891,-0.075,-0.015
1892,-0.065,-0.010
1893,-0.055,-0.005
1894,-0.055,-0.010
1895,-0.055,-0.015
1896,-0.040,-0.010
1897,-0.035,-0.005
1898,-0.030,0.000
1899,-0.025,0.010
1900,-0.025,0.020
1901,-0.025,0.025
1902,-0.020,0.020
1903,-0.015,0.015
1904,-0.015,0.020
1905,-0.010,0.030
1906,0.000,0.040
1907,0.010,0.045
1908,0.020,0.045
1909,0.025,0.050
1910,0.030,0.060
1911,0.040,0.065
1912,0.050,0.070
1913,0.060,0.080
1914,0.070,0.090
1915,0.080,0.105
1916,0.090,0.120
1917,0.110,0.135
1918,0.125,0.145
1919,0.140,0.150
1920,0.155,0.155
1921,0.165,0.170
1922,0.175,0.185
1923,0.195,0.195
1924,0.215,0.205
1925,0.210,0.215
1926,0.205,0.225
1927,0.195,0.225
1928,0.185,0.225
1929,0.185,0.220
1930,0.185,0.215
1931,0.165,0.205
1932,0.150,0.190
1933,0.135,0.175
1934,0.120,0.155
1935,0.100,0.130
1936,0.075,0.110
1937,0.050,0.090
1938,0.030,0.065
1939,0.020,0.045
1940,0.005,0.025
1941,-0.015,0.005
1942,-0.030,-0.010
1943,-0.040,-0.020
1944,-0.045,-0.030
1945,-0.045,-0.040
1946,-0.045,-0.045
1947,-0.050,-0.050
1948,-0.055,-0.055
1949,-0.060,-0.060
1950,-0.065,-0.070
1951,-0.065,-0.080
1952,-0.065,-0.085
1953,-0.060,-0.085
1954,-0.055,-0.085
1955,-0.055,-0.085
1956,-0.055,-0.080
1957,-0.055,-0.070
1958,-0.055,-0.065
1959,-0.045,-0.075
1960,-0.045,-0.070
1961,-0.045,-0.065
1962,-0.035,-0.065
1963,-0.025,-0.065
1964,-0.025,-0.060
1965,-0.025,-0.055
1966,-0.025,-0.055
1967,-0.025,-0.055
1968,-0.015,-0.055
1969,-0.005,-0.055
1970,-0.005,-0.045
1971,-0.005,-0.035
1972,-0.010,-0.035
1973,-0.015,-0.035
1974,-0.010,-0.035
1975,-0.005,-0.035
1976,-0.005,-0.040
1977,-0.005,-0.045
1978,-0.005,-0.040
1979,-0.005,-0.035
1980,-0.010,-0.040
1981,-0.015,-0.045
1982,-0.015,-0.050
1983,-0.015,-0.055
1984,-0.020,-0.055
1985,-0.025,-0.055
1986,-0.025,-0.055
1987,-0.025,-0.055
1988,-0.020,-0.060
1989,-0.020,-0.065
1990,-0.030,-0.060
1991,-0.030,-0.055
1992,-0.020,-0.060
1993,-0.015,-0.065
1994,-0.020,-0.065
1995,-0.025,-0.065
1996,-0.030,-0.065
1997,-0.035,-0.065
1998,-0.035,-0.065
1999,-0.035,-0.065
2000,-0.035,-0.065
2001,-0.025,-0.065
2002,-0.025,-0.065
2003,-0.025,-0.065
2004,-0.025,-0.065
2005,-0.025,-0.065
2006,-0.025,-0.065
2007,-0.015,-0.065
2008,-0.005,-0.065
2009,0.005,-0.055
2010,0.015,-0.045
2011,0.020,-0.045
2012,0.025,-0.045
2013,0.015,-0.035
2014,0.005,-0.025
2015,0.015,-0.025
2016,0.030,-0.025
2017,0.045,-0.025
2018,0.050,-0.025
2019,0.035,-0.030
2020,0.025,-0.035
2021,0.020,-0.050
2022,0.010,-0.055
2023,0.000,-0.060
2024,-0.005,-0.065
2025,0.000,-0.065
2026,0.000,-0.070
2027,-0.015,-0.080
2028,-0.025,-0.085
2029,-0.030,-0.080
2030,-0.035,-0.075
2031,-0.040,-0.080
2032,-0.045,-0.085
2033,-0.050,-0.080
2034,-0.055,-0.075
2035,-0.055,-0.080
2036,-0.055,-0.085
2037,-0.055,-0.085
2038,-0.055,-0.085
2039,-0.050,-0.085
2040,-0.045,-0.085
2041,-0.050,-0.085
2042,-0.055,-0.085
2043,-0.055,-0.085
2044,-0.060,-0.085
2045,-0.065,-0.085
2046,-0.030,-0.070
2047,0.035,-0.055
2048,0.285,-0.030
2049,0.535,0.010
2050,0.770,0.115
2051,0.885,0.205
2052,0.560,0.250
2053,0.230,0.235
2054,-0.095,0.035
2055,-0.345,-0.205
2056,-0.410,-0.535
2057,-0.415,-0.740
2058,-0.305,-0.720
2059,-0.215,-0.630
2060,-0.160,-0.435
2061,-0.125,-0.280
2062,-0.115,-0.170
2063,-0.105,-0.100
2064,-0.105,-0.070
2065,-0.105,-0.055
2066,-0.100,-0.050
2067,-0.095,-0.045
2068,-0.090,-0.050
2069,-0.085,-0.055
2070,-0.085,-0.055
2071,-0.085,-0.055
2072,-0.080,-0.050
2073,-0.075,-0.045
2074,-0.075,-0.045
2075,-0.075,-0.045
2076,-0.070,-0.045
2077,-0.065,-0.045
2078,-0.060,-0.040
2079,-0.055,-0.035
2080,-0.060,-0.035
2081,-0.065,-0.035
2082,-0.070,-0.030
2083,-0.070,-0.025
2084,-0.055,-0.025
2085,-0.040,-0.025
2086,-0.025,-0.025
2087,-0.030,-0.020
2088,-0.035,-0.015
2089,-0.030,-0.015
2090,-0.025,-0.015
2091,-0.010,-0.010
2092,0.005,-0.005
2093,0.000,0.000
2094,-0.005,0.005
2095,0.005,0.010
2096,0.015,0.015
2097,0.025,0.015
2098,0.040,0.015
2099,0.055,0.020
2100,0.065,0.025
2101,0.070,0.035
2102,0.075,0.050
2103,0.085,0.070
2104,0.100,0.085
2105,0.125,0.085
2106,0.145,0.090
2107,0.165,0.100
2108,0.175,0.110
2109,0.180,0.125
2110,0.185,0.135
2111,0.190,0.140
2112,0.195,0.145
2113,0.200,0.145
2114,0.205,0.145
2115,0.200,0.140
2116,0.195,0.135
2117,0.195,0.130
2118,0.170,0.120
2119,0.135,0.110
2120,0.125,0.100
2121,0.120,0.090
2122,0.090,0.070
2123,0.060,0.050
2124,0.045,0.030
2125,0.055,0.045
2126,0.015,-0.005
2127,0.005,-0.015
2128,-0.010,-0.025
2129,-0.025,-0.035
2130,-0.035,-0.050
2131,-0.045,-0.065
2132,-0.045,-0.070
2133,-0.045,-0.075
2134,-0.040,-0.075
2135,-0.035,-0.075
2136,-0.060,-0.075
2137,-0.075,-0.075
2138,-0.075,-0.080
2139,-0.075,-0.085
2140,-0.070,-0.090
2141,-0.060,-0.095
2142,-0.045,-0.085
2143,-0.035,-0.075
2144,-0.040,-0.075
2145,-0.045,-0.075
2146,-0.045,-0.075
2147,-0.045,-0.075
2148,-0.045,-0.070
2149,-0.045,-0.065
2150,-0.050,-0.065
2151,-0.050,-0.065
2152,-0.035,-0.065
2153,-0.025,-0.065
2154,-0.030,-0.065
2155,-0.030,-0.065
2156,-0.020,-0.060
2157,-0.015,-0.055
2158,-0.010,-0.060
2159,-0.015,-0.065
2160,-0.030,-0.065
2161,-0.035,-0.065
2162,-0.040,-0.065
2163,-0.040,-0.065
2164,-0.030,-0.070
2165,-0.025,-0.075
2166,-0.020,-0.070
2167,-0.025,-0.070
2168,-0.035,-0.075
2169,-0.040,-0.075
2170,-0.045,-0.075
2171,-0.040,-0.075
2172,-0.035,-0.075
2173,-0.030,-0.075
2174,-0.025,-0.075
2175,-0.035,-0.080
2176,-0.045,-0.085
2177,-0.040,-0.085
2178,-0.035,-0.085
2179,-0.040,-0.085
2180,-0.045,-0.085
2181,-0.055,-0.080
2182,-0.060,-0.075
2183,-0.045,-0.080
2184,-0.035,-0.085
2185,-0.040,-0.090
2186,-0.045,-0.095
2187,-0.045,-0.085
2188,-0.050,-0.075
2189,-0.060,-0.075
2190,-0.050,-0.075
2191,-0.020,-0.075
2192,-0.005,-0.075
2193,-0.010,-0.080
2194,-0.015,-0.080
2195,-0.020,-0.070
2196,-0.015,-0.060
2197,0.000,-0.050
2198,-0.010,-0.045
2199,-0.035,-0.040
2200,-0.025,-0.035
2201,0.000,-0.040
2202,0.010,-0.045
2203,0.020,-0.050
2204,0.025,-0.055
2205,0.020,-0.050
2206,0.005,-0.050
2207,-0.010,-0.060
2208,-0.015,-0.065
2209,-0.025,-0.075
2210,-0.030,-0.085
2211,-0.035,-0.095
2212,-0.035,-0.085
2213,-0.035,-0.075
2214,-0.040,-0.075
2215,-0.045,-0.075
2216,-0.060,-0.080
2217,-0.075,-0.085
2218,-0.070,-0.090
2219,-0.065,-0.095
2220,-0.060,-0.090
2221,-0.055,-0.085
2222,-0.060,-0.085
2223,-0.065,-0.085
2224,-0.060,-0.090
2225,-0.055,-0.095
2226,-0.060,-0.095
2227,-0.065,-0.095
2228,-0.065,-0.090
2229,-0.070,-0.085
2230,-0.095,-0.085
2231,-0.085,-0.080
2232,-0.035,-0.070
2233,0.140,-0.060
2234,0.410,-0.045
2235,0.650,0.025
2236,0.870,0.130
2237,0.735,0.215
2238,0.415,0.290
2239,0.090,0.210
2240,-0.235,0.060
2241,-0.435,-0.205
2242,-0.595,-0.505
2243,-0.520,-0.630
2244,-0.385,-0.710
2245,-0.280,-0.605
2246,-0.175,-0.460
2247,-0.140,-0.320
2248,-0.110,-0.175
2249,-0.095,-0.115
2250,-0.105,-0.165
2251,-0.075,-0.045
2252,-0.075,-0.035
2253,-0.075,-0.035
2254,-0.075,-0.035
2255,-0.075,-0.040
2256,-0.075,-0.045
2257,-0.070,-0.040
2258,-0.065,-0.035
2259,-0.060,-0.035
2260,-0.055,-0.035
2261,-0.055,-0.035
2262,-0.055,-0.035
2263,-0.055,-0.030
2264,-0.055,-0.025
2265,-0.050,-0.025
2266,-0.045,-0.025
2267,-0.040,-0.020
2268,-0.035,-0.015
2269,-0.035,-0.015
2270,-0.035,-0.015
2271,-0.035,-0.015
2272,-0.035,-0.015
2273,-0.030,-0.010
2274,-0.020,-0.005
2275,-0.010,0.000
2276,-0.005,0.005
2277,-0.005,0.005
2278,0.000,0.005
2279,0.010,0.005
2280,0.020,0.005
2281,0.030,0.005
2282,0.035,0.010
2283,0.040,0.020
2284,0.045,0.030
2285,0.050,0.040
2286,0.065,0.045
2287,0.080,0.045
2288,0.090,0.055
2289,0.100,0.070
2290,0.115,0.085
2291,0.130,0.100
2292,0.145,0.110
2293,0.155,0.115
2294,0.165,0.125
2295,0.175,0.135
2296,0.180,0.145
2297,0.185,0.155
2298,0.190,0.160
2299,0.195,0.165
2300,0.190,0.165
2301,0.185,0.165
2302,0.170,0.155
2303,0.155,0.145
2304,0.140,0.135
2305,0.125,0.125
2306,0.105,0.105
2307,0.090,0.090
2308,0.065,0.065
2309,0.040,0.040
2310,0.025,0.020
2311,0.015,0.005
2312,0.005,-0.005
2313,-0.010,-0.020
2314,-0.020,-0.035
2315,-0.030,-0.045
2316,-0.040,-0.050
2317,-0.050,-0.060
2318,-0.060,-0.070
2319,-0.065,-0.075
2320,-0.065,-0.075
2321,-0.065,-0.075
2322,-0.065,-0.080
2323,-0.065,-0.085
2324,-0.070,-0.090
2325,-0.075,-0.095
2326,-0.075,-0.090
2327,-0.070,-0.085
2328,-0.060,-0.085
2329,-0.055,-0.085
2330,-0.055,-0.085
2331,-0.055,-0.085
2332,-0.050,-0.085
2333,-0.045,-0.085
2334,-0.045,-0.075
2335,-0.035,-0.070
2336,-0.025,-0.065
2337,-0.020,-0.065
2338,-0.015,-0.065
2339,-0.010,-0.060
2340,-0.005,-0.055
2341,-0.010,-0.055
2342,-0.015,-0.055
2343,-0.010,-0.055
2344,-0.005,-0.055
2345,0.000,-0.050
2346,0.005,-0.045
2347,0.005,-0.045
2348,0.005,-0.045
2349,-0.005,-0.050
2350,-0.015,-0.055
2351,-0.015,-0.055
2352,-0.015,-0.055
2353,-0.015,-0.060
2354,-0.015,-0.065
2355,-0.020,-0.070
2356,-0.025,-0.075
2357,-0.030,-0.070
2358,-0.035,-0.065
2359,-0.030,-0.070
2360,-0.025,-0.075
2361,-0.025,-0.075
2362,-0.025,-0.075
2363,-0.025,-0.075
2364,-0.025,-0.080
2365,-0.025,-0.090
2366,-0.025,-0.095
2367,-0.025,-0.095
2368,-0.025,-0.095
2369,-0.030,-0.090
2370,-0.035,-0.085
2371,-0.030,-0.090
2372,-0.025,-0.095
2373,-0.030,-0.090
2374,-0.030,-0.085
2375,-0.035,-0.085
2376,-0.010,-0.085
2377,-0.005,-0.085
2378,-0.005,-0.080
2379,-0.005,-0.075
2380,0.010,-0.075
2381,0.025,-0.075
2382,0.020,-0.070
2383,0.015,-0.065
2384,0.020,-0.055
2385,0.025,-0.045
2386,0.040,-0.055
2387,0.055,-0.065
2388,0.050,-0.065
2389,0.045,-0.065
2390,0.040,-0.070
2391,0.035,-0.075
2392,0.035,-0.080
2393,0.035,-0.085
2394,0.025,-0.090
2395,0.010,-0.095
2396,-0.015,-0.110
2397,-0.025,-0.115
2398,-0.030,-0.110
2399,-0.040,-0.105
2400,-0.050,-0.110
2401,-0.055,-0.115
2402,-0.055,-0.120
2403,-0.055,-0.125
2404,-0.055,-0.130
2405,-0.055,-0.135
2406,-0.060,-0.135
2407,-0.065,-0.135
2408,-0.060,-0.130
2409,-0.055,-0.125
2410,-0.055,-0.125
2411,-0.055,-0.125
2412,-0.055,-0.125
2413,-0.065,-0.125
2414,-0.080,-0.130
2415,-0.075,-0.130
2416,-0.060,-0.120
2417,0.170,-0.100
2418,0.400,-0.085
2419,0.695,0.010
2420,0.945,0.100
2421,0.675,0.175
2422,0.395,0.235
2423,0.070,0.120
2424,-0.230,-0.030
2425,-0.385,-0.355
2426,-0.480,-0.635
2427,-0.365,-0.745
2428,-0.260,-0.775
2429,-0.185,-0.590
2430,-0.130,-0.415
2431,-0.105,-0.290
2432,-0.085,-0.195
2433,-0.085,-0.150
2434,-0.085,-0.120
2435,-0.085,-0.105
2436,-0.085,-0.095
2437,-0.080,-0.100
2438,-0.075,-0.105
2439,-0.070,-0.110
2440,-0.065,-0.115
2441,-0.070,-0.110
2442,-0.070,-0.105
2443,-0.060,-0.100
2444,-0.055,-0.095
2445,-0.050,-0.090
2446,-0.045,-0.080
2447,-0.045,-0.070
2448,-0.045,-0.065
2449,-0.040,-0.070
2450,-0.035,-0.075
2451,-0.035,-0.075
2452,-0.035,-0.075
2453,-0.030,-0.070
2454,-0.025,-0.065
2455,-0.020,-0.060
2456,-0.015,-0.055
2457,-0.015,-0.050
2458,-0.015,-0.045
2459,-0.005,-0.035
2460,0.000,-0.030
2461,0.005,-0.025
2462,0.010,-0.025
2463,0.015,-0.025
2464,0.025,-0.020
2465,0.035,-0.015
2466,0.035,-0.005
2467,0.035,0.005
2468,0.055,0.005
2469,0.075,0.005
2470,0.090,0.020
2471,0.105,0.035
2472,0.115,0.050
2473,0.125,0.065
2474,0.135,0.075
2475,0.150,0.085
2476,0.170,0.095
2477,0.190,0.105
2478,0.210,0.115
2479,0.225,0.125
2480,0.225,0.140
2481,0.225,0.145
2482,0.230,0.150
2483,0.235,0.155
2484,0.230,0.150
2485,0.220,0.140
2486,0.210,0.130
2487,0.190,0.125
2488,0.165,0.120
2489,0.145,0.105
2490,0.120,0.080
2491,0.100,0.060
2492,0.070,0.040
2493,0.055,0.020
2494,0.040,0.000
2495,0.025,-0.020
2496,0.010,-0.040
2497,-0.005,-0.055
2498,-0.020,-0.070
2499,-0.025,-0.080
2500,-0.025,-0.075
2501,-0.050,-0.095
2502,-0.065,-0.095
2503,-0.075,-0.100
2504,-0.085,-0.105
2505,-0.080,-0.115
2506,-0.075,-0.125
2507,-0.070,-0.120
2508,-0.065,-0.115
2509,-0.075,-0.115
2510,-0.085,-0.115
2511,-0.080,-0.115
2512,-0.075,-0.115
2513,-0.075,-0.115
2514,-0.075,-0.115
2515,-0.075,-0.115
2516,-0.075,-0.115
2517,-0.065,-0.105
2518,-0.055,-0.095
2519,-0.045,-0.095
2520,-0.035,-0.095
2521,-0.040,-0.095
2522,-0.045,-0.095
2523,-0.040,-0.090
2524,-0.035,-0.085
2525,-0.030,-0.085
2526,-0.030,-0.085
2527,-0.040,-0.085
2528,-0.045,-0.085
2529,-0.040,-0.090
2530,-0.040,-0.095
2531,-0.050,-0.095
2532,-0.055,-0.095
2533,-0.050,-0.095
2534,-0.045,-0.095
2535,-0.045,-0.100
2536,-0.045,-0.105
2537,-0.045,-0.110
2538,-0.050,-0.115
2539,-0.060,-0.110
2540,-0.065,-0.105
2541,-0.065,-0.105
2542,-0.060,-0.110
2543,-0.055,-0.115
2544,-0.050,-0.120
2545,-0.045,-0.125
2546,-0.045,-0.120
2547,-0.045,-0.115
2548,-0.060,-0.115
2549,-0.075,-0.115
2550,-0.070,-0.120
2551,-0.065,-0.125
2552,-0.060,-0.125
2553,-0.055,-0.125
2554,-0.045,-0.130
2555,-0.035,-0.135
2556,-0.035,-0.125
2557,-0.035,-0.115
2558,-0.035,-0.120
2559,-0.035,-0.125
2560,-0.040,-0.115
2561,-0.045,-0.105
2562,-0.035,-0.100
2563,-0.025,-0.095
2564,-0.025,-0.090
2565,-0.020,-0.085
2566,-0.005,-0.085
2567,0.005,-0.085
2568,0.005,-0.085
2569,0.010,-0.085
2570,0.030,-0.085
2571,0.025,-0.085
2572,0.010,-0.085
2573,0.000,-0.090
2574,-0.010,-0.100
2575,-0.020,-0.115
2576,-0.030,-0.130
2577,-0.045,-0.135
2578,-0.060,-0.140
2579,-0.065,-0.145
2580,-0.065,-0.145
2581,-0.070,-0.145
2582,-0.080,-0.150
2583,-0.085,-0.155
2584,-0.085,-0.165
2585,-0.095,-0.170
2586,-0.105,-0.175
2587,-0.105,-0.170
2588,-0.105,-0.165
2589,-0.090,-0.165
2590,-0.075,-0.165
2591,-0.075,-0.160
2592,-0.075,-0.155
2593,-0.085,-0.155
2594,-0.095,-0.155
2595,-0.090,-0.155
2596,-0.085,-0.155
2597,-0.095,-0.150
2598,-0.070,-0.140
2599,0.045,-0.125
2600,0.235,-0.100
2601,0.540,-0.060
2602,0.695,0.010
2603,0.645,0.125
2604,0.460,0.165
2605,0.130,0.110
2606,-0.190,-0.050
2607,-0.510,-0.305
2608,-0.590,-0.530
2609,-0.495,-0.735
2610,-0.385,-0.745
2611,-0.275,-0.635
2612,-0.200,-0.485
2613,-0.145,-0.325
2614,-0.125,-0.220
2615,-0.120,-0.135
2616,-0.110,-0.100
2617,-0.100,-0.080
2618,-0.095,-0.075
2619,-0.100,-0.080
2620,-0.090,-0.085
2621,-0.070,-0.085
2622,-0.065,-0.085
2623,-0.065,-0.085
2624,-0.065,-0.085
2625,-0.065,-0.085
2626,-0.070,-0.075
2627,-0.065,-0.075
2628,-0.065,-0.070
2629,-0.065,-0.065
2630,-0.060,-0.070
2631,-0.055,-0.075
2632,-0.045,-0.070
2633,-0.035,-0.065
2634,-0.035,-0.060
2635,-0.035,-0.055
2636,-0.030,-0.050
2637,-0.025,-0.045
2638,-0.025,-0.050
2639,-0.025,-0.055
2640,-0.015,-0.050
2641,0.000,-0.045
2642,0.020,-0.040
2643,0.035,-0.035
2644,0.025,-0.035
2645,0.015,-0.035
2646,0.020,-0.020
2647,0.030,-0.015
2648,0.045,-0.010
2649,0.060,-0.005
2650,0.075,0.000
2651,0.085,0.010
2652,0.085,0.020
2653,0.095,0.025
2654,0.115,0.030
2655,0.135,0.045
2656,0.150,0.060
2657,0.170,0.070
2658,0.190,0.080
2659,0.205,0.090
2660,0.220,0.100
2661,0.225,0.110
2662,0.230,0.120
2663,0.235,0.125
2664,0.235,0.125
2665,0.230,0.125
2666,0.220,0.125
2667,0.200,0.115
2668,0.185,0.105
2669,0.175,0.095
2670,0.165,0.085
2671,0.145,0.065
2672,0.125,0.045
2673,0.100,0.025
2674,0.070,0.005
2675,0.040,-0.005
2676,0.015,-0.015
2677,0.005,-0.035
2678,-0.005,-0.055
2679,-0.010,-0.070
2680,-0.015,-0.085
2681,-0.025,-0.090
2682,-0.035,-0.095
2683,-0.045,-0.100
2684,-0.055,-0.105
2685,-0.060,-0.110
2686,-0.065,-0.115
2687,-0.065,-0.115
2688,-0.065,-0.115
2689,-0.070,-0.120
2690,-0.075,-0.125
2691,-0.075,-0.120
2692,-0.075,-0.115
2693,-0.075,-0.120
2694,-0.075,-0.125
2695,-0.070,-0.125
2696,-0.065,-0.125
2697,-0.060,-0.120
2698,-0.055,-0.115
2699,-0.055,-0.115
2700,-0.055,-0.115
2701,-0.050,-0.110
2702,-0.040,-0.105
2703,-0.030,-0.105
2704,-0.025,-0.100
2705,-0.025,-0.090
2706,-0.025,-0.085
2707,-0.025,-0.085
2708,-0.025,-0.085
2709,-0.025,-0.085
2710,-0.030,-0.085
2711,-0.035,-0.085
2712,-0.035,-0.085
2713,-0.035,-0.085
2714,-0.040,-0.085
2715,-0.045,-0.085
2716,-0.040,-0.085
2717,-0.035,-0.085
2718,-0.045,-0.090
2719,-0.055,-0.095
2720,-0.050,-0.090
2721,-0.045,-0.085
2722,-0.030,-0.090
2723,-0.015,-0.095
2724,-0.015,-0.090
2725,-0.015,-0.085
2726,-0.010,-0.085
2727,-0.005,-0.080
2728,-0.015,-0.065
2729,-0.020,-0.055
2730,0.005,-0.060
2731,0.015,-0.070
2732,0.015,-0.080
2733,0.010,-0.085
2734,0.000,-0.085
2735,-0.010,-0.090
2736,-0.020,-0.100
2737,-0.025,-0.115
2738,-0.030,-0.130
2739,-0.035,-0.135
2740,-0.040,-0.135
2741,-0.055,-0.135
2742,-0.070,-0.135
2743,-0.080,-0.135
2744,-0.090,-0.140
2745,-0.100,-0.145
2746,-0.110,-0.145
2747,-0.115,-0.145
2748,-0.120,-0.150
2749,-0.125,-0.155
2750,-0.125,-0.155
2751,-0.115,-0.160
2752,-0.115,-0.155
2753,-0.120,-0.150
2754,-0.125,-0.145
2755,-0.125,-0.150
2756,-0.125,-0.155
2757,-0.125,-0.150
2758,-0.125,-0.145
2759,-0.135,-0.150
2760,-0.145,-0.155
2761,-0.160,-0.150
2762,-0.155,-0.145
2763,-0.080,-0.135
2764,0.080,-0.115
2765,0.405,-0.080
2766,0.665,-0.015
2767,0.815,0.105
2768,0.770,0.180
2769,0.440,0.200
2770,0.115,0.100
2771,-0.215,-0.150
2772,-0.415,-0.430
2773,-0.505,-0.740
2774,-0.485,-0.820
2775,-0.370,-0.715
2776,-0.290,-0.570
2777,-0.230,-0.395
2778,-0.195,-0.280
2779,-0.180,-0.195
2780,-0.175,-0.150
2781,-0.170,-0.125
2782,-0.165,-0.115
2783,-0.160,-0.110
2784,-0.155,-0.105
2785,-0.160,-0.110
2786,-0.165,-0.115
2787,-0.160,-0.120
2788,-0.155,-0.125
2789,-0.150,-0.120
2790,-0.145,-0.115
2791,-0.145,-0.110
2792,-0.140,-0.110
2793,-0.135,-0.115
2794,-0.140,-0.110
2795,-0.145,-0.105
2796,-0.140,-0.105
2797,-0.135,-0.105
2798,-0.130,-0.100
2799,-0.125,-0.095
2800,-0.120,-0.095
2801,-0.115,-0.095
2802,-0.120,-0.095
2803,-0.125,-0.095
2804,-0.110,-0.095
2805,-0.095,-0.095
2806,-0.090,-0.085
2807,-0.085,-0.075
2808,-0.085,-0.075
2809,-0.085,-0.075
2810,-0.075,-0.070
2811,-0.065,-0.065
2812,-0.055,-0.055
2813,-0.045,-0.040
2814,-0.040,-0.030
2815,-0.030,-0.020
2816,-0.015,-0.010
2817,0.000,-0.005
2818,0.015,0.000
2819,0.030,0.010
2820,0.050,0.020
2821,0.065,0.035
2822,0.080,0.050
2823,0.095,0.060
2824,0.110,0.070
2825,0.115,0.080
2826,0.115,0.090
2827,0.115,0.095
2828,0.120,0.095
2829,0.125,0.095
2830,0.120,0.095
2831,0.105,0.085
2832,0.090,0.070
2833,0.065,0.060
2834,0.035,0.045
2835,0.010,0.025
2836,-0.015,0.005
2837,-0.040,-0.020
2838,-0.065,-0.045
2839,-0.090,-0.070
2840,-0.115,-0.095
2841,-0.120,-0.110
2842,-0.125,-0.125
2843,-0.135,-0.140
2844,-0.145,-0.155
2845,-0.150,-0.160
2846,-0.155,-0.165
2847,-0.170,-0.170
2848,-0.185,-0.175
2849,-0.190,-0.180
2850,-0.195,-0.185
2851,-0.195,-0.190
2852,-0.195,-0.195
2853,-0.195,-0.195
2854,-0.195,-0.195
2855,-0.190,-0.195
2856,-0.185,-0.195
2857,-0.185,-0.195
2858,-0.185,-0.195
2859,-0.180,-0.195
2860,-0.175,-0.195
2861,-0.175,-0.190
2862,-0.170,-0.185
2863,-0.160,-0.180
2864,-0.155,-0.175
2865,-0.155,-0.175
2866,-0.155,-0.175
2867,-0.150,-0.170
2868,-0.145,-0.165
2869,-0.140,-0.165
2870,-0.135,-0.165
2871,-0.140,-0.165
2872,-0.145,-0.165
2873,-0.140,-0.165
2874,-0.135,-0.165
2875,-0.135,-0.165
2876,-0.145,-0.160
2877,-0.155,-0.165
2878,-0.150,-0.165
2879,-0.145,-0.165
2880,-0.150,-0.170
2881,-0.155,-0.175
2882,-0.160,-0.180
2883,-0.165,-0.185
2884,-0.160,-0.185
2885,-0.155,-0.185
2886,-0.165,-0.190
2887,-0.175,-0.195
2888,-0.175,-0.195
2889,-0.175,-0.195
2890,-0.180,-0.200
2891,-0.180,-0.205
2892,-0.165,-0.205
2893,-0.155,-0.205
2894,-0.150,-0.215
2895,-0.145,-0.225
2896,-0.140,-0.210
2897,-0.135,-0.205
2898,-0.130,-0.205
2899,-0.130,-0.200
2900,-0.145,-0.190
2901,-0.155,-0.185
2902,-0.155,-0.190
2903,-0.150,-0.200
2904,-0.140,-0.210
2905,-0.135,-0.215
2906,-0.140,-0.210
2907,-0.145,-0.205
2908,-0.150,-0.210
2909,-0.155,-0.220
2910,-0.155,-0.230
2911,-0.155,-0.235
2912,-0.155,-0.240
2913,-0.160,-0.245
2914,-0.170,-0.245
2915,-0.180,-0.240
2916,-0.190,-0.230
2917,-0.200,-0.230
2918,-0.205,-0.235
2919,-0.210,-0.235
2920,-0.215,-0.235
2921,-0.215,-0.235
2922,-0.215,-0.235
2923,-0.225,-0.235
2924,-0.235,-0.235
2925,-0.230,-0.235
2926,-0.225,-0.235
2927,-0.225,-0.240
2928,-0.225,-0.245
2929,-0.220,-0.240
2930,-0.215,-0.235
2931,-0.220,-0.235
2932,-0.230,-0.235
2933,-0.250,-0.235
2934,-0.205,-0.230
2935,-0.050,-0.215
2936,0.180,-0.175
2937,0.505,-0.110
2938,0.675,-0.025
2939,0.695,0.085
2940,0.530,0.125
2941,0.200,0.100
2942,-0.125,-0.105
2943,-0.455,-0.425
2944,-0.575,-0.700
2945,-0.575,-0.945
2946,-0.505,-0.925
2947,-0.405,-0.775
2948,-0.340,-0.620
2949,-0.290,-0.460
2950,-0.270,-0.360
2951,-0.260,-0.270
2952,-0.250,-0.235
2953,-0.240,-0.210
2954,-0.215,-0.205
2955,-0.190,-0.200
2956,-0.190,-0.195
2957,-0.200,-0.200
2958,-0.210,-0.200
2959,-0.225,-0.185
2960,-0.220,-0.185
2961,-0.215,-0.185
2962,-0.210,-0.185
2963,-0.205,-0.185
2964,-0.210,-0.190
2965,-0.215,-0.195
2966,-0.195,-0.190
2967,-0.175,-0.185
2968,-0.185,-0.185
2969,-0.195,-0.185
2970,-0.195,-0.175
2971,-0.195,-0.165
2972,-0.185,-0.165
2973,-0.175,-0.165
2974,-0.165,-0.165
2975,-0.160,-0.165
2976,-0.175,-0.160
2977,-0.185,-0.155
2978,-0.175,-0.150
2979,-0.160,-0.145
2980,-0.145,-0.145
2981,-0.130,-0.145
2982,-0.115,-0.140
2983,-0.110,-0.130
2984,-0.120,-0.120
2985,-0.125,-0.110
2986,-0.120,-0.100
2987,-0.105,-0.095
2988,-0.085,-0.095
2989,-0.065,-0.090
2990,-0.040,-0.080
2991,-0.030,-0.070
2992,-0.020,-0.060
2993,-0.010,-0.040
2994,0.000,-0.020
2995,0.015,-0.010
2996,0.030,0.000
2997,0.050,0.005
2998,0.070,0.005
2999,0.075,0.005
3000,0.075,0.005
3001,0.075,0.020
3002,0.065,0.025
3003,0.065,0.015
3004,0.065,0.005
3005,0.050,-0.005
3006,0.035,-0.015
3007,0.025,-0.025
3008,0.010,-0.035
3009,-0.035,-0.055
3010,-0.075,-0.080
3011,-0.090,-0.105
3012,-0.105,-0.125
3013,-0.120,-0.140
3014,-0.135,-0.160
3015,-0.140,-0.175
3016,-0.150,-0.185
3017,-0.165,-0.195
3018,-0.175,-0.205
3019,-0.185,-0.215
3020,-0.195,-0.225
3021,-0.195,-0.225
3022,-0.195,-0.225
3023,-0.195,-0.230
3024,-0.195,-0.235
3025,-0.195,-0.230
3026,-0.195,-0.225
3027,-0.200,-0.230
3028,-0.205,-0.235
3029,-0.205,-0.230
3030,-0.200,-0.225
3031,-0.190,-0.225
3032,-0.180,-0.220
3033,-0.170,-0.210
3034,-0.170,-0.205
3035,-0.180,-0.210
3036,-0.175,-0.215
3037,-0.160,-0.210
3038,-0.150,-0.205
3039,-0.140,-0.205
3040,-0.140,-0.200
3041,-0.150,-0.190
3042,-0.150,-0.185
3043,-0.145,-0.185
3044,-0.150,-0.185
3045,-0.155,-0.185
3046,-0.145,-0.185
3047,-0.135,-0.185
3048,-0.150,-0.185
3049,-0.165,-0.185
3050,-0.150,-0.190
3051,-0.135,-0.195
3052,-0.145,-0.195
3053,-0.155,-0.195
3054,-0.155,-0.195
3055,-0.155,-0.195
3056,-0.155,-0.200
3057,-0.155,-0.205
3058,-0.155,-0.205
3059,-0.155,-0.205
3060,-0.145,-0.205
3061,-0.135,-0.205
3062,-0.140,-0.205
3063,-0.140,-0.200
3064,-0.125,-0.190
3065,-0.120,-0.185
3066,-0.135,-0.190
3067,-0.150,-0.195
3068,-0.160,-0.195
3069,-0.160,-0.195
3070,-0.150,-0.195
3071,-0.145,-0.195
3072,-0.150,-0.190
3073,-0.145,-0.185
3074,-0.130,-0.185
3075,-0.140,-0.185
3076,-0.160,-0.185
3077,-0.155,-0.185
3078,-0.140,-0.185
3079,-0.130,-0.180
3080,-0.120,-0.170
3081,-0.115,-0.165
3082,-0.115,-0.160
3083,-0.115,-0.155
3084,-0.105,-0.155
3085,-0.105,-0.140
3086,-0.105,-0.125
3087,-0.090,-0.120
3088,-0.075,-0.115
3089,-0.070,-0.120
3090,-0.065,-0.125
3091,-0.065,-0.130
3092,-0.065,-0.135
3093,-0.075,-0.140
3094,-0.085,-0.145
3095,-0.090,-0.150
3096,-0.095,-0.155
3097,-0.100,-0.155
3098,-0.110,-0.155
3099,-0.125,-0.160
3100,-0.135,-0.165
3101,-0.145,-0.155
3102,-0.155,-0.145
3103,-0.155,-0.150
3104,-0.155,-0.155
3105,-0.160,-0.155
3106,-0.165,-0.155
3107,-0.165,-0.160
3108,-0.165,-0.165
3109,-0.170,-0.165
3110,-0.170,-0.165
3111,-0.160,-0.160
3112,-0.155,-0.155
3113,-0.155,-0.150
3114,-0.155,-0.145
3115,-0.160,-0.145
3116,-0.180,-0.145
3117,-0.200,-0.145
3118,-0.180,-0.140
3119,-0.145,-0.130
3120,0.095,-0.115
3121,0.365,-0.100
3122,0.610,-0.015
3123,0.850,0.080
3124,0.590,0.160
3125,0.865,0.085
3126,-0.030,0.120
3127,-0.355,-0.015
3128,-0.575,-0.330
3129,-0.765,-0.620
3130,-0.625,-0.720
3131,-0.490,-0.790
3132,-0.385,-0.655
3133,-0.290,-0.520
3134,-0.245,-0.370
3135,-0.205,-0.240
3136,-0.195,-0.170
3137,-0.185,-0.115
3138,-0.190,-0.100
3139,-0.195,-0.085
3140,-0.190,-0.085
3141,-0.185,-0.085
3142,-0.175,-0.085
3143,-0.165,-0.085
3144,-0.165,-0.085
3145,-0.165,-0.085
3146,-0.170,-0.085
3147,-0.170,-0.085
3148,-0.155,-0.085
3149,-0.145,-0.080
3150,-0.145,-0.070
3151,-0.145,-0.065
3152,-0.145,-0.065
3153,-0.145,-0.065
3154,-0.140,-0.065
3155,-0.135,-0.065
3156,-0.130,-0.060
3157,-0.125,-0.055
3158,-0.120,-0.050
3159,-0.115,-0.045
3160,-0.110,-0.045
3161,-0.105,-0.045
3162,-0.105,-0.040
3163,-0.105,-0.035
3164,-0.100,-0.035
3165,-0.090,-0.030
3166,-0.080,-0.020
3167,-0.055,-0.015
3168,-0.035,-0.015
3169,-0.035,-0.005
3170,-0.035,0.005
3171,-0.020,0.015
3172,-0.005,0.025
3173,0.010,0.025
3174,0.025,0.025
3175,0.035,0.045
3176,0.045,0.065
3177,0.065,0.075
3178,0.085,0.085
3179,0.095,0.095
3180,0.105,0.105
3181,0.125,0.125
3182,0.135,0.135
3183,0.140,0.140
3184,0.145,0.145
3185,0.150,0.150
3186,0.155,0.155
3187,0.150,0.155
3188,0.140,0.155
3189,0.130,0.150
3190,0.115,0.135
3191,0.090,0.115
3192,0.070,0.100
3193,0.055,0.085
3194,0.030,0.070
3195,0.005,0.050
3196,-0.010,0.035
3197,-0.020,0.015
3198,-0.035,-0.005
3199,-0.050,-0.020
3200,-0.065,-0.030
3201,-0.080,-0.040
3202,-0.085,-0.050
3203,-0.085,-0.060
3204,-0.090,-0.065
3205,-0.100,-0.070
3206,-0.105,-0.075
3207,-0.105,-0.080
3208,-0.105,-0.085
3209,-0.105,-0.095
3210,-0.110,-0.095
3211,-0.115,-0.095
3212,-0.110,-0.095
3213,-0.105,-0.095
3214,-0.105,-0.100
3215,-0.105,-0.105
3216,-0.095,-0.105
3217,-0.085,-0.105
3218,-0.080,-0.105
3219,-0.075,-0.105
3220,-0.070,-0.100
3221,-0.065,-0.095
3222,-0.065,-0.095
3223,-0.065,-0.095
3224,-0.060,-0.090
3225,-0.055,-0.085
3226,-0.055,-0.080
3227,-0.055,-0.075
3228,-0.055,-0.070
3229,-0.055,-0.065
3230,-0.050,-0.070
3231,-0.045,-0.075
3232,-0.045,-0.070
3233,-0.045,-0.065
3234,-0.050,-0.065
3235,-0.055,-0.065
3236,-0.050,-0.065
3237,-0.045,-0.065
3238,-0.050,-0.065
3239,-0.055,-0.065
3240,-0.055,-0.070
3241,-0.055,-0.075
3242,-0.055,-0.075
3243,-0.055,-0.075
3244,-0.055,-0.070
3245,-0.050,-0.065
3246,-0.040,-0.070
3247,-0.035,-0.075
3248,-0.030,-0.070
3249,-0.020,-0.060
3250,-0.025,-0.065
3251,-0.010,-0.040
3252,-0.015,-0.035
3253,-0.020,-0.030
3254,-0.025,-0.025
3255,-0.015,-0.040
3256,-0.005,-0.055
3257,-0.010,-0.055
3258,-0.015,-0.055
3259,-0.020,-0.065
3260,-0.025,-0.075
3261,-0.025,-0.080
3262,-0.025,-0.085
3263,-0.025,-0.090
3264,-0.030,-0.095
3265,-0.045,-0.095
3266,-0.055,-0.095
3267,-0.050,-0.090
3268,-0.045,-0.085
3269,-0.055,-0.085
3270,-0.065,-0.085
3271,-0.070,-0.085
3272,-0.075,-0.085
3273,-0.080,-0.085
3274,-0.085,-0.085
3275,-0.085,-0.090
3276,-0.085,-0.095
3277,-0.080,-0.095
3278,-0.075,-0.095
3279,-0.080,-0.095
3280,-0.085,-0.095
3281,-0.085,-0.095
3282,-0.085,-0.095
3283,-0.085,-0.090
3284,-0.100,-0.085
3285,-0.120,-0.085
3286,-0.070,-0.080
3287,-0.005,-0.070
3288,0.290,-0.040
3289,0.610,-0.010
3290,0.810,0.100
3291,1.000,0.210
3292,0.685,0.250
3293,0.355,0.280
3294,0.030,0.060
3295,-0.280,-0.170
3296,-0.405,-0.495
3297,-0.505,-0.780
3298,-0.390,-0.735
3299,-0.285,-0.670
3300,-0.225,-0.495
3301,-0.175,-0.335
3302,-0.155,-0.225
3303,-0.135,-0.140
3304,-0.125,-0.100
3305,-0.115,-0.075
3306,-0.115,-0.070
3307,-0.115,-0.065
3308,-0.115,-0.065
3309,-0.115,-0.065
3310,-0.110,-0.065
3311,-0.105,-0.065
3312,-0.105,-0.065
3313,-0.100,-0.060
3314,-0.090,-0.050
3315,-0.085,-0.045
3316,-0.090,-0.050
3317,-0.090,-0.055
3318,-0.080,-0.050
3319,-0.075,-0.045
3320,-0.070,-0.045
3321,-0.065,-0.045
3322,-0.070,-0.040
3323,-0.070,-0.035
3324,-0.060,-0.035
3325,-0.055,-0.035
3326,-0.050,-0.035
3327,-0.045,-0.030
3328,-0.045,-0.020
3329,-0.045,-0.015
3330,-0.040,-0.010
3331,-0.035,-0.005
3332,-0.035,-0.005
3333,-0.030,-0.005
3334,-0.015,0.005
3335,-0.010,0.005
3336,-0.005,0.005
3337,0.000,0.015
3338,0.005,0.025
3339,0.015,0.035
3340,0.025,0.045
3341,0.040,0.045
3342,0.055,0.045
3343,0.065,0.060
3344,0.080,0.075
3345,0.105,0.090
3346,0.125,0.105
3347,0.130,0.120
3348,0.140,0.135
3349,0.160,0.140
3350,0.175,0.145
3351,0.180,0.150
3352,0.185,0.155
3353,0.195,0.160
3354,0.200,0.165
3355,0.185,0.160
3356,0.170,0.150
3357,0.160,0.135
3358,0.145,0.120
3359,0.125,0.105
3360,0.095,0.080
3361,0.060,0.055
3362,0.025,0.030
3363,-0.005,0.005
3364,-0.020,-0.015
3365,-0.030,-0.040
3366,-0.035,-0.055
3367,-0.040,-0.070
3368,-0.045,-0.080
3369,-0.050,-0.090
3370,-0.065,-0.100
3371,-0.080,-0.110
3372,-0.095,-0.115
3373,-0.110,-0.120
3374,-0.110,-0.125
3375,-0.115,-0.125
3376,-0.095,-0.135
3377,-0.095,-0.135
3378,-0.095,-0.140
3379,-0.095,-0.145
3380,-0.105,-0.140
3381,-0.115,-0.135
3382,-0.105,-0.135
3383,-0.095,-0.135
3384,-0.105,-0.135
3385,-0.115,-0.135
3386,-0.105,-0.125
3387,-0.095,-0.115
3388,-0.090,-0.115
3389,-0.085,-0.115
3390,-0.090,-0.110
3391,-0.095,-0.105
3392,-0.090,-0.105
3393,-0.085,-0.105
3394,-0.085,-0.100
3395,-0.085,-0.095
3396,-0.085,-0.100
3397,-0.085,-0.105
3398,-0.085,-0.105
3399,-0.085,-0.105
3400,-0.090,-0.110
3401,-0.095,-0.115
3402,-0.095,-0.115
3403,-0.095,-0.115
3404,-0.095,-0.115
3405,-0.095,-0.120
3406,-0.095,-0.130
3407,-0.095,-0.125
3408,-0.100,-0.110
3409,-0.085,-0.105
3410,-0.060,-0.110
3411,-0.060,-0.115
3412,-0.070,-0.110
3413,-0.080,-0.105
3414,-0.090,-0.100
3415,-0.085,-0.095
3416,-0.070,-0.095
3417,-0.065,-0.110
3418,-0.065,-0.125
3419,-0.080,-0.125
3420,-0.095,-0.125
3421,-0.085,-0.135
3422,-0.075,-0.145
3423,-0.080,-0.150
3424,-0.085,-0.155
3425,-0.095,-0.155
3426,-0.105,-0.155
3427,-0.125,-0.150
3428,-0.145,-0.145
3429,-0.150,-0.145
3430,-0.155,-0.145
3431,-0.145,-0.150
3432,-0.135,-0.155
3433,-0.135,-0.155
3434,-0.135,-0.155
3435,-0.140,-0.150
3436,-0.145,-0.145
3437,-0.150,-0.150
3438,-0.155,-0.155
3439,-0.150,-0.155
3440,-0.145,-0.155
3441,-0.145,-0.150
3442,-0.150,-0.145
3443,-0.165,-0.150
3444,-0.175,-0.155
3445,-0.180,-0.150
3446,-0.160,-0.140
3447,-0.120,-0.130
3448,0.085,-0.115
3449,0.345,-0.100
3450,0.575,-0.015
3451,0.795,0.085
3452,0.565,0.155
3453,0.240,0.215
3454,-0.090,0.070
3455,-0.415,-0.110
3456,-0.540,-0.425
3457,-0.650,-0.750
3458,-0.555,-0.765
3459,-0.445,-0.775
3460,-0.360,-0.605
3461,-0.275,-0.440
3462,-0.230,-0.320
3463,-0.185,-0.210
3464,-0.185,-0.165
3465,-0.185,-0.125
3466,-0.170,-0.115
3467,-0.155,-0.105
3468,-0.165,-0.100
3469,-0.175,-0.095
3470,-0.160,-0.100
3471,-0.145,-0.105
3472,-0.150,-0.105
3473,-0.155,-0.105
3474,-0.160,-0.105
3475,-0.160,-0.105
3476,-0.140,-0.100
3477,-0.125,-0.095
3478,-0.120,-0.090
3479,-0.115,-0.085
3480,-0.130,-0.085
3481,-0.130,-0.085
3482,-0.115,-0.085
3483,-0.110,-0.085
3484,-0.120,-0.080
3485,-0.120,-0.075
3486,-0.105,-0.070
3487,-0.095,-0.065
3488,-0.095,-0.065
3489,-0.085,-0.065
3490,-0.070,-0.065
3491,-0.070,-0.060
3492,-0.080,-0.050
3493,-0.075,-0.045
3494,-0.060,-0.040
3495,-0.050,-0.035
3496,-0.040,-0.035
3497,-0.025,-0.030
3498,-0.010,-0.020
3499,0.005,-0.015
3500,-0.005,-0.015
3501,0.035,0.005
3502,0.045,0.015
3503,0.055,0.025
3504,0.065,0.035
3505,0.090,0.050
3506,0.115,0.065
3507,0.120,0.075
3508,0.130,0.085
3509,0.160,0.090
3510,0.185,0.095
3511,0.185,0.100
3512,0.185,0.105
3513,0.175,0.110
3514,0.165,0.115
3515,0.160,0.115
3516,0.150,0.110
3517,0.135,0.095
3518,0.115,0.080
3519,0.085,0.065
3520,0.060,0.045
3521,0.035,0.020
3522,0.015,0.000
3523,-0.005,-0.010
3524,-0.025,-0.025
3525,-0.055,-0.045
3526,-0.065,-0.060
3527,-0.065,-0.075
3528,-0.075,-0.085
3529,-0.095,-0.090
3530,-0.110,-0.100
3531,-0.120,-0.110
3532,-0.125,-0.115
3533,-0.125,-0.115
3534,-0.125,-0.115
3535,-0.130,-0.120
3536,-0.135,-0.125
3537,-0.135,-0.130
3538,-0.135,-0.135
3539,-0.140,-0.140
3540,-0.145,-0.145
3541,-0.140,-0.145
3542,-0.140,-0.145
3543,-0.145,-0.145
3544,-0.135,-0.140
3545,-0.125,-0.135
3546,-0.125,-0.135
3547,-0.125,-0.135
3548,-0.125,-0.120
3549,-0.125,-0.105
3550,-0.115,-0.110
3551,-0.105,-0.115
3552,-0.105,-0.110
3553,-0.105,-0.105
3554,-0.100,-0.100
3555,-0.095,-0.095
3556,-0.100,-0.095
3557,-0.105,-0.095
3558,-0.105,-0.090
3559,-0.105,-0.085
3560,-0.105,-0.085
3561,-0.105,-0.085
3562,-0.105,-0.085
3563,-0.105,-0.085
3564,-0.100,-0.085
3565,-0.100,-0.085
3566,-0.110,-0.090
3567,-0.115,-0.095
3568,-0.115,-0.095
3569,-0.115,-0.095
3570,-0.115,-0.095
3571,-0.115,-0.095
3572,-0.115,-0.095
3573,-0.115,-0.095
3574,-0.115,-0.095
3575,-0.115,-0.095
3576,-0.120,-0.100
3577,-0.125,-0.105
3578,-0.120,-0.105
3579,-0.115,-0.105
3580,-0.110,-0.100
3581,-0.105,-0.095
3582,-0.105,-0.100
3583,-0.105,-0.105
3584,-0.115,-0.105
3585,-0.110,-0.105
3586,-0.105,-0.105
3587,-0.110,-0.105
3588,-0.115,-0.105
3589,-0.105,-0.105
3590,-0.095,-0.105
3591,-0.090,-0.105
3592,-0.085,-0.105
3593,-0.080,-0.095
3594,-0.075,-0.085
3595,-0.075,-0.080
3596,-0.075,-0.075
3597,-0.075,-0.080
3598,-0.075,-0.085
3599,-0.085,-0.080
3600,-0.090,-0.075
3601,-0.075,-0.080
3602,-0.065,-0.085
3603,-0.060,-0.090
3604,-0.055,-0.095
3605,-0.070,-0.095
3606,-0.080,-0.100
3607,-0.090,-0.110
3608,-0.095,-0.115
3609,-0.090,-0.115
3610,-0.085,-0.115
3611,-0.080,-0.110
3612,-0.080,-0.105
3613,-0.090,-0.105
3614,-0.100,-0.105
3615,-0.110,-0.105
3616,-0.115,-0.105
3617,-0.115,-0.105
3618,-0.115,-0.105
3619,-0.110,-0.105
3620,-0.105,-0.105
3621,-0.105,-0.110
3622,-0.105,-0.115
3623,-0.110,-0.110
3624,-0.115,-0.105
3625,-0.115,-0.105
3626,-0.110,-0.110
3627,-0.115,-0.105
3628,-0.135,-0.105
3629,-0.155,-0.105
3630,-0.100,-0.095
3631,-0.015,-0.085
3632,0.295,-0.060
3633,0.585,-0.015
3634,0.815,0.090
3635,0.920,0.185
3636,0.595,0.240
3637,0.265,0.235
3638,-0.060,0.040
3639,-0.330,-0.200
3640,-0.480,-0.530
3641,-0.530,-0.735
3642,-0.410,-0.730
3643,-0.305,-0.655
3644,-0.220,-0.485
3645,-0.170,-0.340
3646,-0.155,-0.215
3647,-0.140,-0.135
3648,-0.125,-0.095
3649,-0.115,-0.075
3650,-0.120,-0.070
3651,-0.120,-0.065
3652,-0.110,-0.070
3653,-0.105,-0.075
3654,-0.105,-0.070
3655,-0.105,-0.065
3656,-0.105,-0.070
3657,-0.105,-0.070
3658,-0.100,-0.060
3659,-0.095,-0.055
3660,-0.095,-0.060
3661,-0.095,-0.065
3662,-0.090,-0.065
3663,-0.085,-0.065
3664,-0.080,-0.060
3665,-0.075,-0.055
3666,-0.075,-0.050
3667,-0.070,-0.045
3668,-0.065,-0.045
3669,-0.065,-0.045
3670,-0.065,-0.045
3671,-0.060,-0.040
3672,-0.055,-0.035
3673,-0.050,-0.030
3674,-0.045,-0.025
3675,-0.040,-0.025
3676,-0.035,-0.025
3677,-0.030,-0.025
3678,-0.025,-0.025
3679,-0.020,-0.020
3680,-0.015,-0.015
3681,0.005,-0.010
3682,0.015,-0.005
3683,0.020,0.005
3684,0.025,0.015
3685,0.035,0.025
3686,0.050,0.040
3687,0.065,0.055
3688,0.085,0.070
3689,0.105,0.085
3690,0.120,0.095
3691,0.135,0.100
3692,0.150,0.110
3693,0.160,0.125
3694,0.170,0.140
3695,0.180,0.150
3696,0.185,0.155
3697,0.180,0.155
3698,0.175,0.155
3699,0.175,0.150
3700,0.160,0.135
3701,0.140,0.120
3702,0.115,0.105
3703,0.090,0.090
3704,0.080,0.070
3705,0.070,0.050
3706,0.045,0.025
3707,0.020,0.000
3708,0.005,-0.025
3709,-0.015,-0.055
3710,-0.030,-0.065
3711,-0.045,-0.075
3712,-0.055,-0.085
3713,-0.065,-0.095
3714,-0.070,-0.110
3715,-0.075,-0.125
3716,-0.085,-0.130
3717,-0.095,-0.135
3718,-0.095,-0.140
3719,-0.095,-0.145
3720,-0.095,-0.140
3721,-0.095,-0.135
3722,-0.095,-0.135
3723,-0.095,-0.135
3724,-0.100,-0.135
3725,-0.105,-0.135
3726,-0.100,-0.130
3727,-0.095,-0.125
3728,-0.095,-0.125
3729,-0.090,-0.125
3730,-0.075,-0.120
3731,-0.065,-0.115
3732,-0.070,-0.110
3733,-0.070,-0.105
3734,-0.055,-0.100
3735,-0.040,-0.095
3736,-0.030,-0.090
3737,-0.035,-0.085
3738,-0.055,-0.090
3739,-0.065,-0.095
3740,-0.065,-0.090
3741,-0.065,-0.085
3742,-0.060,-0.085
3743,-0.055,-0.085
3744,-0.055,-0.085
3745,-0.055,-0.085
3746,-0.055,-0.085
3747,-0.060,-0.085
3748,-0.070,-0.090
3749,-0.070,-0.095
3750,-0.075,-0.095
3751,-0.060,-0.100
3752,-0.065,-0.105
3753,-0.080,-0.110
3754,-0.095,-0.115
3755,-0.095,-0.115
3756,-0.095,-0.115
3757,-0.085,-0.115
3758,-0.075,-0.115
3759,-0.080,-0.115
3760,-0.085,-0.115
3761,-0.090,-0.115
3762,-0.095,-0.115
3763,-0.090,-0.115
3764,-0.085,-0.115
3765,-0.090,-0.115
3766,-0.095,-0.115
3767,-0.095,-0.115
3768,-0.090,-0.115
3769,-0.075,-0.115
3770,-0.065,-0.115
3771,-0.070,-0.110
3772,-0.070,-0.105
3773,-0.060,-0.100
3774,-0.055,-0.095
3775,-0.050,-0.090
3776,-0.045,-0.080
3777,-0.050,-0.070
3778,-0.045,-0.065
3779,-0.030,-0.070
3780,-0.015,-0.075
3781,0.000,-0.070
3782,0.000,-0.065
3783,-0.010,-0.070
3784,-0.020,-0.080
3785,-0.030,-0.090
3786,-0.035,-0.095
3787,-0.040,-0.100
3788,-0.045,-0.110
3789,-0.050,-0.120
3790,-0.065,-0.120
3791,-0.080,-0.110
3792,-0.090,-0.105
3793,-0.095,-0.105
3794,-0.105,-0.110
3795,-0.115,-0.115
3796,-0.115,-0.115
3797,-0.115,-0.115
3798,-0.125,-0.120
3799,-0.135,-0.125
3800,-0.125,-0.125
3801,-0.115,-0.125
3802,-0.120,-0.125
3803,-0.125,-0.125
3804,-0.120,-0.125
3805,-0.115,-0.125
3806,-0.110,-0.120
3807,-0.110,-0.115
3808,-0.135,-0.115
3809,-0.120,-0.110
3810,-0.020,-0.095
3811,0.180,-0.065
3812,0.505,-0.020
3813,0.700,0.060
3814,0.765,0.170
3815,0.620,0.220
3816,0.290,0.205
3817,-0.035,0.015
3818,-0.365,-0.290
3819,-0.485,-0.550
3820,-0.480,-0.780
3821,-0.400,-0.765
3822,-0.285,-0.635
3823,-0.225,-0.475
3824,-0.180,-0.315
3825,-0.165,-0.215
3826,-0.160,-0.130
3827,-0.140,-0.100
3828,-0.120,-0.080
3829,-0.115,-0.075
3830,-0.110,-0.070
3831,-0.105,-0.065
3832,-0.110,-0.065
3833,-0.110,-0.065
3834,-0.095,-0.075
3835,-0.105,-0.070
3836,-0.115,-0.065
3837,-0.100,-0.060
3838,-0.085,-0.055
3839,-0.085,-0.055
3840,-0.085,-0.055
3841,-0.085,-0.055
3842,-0.085,-0.055
3843,-0.075,-0.050
3844,-0.065,-0.045
3845,-0.065,-0.040
3846,-0.065,-0.035
3847,-0.055,-0.035
3848,-0.045,-0.035
3849,-0.045,-0.035
3850,-0.045,-0.035
3851,-0.045,-0.030
3852,-0.040,-0.025
3853,-0.020,-0.025
3854,-0.005,-0.025
3855,-0.005,-0.020
3856,-0.005,-0.015
3857,0.000,-0.010
3858,0.010,-0.005
3859,0.020,0.000
3860,0.025,0.010
3861,0.030,0.020
3862,0.040,0.025
3863,0.050,0.025
3864,0.065,0.030
3865,0.090,0.040
3866,0.110,0.050
3867,0.140,0.060
3868,0.150,0.075
3869,0.160,0.090
3870,0.165,0.095
3871,0.165,0.100
3872,0.165,0.105
3873,0.170,0.110
3874,0.190,0.115
3875,0.175,0.115
3876,0.225,0.125
3877,0.235,0.125
3878,0.210,0.120
3879,0.185,0.115
3880,0.170,0.110
3881,0.155,0.105
3882,0.140,0.090
3883,0.120,0.075
3884,0.090,0.065
3885,0.060,0.055
3886,0.035,0.030
3887,0.015,0.010
3888,0.005,-0.010
3889,-0.010,-0.030
3890,-0.025,-0.045
3891,-0.035,-0.055
3892,-0.045,-0.055
3893,-0.055,-0.060
3894,-0.060,-0.075
3895,-0.065,-0.085
3896,-0.070,-0.085
3897,-0.075,-0.085
3898,-0.080,-0.085
3899,-0.085,-0.085
3900,-0.085,-0.090
3901,-0.085,-0.095
3902,-0.090,-0.095
3903,-0.095,-0.095
3904,-0.090,-0.100
3905,-0.085,-0.105
3906,-0.085,-0.105
3907,-0.085,-0.100
3908,-0.085,-0.090
3909,-0.075,-0.085
3910,-0.060,-0.085
3911,-0.065,-0.085
3912,-0.080,-0.085
3913,-0.080,-0.085
3914,-0.070,-0.080
3915,-0.065,-0.075
3916,-0.060,-0.070
3917,-0.050,-0.060
3918,-0.045,-0.055
3919,-0.040,-0.055
3920,-0.035,-0.055
3921,-0.035,-0.050
3922,-0.035,-0.045
3923,-0.025,-0.040
3924,-0.015,-0.035
3925,-0.020,-0.040
3926,-0.025,-0.045
3927,-0.025,-0.045
3928,-0.025,-0.045
3929,-0.025,-0.045
3930,-0.025,-0.045
3931,-0.025,-0.050
3932,-0.025,-0.055
3933,-0.025,-0.055
3934,-0.025,-0.055
3935,-0.035,-0.060
3936,-0.045,-0.065
3937,-0.040,-0.060
3938,-0.030,-0.055
3939,-0.020,-0.055
3940,-0.015,-0.055
3941,-0.015,-0.055
3942,-0.010,-0.055
3943,0.000,-0.050
3944,0.010,-0.045
3945,0.020,-0.045
3946,0.015,-0.035
3947,0.000,-0.020
3948,0.010,-0.015
3949,0.035,-0.015
3950,0.045,-0.015
3951,0.050,-0.020
3952,0.045,-0.025
3953,0.030,-0.025
3954,0.025,-0.025
3955,0.025,-0.030
3956,0.020,-0.040
3957,0.010,-0.050
3958,0.005,-0.055
3959,-0.005,-0.065
3960,-0.015,-0.065
3961,-0.025,-0.065
3962,-0.035,-0.065
3963,-0.045,-0.065
3964,-0.045,-0.065
3965,-0.045,-0.065
3966,-0.060,-0.070
3967,-0.075,-0.075
3968,-0.070,-0.080
3969,-0.065,-0.085
3970,-0.060,-0.085
3971,-0.055,-0.085
3972,-0.060,-0.080
3973,-0.065,-0.075
3974,-0.060,-0.080
3975,-0.055,-0.085
3976,-0.060,-0.080
3977,-0.075,-0.075
3978,-0.100,-0.075
3979,-0.090,-0.075
3980,-0.025,-0.070
3981,0.170,-0.055
3982,0.480,-0.030
3983,0.730,0.050
3984,0.935,0.160
3985,0.815,0.235
3986,0.485,0.285
3987,0.155,0.140
3988,-0.170,-0.110
3989,-0.340,-0.420
3990,-0.445,-0.745
3991,-0.385,-0.750
3992,-0.260,-0.645
3993,-0.190,-0.480
3994,-0.125,-0.295
3995,-0.105,-0.195
3996,-0.090,-0.105
3997,-0.085,-0.080
3998,-0.090,-0.060
3999,-0.095,-0.055
4000,-0.095,-0.055
4001,-0.075,-0.060
4002,-0.065,-0.055
4003,-0.070,-0.055
4004,-0.075,-0.055
4005,-0.075,-0.055
4006,-0.075,-0.055
4007,-0.065,-0.055
4008,-0.055,-0.055
4009,-0.055,-0.050
4010,-0.055,-0.045
4011,-0.050,-0.040
4012,-0.045,-0.035
4013,-0.045,-0.040
4014,-0.045,-0.045
4015,-0.040,-0.040
4016,-0.035,-0.035
4017,-0.025,-0.030
4018,-0.015,-0.025
4019,-0.015,-0.025
4020,-0.015,-0.025
4021,-0.010,-0.020
4022,-0.005,-0.015
4023,-0.005,-0.015
4024,-0.005,-0.015
4025,0.000,-0.010
4026,0.010,-0.005
4027,0.025,-0.005
4028,0.035,0.000
4029,0.035,0.010
4030,0.045,0.020
4031,0.060,0.030
4032,0.070,0.035
4033,0.080,0.040
4034,0.090,0.050
4035,0.100,0.060
4036,0.120,0.075
4037,0.140,0.090
4038,0.155,0.105
4039,0.170,0.120
4040,0.190,0.135
4041,0.210,0.150
4042,0.230,0.165
4043,0.245,0.175
4044,0.250,0.185
4045,0.255,0.195
4046,0.245,0.195
4047,0.235,0.195
4048,0.225,0.190
4049,0.215,0.185
4050,0.195,0.170
4051,0.175,0.155
4052,0.160,0.135
4053,0.140,0.115
4054,0.100,0.100
4055,0.075,0.080
4056,0.055,0.060
4057,0.040,0.040
4058,0.020,0.015
4059,0.000,-0.010
4060,-0.020,-0.025
4061,-0.035,-0.035
4062,-0.040,-0.045
4063,-0.050,-0.055
4064,-0.060,-0.060
4065,-0.065,-0.065
4066,-0.060,-0.070
4067,-0.060,-0.080
4068,-0.070,-0.090
4069,-0.075,-0.095
4070,-0.075,-0.095
4071,-0.075,-0.095
4072,-0.075,-0.090
4073,-0.075,-0.085
4074,-0.075,-0.090
4075,-0.075,-0.095
4076,-0.075,-0.095
4077,-0.075,-0.095
4078,-0.070,-0.095
4079,-0.065,-0.090
4080,-0.060,-0.080
4081,-0.055,-0.075
4082,-0.050,-0.075
4083,-0.045,-0.075
4084,-0.045,-0.065
4085,-0.035,-0.065
4086,-0.025,-0.065
4087,-0.025,-0.055
4088,-0.025,-0.045
4089,-0.020,-0.045
4090,-0.015,-0.045
4091,-0.020,-0.045
4092,-0.025,-0.045
4093,-0.025,-0.045
4094,-0.025,-0.045
4095,-0.030,-0.045
4096,-0.035,-0.045
4097,-0.035,-0.050
4098,-0.035,-0.055
4099,-0.035,-0.055
4100,-0.035,-0.055
4101,-0.035,-0.060
4102,-0.035,-0.065
4103,-0.045,-0.065
4104,-0.055,-0.065
4105,-0.040,-0.070
4106,-0.035,-0.075
4107,-0.040,-0.075
4108,-0.045,-0.075
4109,-0.040,-0.075
4110,-0.035,-0.075
4111,-0.030,-0.070
4112,-0.015,-0.065
4113,0.000,-0.065
4114,0.010,-0.065
4115,0.020,-0.060
4116,0.025,-0.055
4117,0.025,-0.050
4118,0.020,-0.045
4119,0.010,-0.045
4120,0.010,-0.045
4121,0.020,-0.040
4122,0.015,-0.045
4123,0.000,-0.060
4124,-0.005,-0.070
4125,-0.005,-0.065
4126,-0.015,-0.085
4127,-0.025,-0.085
4128,-0.025,-0.090
4129,-0.025,-0.095
4130,-0.055,-0.090
4131,-0.085,-0.085
4132,-0.080,-0.090
4133,-0.075,-0.095
4134,-0.080,-0.100
4135,-0.085,-0.105
4136,-0.100,-0.110
4137,-0.115,-0.115
4138,-0.110,-0.120
4139,-0.105,-0.125
4140,-0.115,-0.125
4141,-0.125,-0.125
4142,-0.115,-0.125
4143,-0.105,-0.125
4144,-0.105,-0.130
4145,-0.105,-0.135
4146,-0.120,-0.130
4147,-0.125,-0.125
4148,-0.120,-0.130
4149,-0.120,-0.135
4150,-0.135,-0.130
4151,-0.045,-0.115
4152,0.125,-0.095
4153,0.395,-0.045
4154,0.720,0.025
4155,0.740,0.110
4156,0.620,0.210
4157,0.340,0.175
4158,0.015,0.095
4159,-0.275,-0.185
4160,-0.560,-0.510
4161,-0.515,-0.705
4162,-0.410,-0.875
4163,-0.340,-0.725
4164,-0.270,-0.530
4165,-0.230,-0.380
4166,-0.190,-0.230
4167,-0.150,-0.180
4168,-0.115,-0.135
4169,-0.140,-0.125
4170,-0.165,-0.115
4171,-0.150,-0.115
4172,-0.135,-0.115
4173,-0.130,-0.120
4174,-0.125,-0.125
4175,-0.125,-0.125
4176,-0.125,-0.125
4177,-0.130,-0.130
4178,-0.135,-0.135
4179,-0.125,-0.130
4180,-0.115,-0.125
4181,-0.110,-0.125
4182,-0.105,-0.125
4183,-0.110,-0.130
4184,-0.115,-0.135
4185,-0.115,-0.130
4186,-0.115,-0.125
4187,-0.105,-0.120
4188,-0.100,-0.115
4189,-0.115,-0.110
4190,-0.110,-0.105
4191,-0.070,-0.105
4192,-0.060,-0.105
4193,-0.070,-0.100
4194,-0.080,-0.090
4195,-0.090,-0.080
4196,-0.075,-0.075
4197,-0.035,-0.070
4198,-0.035,-0.065
4199,-0.050,-0.065
4200,-0.045,-0.060
4201,-0.030,-0.050
4202,-0.030,-0.040
4203,-0.040,-0.030
4204,-0.020,-0.015
4205,0.010,0.000
4206,0.015,0.005
4207,0.010,0.010
4208,0.040,0.020
4209,0.085,0.035
4210,0.095,0.050
4211,0.105,0.065
4212,0.120,0.075
4213,0.135,0.085
4214,0.130,0.095
4215,0.125,0.105
4216,0.135,0.110
4217,0.145,0.115
4218,0.155,0.110
4219,0.165,0.105
4220,0.160,0.105
4221,0.145,0.105
4222,0.105,0.095
4223,0.070,0.080
4224,0.050,0.060
4225,0.030,0.040
4226,0.010,0.020
4227,-0.010,-0.005
4228,-0.025,-0.030
4229,-0.040,-0.045
4230,-0.055,-0.060
4231,-0.075,-0.070
4232,-0.100,-0.085
4233,-0.115,-0.095
4234,-0.120,-0.100
4235,-0.125,-0.110
4236,-0.120,-0.120
4237,-0.120,-0.125
4238,-0.130,-0.130
4239,-0.135,-0.135
4240,-0.140,-0.140
4241,-0.140,-0.145
4242,-0.130,-0.145
4243,-0.125,-0.145
4244,-0.130,-0.145
4245,-0.140,-0.145
4246,-0.150,-0.145
4247,-0.155,-0.145
4248,-0.150,-0.145
4249,-0.140,-0.145
4250,-0.145,-0.145
4251,-0.125,-0.140
4252,-0.125,-0.135
4253,-0.125,-0.125
4254,-0.125,-0.115
4255,-0.125,-0.120
4256,-0.125,-0.125
4257,-0.125,-0.125
4258,-0.125,-0.125
4259,-0.115,-0.120
4260,-0.105,-0.115
4261,-0.110,-0.115
4262,-0.115,-0.115
4263,-0.105,-0.110
4264,-0.095,-0.105
4265,-0.085,-0.105
4266,-0.075,-0.105
4267,-0.075,-0.105
4268,-0.085,-0.105
4269,-0.110,-0.110
4270,-0.115,-0.115
4271,-0.090,-0.120
4272,-0.075,-0.125
4273,-0.080,-0.130
4274,-0.085,-0.130
4275,-0.085,-0.115
4276,-0.085,-0.105
4277,-0.085,-0.105
4278,-0.075,-0.105
4279,-0.060,-0.110
4280,-0.055,-0.115
4281,-0.060,-0.110
4282,-0.065,-0.100
4283,-0.060,-0.090
4284,-0.045,-0.085
4285,-0.030,-0.085
4286,-0.030,-0.085
4287,-0.040,-0.090
4288,-0.045,-0.100
4289,-0.045,-0.110
4290,-0.045,-0.115
4291,-0.050,-0.120
4292,-0.060,-0.130
4293,-0.065,-0.135
4294,-0.080,-0.140
4295,-0.095,-0.145
4296,-0.115,-0.145
4297,-0.135,-0.145
4298,-0.140,-0.145
4299,-0.145,-0.145
4300,-0.150,-0.155
4301,-0.155,-0.165
4302,-0.155,-0.170
4303,-0.155,-0.175
4304,-0.150,-0.175
4305,-0.145,-0.175
4306,-0.145,-0.175
4307,-0.145,-0.175
4308,-0.150,-0.175
4309,-0.155,-0.175
4310,-0.150,-0.170
4311,-0.145,-0.165
4312,-0.150,-0.165
4313,-0.160,-0.165
4314,-0.170,-0.160
4315,-0.090,-0.150
4316,0.070,-0.140
4317,0.320,-0.100
4318,0.630,-0.040
4319,0.695,0.050
4320,0.615,0.160
4321,0.360,0.160
4322,0.035,0.100
4323,-0.295,-0.125
4324,-0.620,-0.420
4325,-0.655,-0.635
4326,-0.605,-0.830
4327,-0.490,-0.795
4328,-0.365,-0.710
4329,-0.280,-0.555
4330,-0.205,-0.390
4331,-0.185,-0.295
4332,-0.170,-0.200
4333,-0.165,-0.170
4334,-0.165,-0.135
4335,-0.165,-0.135
4336,-0.165,-0.135
4337,-0.155,-0.140
4338,-0.145,-0.145
4339,-0.145,-0.145
4340,-0.145,-0.145
4341,-0.150,-0.140
4342,-0.155,-0.135
4343,-0.155,-0.140
4344,-0.155,-0.145
4345,-0.145,-0.140
4346,-0.135,-0.135
4347,-0.135,-0.135
4348,-0.135,-0.135
4349,-0.130,-0.130
4350,-0.125,-0.125
4351,-0.120,-0.125
4352,-0.115,-0.125
4353,-0.120,-0.120
4354,-0.125,-0.115
4355,-0.120,-0.110
4356,-0.115,-0.105
4357,-0.110,-0.100
4358,-0.105,-0.095
4359,-0.100,-0.090
4360,-0.090,-0.085
4361,-0.075,-0.080
4362,-0.065,-0.070
4363,-0.065,-0.060
4364,-0.065,-0.055
4365,-0.060,-0.050
4366,-0.050,-0.045
4367,-0.040,-0.045
4368,-0.020,-0.035
4369,0.000,-0.020
4370,0.010,-0.010
4371,0.020,0.000
4372,0.030,0.010
4373,0.040,0.020
4374,0.060,0.030
4375,0.045,0.025
4376,0.100,0.060
4377,0.115,0.075
4378,0.125,0.080
4379,0.135,0.085
4380,0.125,0.085
4381,0.115,0.085
4382,0.115,0.075
4383,0.115,0.065
4384,0.095,0.065
4385,0.070,0.065
4386,0.045,0.040
4387,0.020,0.025
4388,0.000,0.010
4389,-0.020,-0.010
4390,-0.040,-0.030
4391,-0.060,-0.050
4392,-0.075,-0.065
4393,-0.090,-0.075
4394,-0.105,-0.085
4395,-0.115,-0.100
4396,-0.120,-0.115
4397,-0.130,-0.125
4398,-0.145,-0.130
4399,-0.155,-0.135
4400,-0.155,-0.135
4401,-0.155,-0.135
4402,-0.160,-0.135
4403,-0.165,-0.135
4404,-0.170,-0.135
4405,-0.175,-0.135
4406,-0.170,-0.140
4407,-0.165,-0.145
4408,-0.165,-0.140
4409,-0.165,-0.135
4410,-0.165,-0.135
4411,-0.165,-0.135
4412,-0.160,-0.135
4413,-0.155,-0.135
4414,-0.150,-0.135
4415,-0.145,-0.135
4416,-0.140,-0.130
4417,-0.135,-0.120
4418,-0.135,-0.115
4419,-0.130,-0.110
4420,-0.125,-0.105
4421,-0.115,-0.100
4422,-0.105,-0.095
4423,-0.100,-0.090
4424,-0.095,-0.085
4425,-0.095,-0.090
4426,-0.095,-0.095
4427,-0.095,-0.090
4428,-0.095,-0.085
4429,-0.095,-0.085
4430,-0.095,-0.085
4431,-0.090,-0.080
4432,-0.085,-0.075
4433,-0.090,-0.080
4434,-0.095,-0.085
4435,-0.095,-0.090
4436,-0.095,-0.095
4437,-0.095,-0.095
4438,-0.095,-0.095
4439,-0.100,-0.090
4440,-0.105,-0.085
4441,-0.100,-0.090
4442,-0.095,-0.095
4443,-0.095,-0.095
4444,-0.095,-0.095
4445,-0.090,-0.095
4446,-0.085,-0.095
4447,-0.080,-0.090
4448,-0.070,-0.085
4449,-0.060,-0.080
4450,-0.065,-0.070
4451,-0.080,-0.060
4452,-0.060,-0.055
4453,-0.030,-0.060
4454,-0.025,-0.065
4455,-0.020,-0.060
4456,-0.020,-0.055
4457,-0.030,-0.060
4458,-0.035,-0.065
4459,-0.025,-0.075
4460,-0.030,-0.080
4461,-0.035,-0.085
4462,-0.050,-0.090
4463,-0.065,-0.095
4464,-0.080,-0.095
4465,-0.095,-0.095
4466,-0.100,-0.100
4467,-0.105,-0.105
4468,-0.115,-0.105
4469,-0.125,-0.105
4470,-0.125,-0.105
4471,-0.125,-0.105
4472,-0.120,-0.110
4473,-0.115,-0.115
4474,-0.115,-0.115
4475,-0.115,-0.115
4476,-0.120,-0.115
4477,-0.125,-0.115
4478,-0.130,-0.115
4479,-0.135,-0.115
4480,-0.120,-0.115
4481,-0.120,-0.115
4482,-0.130,-0.115
4483,-0.140,-0.115
4484,-0.155,-0.110
4485,-0.070,-0.100
4486,0.090,-0.090
4487,0.360,-0.045
4488,0.685,0.025
4489,0.750,0.120
4490,0.710,0.225
4491,0.445,0.215
4492,0.120,0.160
4493,-0.190,-0.120
4494,-0.490,-0.445
4495,-0.445,-0.640
4496,-0.340,-0.805
4497,-0.260,-0.650
4498,-0.180,-0.455
4499,-0.155,-0.315
4500,-0.175,-0.445
4501,-0.115,-0.135
4502,-0.105,-0.095
4503,-0.110,-0.095
4504,-0.115,-0.095
4505,-0.110,-0.095
4506,-0.105,-0.095
4507,-0.105,-0.095
4508,-0.105,-0.095
4509,-0.095,-0.090
4510,-0.085,-0.085
4511,-0.090,-0.090
4512,-0.095,-0.095
4513,-0.095,-0.090
4514,-0.095,-0.085
4515,-0.085,-0.080
4516,-0.075,-0.075
4517,-0.080,-0.070
4518,-0.085,-0.065
4519,-0.080,-0.065
4520,-0.075,-0.065
4521,-0.070,-0.060
4522,-0.065,-0.055
4523,-0.065,-0.055
4524,-0.065,-0.055
4525,-0.060,-0.050
4526,-0.055,-0.045
4527,-0.050,-0.045
4528,-0.045,-0.045
4529,-0.040,-0.040
4530,-0.035,-0.035
4531,-0.030,-0.030
4532,-0.010,-0.025
4533,0.010,-0.020
4534,0.015,-0.010
4535,0.015,0.000
4536,0.015,0.005
4537,0.015,0.010
4538,0.030,0.015
4539,0.050,0.020
4540,0.060,0.035
4541,0.070,0.050
4542,0.090,0.060
4543,0.105,0.065
4544,0.120,0.075
4545,0.135,0.085
4546,0.155,0.105
4547,0.175,0.125
4548,0.180,0.135
4549,0.185,0.145
4550,0.190,0.150
4551,0.195,0.155
4552,0.195,0.155
4553,0.195,0.155
4554,0.190,0.145
4555,0.185,0.135
4556,0.175,0.125
4557,0.160,0.115
4558,0.135,0.105
4559,0.110,0.090
4560,0.090,0.070
4561,0.070,0.045
4562,0.050,0.020
4563,0.030,-0.005
4564,0.015,-0.025
4565,0.000,-0.040
4566,-0.010,-0.050
4567,-0.020,-0.060
4568,-0.035,-0.075
4569,-0.045,-0.085
4570,-0.050,-0.090
4571,-0.055,-0.100
4572,-0.055,-0.110
4573,-0.055,-0.115
4574,-0.055,-0.115
4575,-0.050,-0.115
4576,-0.040,-0.115
4577,-0.035,-0.115
4578,-0.040,-0.115
4579,-0.045,-0.115
4580,-0.040,-0.110
4581,-0.030,-0.105
4582,-0.020,-0.105
4583,-0.025,-0.105
4584,-0.045,-0.105
4585,-0.045,-0.100
4586,-0.045,-0.095
4587,-0.035,-0.090
4588,-0.025,-0.085
4589,-0.030,-0.085
4590,-0.035,-0.085
4591,-0.025,-0.080
4592,-0.010,-0.075
4593,0.015,-0.080
4594,0.030,-0.085
4595,0.010,-0.080
4596,-0.005,-0.075
4597,-0.010,-0.070
4598,-0.015,-0.065
4599,-0.015,-0.065
4600,-0.015,-0.065
4601,-0.010,-0.075
4602,-0.005,-0.085
4603,-0.010,-0.080
4604,-0.015,-0.075
4605,-0.015,-0.080
4606,-0.015,-0.085
4607,-0.015,-0.090
4608,-0.020,-0.095
4609,-0.030,-0.095
4610,-0.035,-0.095
4611,-0.035,-0.095
4612,-0.035,-0.095
4613,-0.030,-0.100
4614,-0.025,-0.105
4615,-0.020,-0.105
4616,-0.015,-0.105
4617,-0.015,-0.105
4618,-0.015,-0.100
4619,-0.010,-0.090
4620,-0.005,-0.085
4621,-0.005,-0.090
4622,-0.005,-0.090
4623,-0.010,-0.080
4624,0.000,-0.075
4625,-0.015,-0.075
4626,0.045,-0.080
4627,0.065,-0.075
4628,0.045,-0.080
4629,0.025,-0.085
4630,0.020,-0.100
4631,0.015,-0.115
4632,0.005,-0.115
4633,-0.005,-0.115
4634,-0.010,-0.120
4635,-0.015,-0.125
4636,-0.040,-0.125
4637,-0.055,-0.125
4638,-0.050,-0.125
4639,-0.050,-0.125
4640,-0.065,-0.130
4641,-0.075,-0.135
4642,-0.070,-0.135
4643,-0.065,-0.135
4644,-0.060,-0.140
4645,-0.055,-0.145
4646,-0.040,-0.145
4647,-0.040,-0.145
4648,-0.050,-0.145
4649,-0.055,-0.145
4650,-0.060,-0.145
4651,-0.065,-0.145
4652,-0.065,-0.150
4653,-0.070,-0.150
4654,-0.080,-0.140
4655,0.015,-0.130
4656,0.165,-0.120
4657,0.435,-0.070
4658,0.740,0.000
4659,0.750,0.090
4660,0.680,0.185
4661,0.390,0.165
4662,0.065,0.115
4663,-0.245,-0.185
4664,-0.555,-0.510
4665,-0.470,-0.685
4666,-0.360,-0.850
4667,-0.275,-0.690
4668,-0.195,-0.525
4669,-0.150,-0.375
4670,-0.105,-0.235
4671,-0.095,-0.170
4672,-0.085,-0.115
4673,-0.080,-0.095
4674,-0.075,-0.075
4675,-0.070,-0.075
4676,-0.065,-0.075
4677,-0.060,-0.075
4678,-0.055,-0.075
4679,-0.060,-0.075
4680,-0.065,-0.075
4681,-0.055,-0.070
4682,-0.045,-0.065
4683,-0.055,-0.065
4684,-0.065,-0.065
4685,-0.055,-0.065
4686,-0.045,-0.065
4687,-0.055,-0.065
4688,-0.055,-0.060
4689,-0.035,-0.050
4690,-0.025,-0.045
4691,-0.025,-0.050
4692,-0.025,-0.055
4693,-0.030,-0.050
4694,-0.030,-0.045
4695,-0.020,-0.045
4696,-0.015,-0.045
4697,-0.015,-0.040
4698,-0.005,-0.035
4699,0.010,-0.035
4700,0.015,-0.035
4701,0.015,-0.030
4702,0.025,-0.025
4703,0.040,-0.020
4704,0.050,-0.015
4705,0.060,-0.010
4706,0.070,-0.005
4707,0.080,0.000
4708,0.085,0.010
4709,0.085,0.025
4710,0.095,0.040
4711,0.105,0.055
4712,0.120,0.065
4713,0.135,0.075
4714,0.155,0.080
4715,0.175,0.085
4716,0.200,0.105
4717,0.225,0.125
4718,0.230,0.135
4719,0.235,0.145
4720,0.240,0.145
4721,0.245,0.145
4722,0.240,0.135
4723,0.235,0.125
4724,0.225,0.130
4725,0.215,0.130
4726,0.210,0.115
4727,0.190,0.105
4728,0.150,0.100
4729,0.125,0.085
4730,0.110,0.060
4731,0.095,0.035
4732,0.070,0.015
4733,0.050,0.000
4734,0.035,-0.010
4735,0.025,-0.020
4736,0.020,-0.030
4737,0.005,-0.040
4738,-0.015,-0.050
4739,-0.025,-0.060
4740,-0.030,-0.070
4741,-0.035,-0.075
4742,-0.035,-0.080
4743,-0.040,-0.085
4744,-0.050,-0.080
4745,-0.055,-0.075
4746,-0.050,-0.080
4747,-0.045,-0.085
4748,-0.045,-0.090
4749,-0.045,-0.095
4750,-0.045,-0.095
4751,-0.030,-0.085
4752,-0.015,-0.085
4753,-0.020,-0.080
4754,-0.025,-0.075
4755,-0.025,-0.075
4756,-0.025,-0.075
4757,-0.020,-0.070
4758,-0.015,-0.065
4759,-0.015,-0.060
4760,-0.015,-0.055
4761,-0.005,-0.050
4762,0.005,-0.045
4763,0.000,-0.045
4764,-0.005,-0.045
4765,-0.005,-0.045
4766,-0.005,-0.045
4767,0.005,-0.040
4768,0.015,-0.035
4769,0.010,-0.035
4770,0.005,-0.035
4771,0.005,-0.035
4772,0.005,-0.035
4773,0.005,-0.035
4774,0.005,-0.035
4775,0.000,-0.040
4776,-0.005,-0.045
4777,-0.010,-0.045
4778,-0.015,-0.045
4779,-0.015,-0.045
4780,-0.015,-0.045
4781,-0.020,-0.045
4782,-0.015,-0.045
4783,0.000,-0.045
4784,0.005,-0.045
4785,0.005,-0.045
4786,0.005,-0.045
4787,0.010,-0.045
4788,0.020,-0.045
4789,0.030,-0.040
4790,0.030,-0.025
4791,0.020,-0.010
4792,0.025,-0.005
4793,0.035,-0.005
4794,0.045,-0.010
4795,0.055,-0.015
4796,0.040,-0.015
4797,0.025,-0.015
4798,0.020,-0.020
4799,0.015,-0.025
4800,0.005,-0.040
4801,-0.005,-0.055
4802,-0.010,-0.055
4803,-0.015,-0.055
4804,-0.030,-0.060
4805,-0.045,-0.065
4806,-0.055,-0.065
4807,-0.065,-0.065
4808,-0.070,-0.070
4809,-0.075,-0.075
4810,-0.075,-0.080
4811,-0.075,-0.085
4812,-0.075,-0.085
4813,-0.075,-0.085
4814,-0.070,-0.090
4815,-0.070,-0.095
4816,-0.085,-0.095
4817,-0.090,-0.095
4818,-0.080,-0.090
4819,-0.075,-0.085
4820,-0.075,-0.090
4821,-0.080,-0.095
4822,-0.090,-0.090
4823,-0.080,-0.085
4824,-0.055,-0.080
4825,0.135,-0.065
4826,0.370,-0.050
4827,0.650,0.030
4828,0.935,0.120
4829,0.755,0.210
4830,0.495,0.295
4831,0.175,0.205
4832,-0.150,0.090
4833,-0.380,-0.230
4834,-0.605,-0.555
4835,-0.485,-0.670
4836,-0.360,-0.775
4837,-0.265,-0.595
4838,-0.175,-0.425
4839,-0.145,-0.290
4840,-0.115,-0.170
4841,-0.105,-0.110
4842,-0.095,-0.065
4843,-0.090,-0.050
4844,-0.085,-0.035
4845,-0.075,-0.040
4846,-0.065,-0.045
4847,-0.070,-0.045
4848,-0.075,-0.045
4849,-0.080,-0.045
4850,-0.080,-0.045
4851,-0.065,-0.045
4852,-0.055,-0.045
4853,-0.055,-0.035
4854,-0.055,-0.025
4855,-0.055,-0.030
4856,-0.055,-0.035
4857,-0.050,-0.030
4858,-0.045,-0.025
4859,-0.045,-0.025
4860,-0.040,-0.025
4861,-0.030,-0.020
4862,-0.025,-0.015
4863,-0.020,-0.010
4864,-0.015,-0.005
4865,-0.010,-0.005
4866,-0.005,-0.005
4867,0.000,0.000
4868,0.005,0.005
4869,0.010,0.005
4870,0.015,0.005
4871,0.020,0.010
4872,0.025,0.015
4873,0.030,0.020
4874,0.045,0.030
4875,0.035,0.025
4876,0.075,0.055
4877,0.085,0.065
4878,0.095,0.075
4879,0.105,0.085
4880,0.120,0.095
4881,0.135,0.105
4882,0.155,0.120
4883,0.175,0.135
4884,0.190,0.150
4885,0.205,0.165
4886,0.210,0.170
4887,0.215,0.175
4888,0.225,0.180
4889,0.235,0.185
4890,0.230,0.190
4891,0.225,0.195
4892,0.220,0.195
4893,0.215,0.190
4894,0.205,0.175
4895,0.185,0.160
4896,0.150,0.145
4897,0.125,0.130
4898,0.105,0.115
4899,0.085,0.095
4900,0.065,0.065
4901,0.045,0.040
4902,0.025,0.015
4903,0.010,0.000
4904,0.000,-0.010
4905,-0.010,-0.025
4906,-0.020,-0.040
4907,-0.025,-0.045
4908,-0.025,-0.045
4909,-0.035,-0.050
4910,-0.050,-0.060
4911,-0.055,-0.065
4912,-0.055,-0.070
4913,-0.055,-0.075
4914,-0.055,-0.075
4915,-0.055,-0.075
4916,-0.055,-0.075
4917,-0.050,-0.075
4918,-0.045,-0.075
4919,-0.050,-0.075
4920,-0.055,-0.075
4921,-0.050,-0.075
4922,-0.045,-0.075
4923,-0.035,-0.070
4924,-0.025,-0.065
4925,-0.020,-0.060
4926,-0.015,-0.055
4927,-0.015,-0.055
4928,-0.015,-0.055
4929,-0.010,-0.050
4930,-0.005,-0.045
4931,0.000,-0.040
4932,0.005,-0.035
4933,0.010,-0.040
4934,0.015,-0.045
4935,0.015,-0.045
4936,0.015,-0.045
4937,0.010,-0.040
4938,0.005,-0.035
4939,0.005,-0.040
4940,0.005,-0.045
4941,0.010,-0.045
4942,0.010,-0.045
4943,0.000,-0.045
4944,-0.005,-0.045
4945,-0.010,-0.050
4946,-0.015,-0.055
4947,-0.015,-0.055
4948,-0.015,-0.060
4949,-0.015,-0.070
4950,-0.015,-0.075
4951,-0.020,-0.075
4952,-0.025,-0.075
4953,-0.020,-0.075
4954,-0.015,-0.075
4955,-0.015,-0.070
4956,-0.015,-0.065
4957,-0.015,-0.065
4958,-0.010,-0.065
4959,0.005,-0.055
4960,0.005,-0.050
4961,0.005,-0.045
4962,0.025,-0.035
4963,0.045,-0.025
4964,0.050,-0.030
4965,0.055,-0.035
4966,0.040,-0.040
4967,0.025,-0.045
4968,0.030,-0.050
4969,0.035,-0.055
4970,0.030,-0.060
4971,0.025,-0.065
4972,0.015,-0.075
4973,0.000,-0.085
4974,-0.015,-0.085
4975,-0.030,-0.085
4976,-0.045,-0.090
4977,-0.055,-0.095
4978,-0.050,-0.095
4979,-0.045,-0.095
4980,-0.060,-0.110
4981,-0.065,-0.115
4982,-0.065,-0.115
4983,-0.065,-0.115
4984,-0.065,-0.110
4985,-0.065,-0.105
4986,-0.070,-0.105
4987,-0.075,-0.105
4988,-0.075,-0.105
4989,-0.075,-0.105
4990,-0.080,-0.100
4991,-0.100,-0.095
4992,-0.120,-0.095
4993,-0.110,-0.090
4994,-0.090,-0.080
4995,0.085,-0.070
4996,0.285,-0.060
4997,0.595,0.015
4998,0.920,0.100
4999,0.795,0.200
5000,0.940,0.105
5001,0.310,0.265
5002,-0.015,0.210
5003,-0.295,-0.115
5004,-0.550,-0.435
5005,-0.450,-0.685
5006,-0.355,-0.880
5007,-0.275,-0.695
5008,-0.200,-0.515
5009,-0.160,-0.355
5010,-0.125,-0.210
5011,-0.120,-0.140
5012,-0.115,-0.085
5013,-0.115,-0.070
5014,-0.115,-0.055
5015,-0.120,-0.055
5016,-0.125,-0.055
5017,-0.115,-0.050
5018,-0.105,-0.045
5019,-0.105,-0.050
5020,-0.105,-0.055
5021,-0.105,-0.055
5022,-0.105,-0.055
5023,-0.105,-0.050
5024,-0.100,-0.045
5025,-0.090,-0.045
5026,-0.085,-0.045
5027,-0.090,-0.040
5028,-0.095,-0.035
5029,-0.090,-0.035
5030,-0.085,-0.035
5031,-0.080,-0.030
5032,-0.070,-0.025
5033,-0.060,-0.020
5034,-0.055,-0.015
5035,-0.060,-0.015
5036,-0.065,-0.015
5037,-0.060,-0.010
5038,-0.055,-0.005
5039,-0.050,-0.005
5040,-0.045,-0.005
5041,-0.040,0.000
5042,-0.030,0.015
5043,-0.025,0.025
5044,-0.020,0.025
5045,-0.015,0.025
5046,-0.005,0.035
5047,0.005,0.045
5048,0.025,0.055
5049,0.045,0.065
5050,0.050,0.075
5051,0.055,0.085
5052,0.070,0.095
5053,0.090,0.105
5054,0.115,0.115
5055,0.135,0.125
5056,0.145,0.145
5057,0.155,0.155
5058,0.160,0.160
5059,0.170,0.165
5060,0.190,0.175
5061,0.205,0.185
5062,0.195,0.180
5063,0.190,0.175
5064,0.200,0.175
5065,0.190,0.170
5066,0.160,0.155
5067,0.135,0.145
5068,0.115,0.140
5069,0.095,0.125
5070,0.075,0.105
5071,0.055,0.085
5072,0.035,0.065
5073,0.015,0.040
5074,0.000,0.015
5075,-0.015,0.000
5076,-0.030,-0.010
5077,-0.045,-0.020
5078,-0.060,-0.030
5079,-0.065,-0.040
5080,-0.065,-0.050
5081,-0.070,-0.055
5082,-0.080,-0.055
5083,-0.085,-0.055
5084,-0.085,-0.065
5085,-0.095,-0.065
5086,-0.105,-0.065
5087,-0.090,-0.060
5088,-0.075,-0.055
5089,-0.075,-0.060
5090,-0.075,-0.065
5091,-0.080,-0.060
5092,-0.085,-0.055
5093,-0.085,-0.050
5094,-0.085,-0.045
5095,-0.080,-0.045
5096,-0.075,-0.045
5097,-0.065,-0.045
5098,-0.055,-0.045
5099,-0.060,-0.040
5100,-0.065,-0.035
5101,-0.070,-0.040
5102,-0.070,-0.045
5103,-0.055,-0.035
5104,-0.045,-0.025
5105,-0.050,-0.030
5106,-0.055,-0.035
5107,-0.050,-0.030
5108,-0.045,-0.025
5109,-0.040,-0.030
5110,-0.040,-0.035
5111,-0.055,-0.035
5112,-0.065,-0.035
5113,-0.070,-0.035
5114,-0.070,-0.035
5115,-0.060,-0.035
5116,-0.055,-0.035
5117,-0.055,-0.040
5118,-0.060,-0.045
5119,-0.070,-0.050
5120,-0.075,-0.055
5121,-0.080,-0.060
5122,-0.080,-0.065
5123,-0.070,-0.065
5124,-0.065,-0.070
5125,-0.065,-0.065
5126,-0.065,-0.080
5127,-0.065,-0.075
5128,-0.050,-0.080
5129,-0.035,-0.085
5130,-0.045,-0.080
5131,-0.055,-0.075
5132,-0.055,-0.065
5133,-0.050,-0.055
5134,-0.020,-0.055
5135,0.005,-0.055
5136,0.010,-0.050
5137,0.015,-0.045
5138,0.015,-0.045
5139,0.010,-0.045
5140,-0.005,-0.050
5141,-0.015,-0.055
5142,-0.015,-0.055
5143,-0.020,-0.055
5144,-0.035,-0.065
5145,-0.050,-0.075
5146,-0.065,-0.070
5147,-0.075,-0.065
5148,-0.080,-0.070
5149,-0.095,-0.075
5150,-0.125,-0.075
5151,-0.135,-0.075
5152,-0.130,-0.075
5153,-0.125,-0.075
5154,-0.120,-0.080
5155,-0.115,-0.085
5156,-0.120,-0.085
5157,-0.125,-0.085
5158,-0.120,-0.080
5159,-0.120,-0.075
5160,-0.130,-0.075
5161,-0.135,-0.075
5162,-0.135,-0.070
5163,-0.135,-0.065
5164,-0.140,-0.070
5165,-0.115,-0.070
5166,-0.080,-0.060
5167,0.220,-0.035
5168,0.520,-0.015
5169,0.710,0.080
5170,0.860,0.170
5171,0.535,0.250
5172,0.205,0.305
5173,-0.120,0.115
5174,-0.415,-0.095
5175,-0.555,-0.390
5176,-0.640,-0.630
5177,-0.505,-0.670
5178,-0.380,-0.670
5179,-0.285,-0.525
5180,-0.205,-0.385
5181,-0.165,-0.255
5182,-0.135,-0.145
5183,-0.125,-0.090
5184,-0.115,-0.050
5185,-0.115,-0.035
5186,-0.115,-0.025
5187,-0.110,-0.025
5188,-0.105,-0.025
5189,-0.105,-0.025
5190,-0.105,-0.025
5191,-0.105,-0.025
5192,-0.105,-0.025
5193,-0.110,-0.020
5194,-0.110,-0.015
5195,-0.100,-0.020
5196,-0.090,-0.025
5197,-0.080,-0.020
5198,-0.075,-0.015
5199,-0.075,-0.010
5200,-0.075,-0.005
5201,-0.075,-0.005
5202,-0.075,-0.005
5203,-0.070,0.000
5204,-0.065,0.005
5205,-0.060,0.005
5206,-0.055,0.005
5207,-0.055,0.005
5208,-0.055,0.005
5209,-0.045,0.015
5210,-0.040,0.020
5211,-0.035,0.025
5212,-0.025,0.035
5213,-0.015,0.045
5214,-0.005,0.045
5215,0.005,0.045
5216,0.010,0.045
5217,0.015,0.045
5218,0.025,0.055
5219,0.040,0.065
5220,0.060,0.075
5221,0.075,0.085
5222,0.080,0.100
5223,0.090,0.115
5224,0.110,0.125
5225,0.125,0.135
5226,0.135,0.145
5227,0.150,0.155
5228,0.165,0.160
5229,0.175,0.165
5230,0.170,0.180
5231,0.165,0.185
5232,0.165,0.185
5233,0.160,0.180
5234,0.145,0.170
5235,0.130,0.160
5236,0.115,0.150
5237,0.090,0.135
5238,0.065,0.120
5239,0.045,0.105
5240,0.020,0.090
5241,0.005,0.065
5242,-0.010,0.035
5243,-0.020,0.020
5244,-0.030,0.010
5245,-0.045,0.005
5246,-0.060,0.000
5247,-0.070,-0.015
5248,-0.080,-0.030
5249,-0.085,-0.035
5250,-0.085,-0.035
5251,-0.095,-0.050
5252,-0.095,-0.055
5253,-0.100,-0.060
5254,-0.105,-0.065
5255,-0.115,-0.065
5256,-0.125,-0.065
5257,-0.125,-0.065
5258,-0.125,-0.065
5259,-0.120,-0.070
5260,-0.115,-0.075
5261,-0.110,-0.075
5262,-0.105,-0.075
5263,-0.100,-0.075
5264,-0.095,-0.075
5265,-0.090,-0.070
5266,-0.085,-0.065
5267,-0.080,-0.065
5268,-0.075,-0.065
5269,-0.075,-0.060
5270,-0.075,-0.055
5271,-0.070,-0.055
5272,-0.065,-0.055
5273,-0.060,-0.055
5274,-0.055,-0.055
5275,-0.050,-0.050
5276,-0.045,-0.045
5277,-0.045,-0.050
5278,-0.045,-0.055
5279,-0.050,-0.055
5280,-0.055,-0.055
5281,-0.050,-0.055
5282,-0.045,-0.055
5283,-0.050,-0.060
5284,-0.055,-0.065
5285,-0.055,-0.065
5286,-0.055,-0.065
5287,-0.060,-0.070
5288,-0.065,-0.075
5289,-0.065,-0.070
5290,-0.065,-0.065
5291,-0.065,-0.070
5292,-0.070,-0.080
5293,-0.075,-0.085
5294,-0.075,-0.085
5295,-0.075,-0.085
5296,-0.065,-0.080
5297,-0.055,-0.075
5298,-0.055,-0.075
5299,-0.055,-0.075
5300,-0.040,-0.070
5301,-0.025,-0.065
5302,-0.045,-0.060
5303,-0.065,-0.055
5304,-0.050,-0.045
5305,-0.035,-0.035
5306,-0.025,-0.040
5307,-0.015,-0.045
5308,-0.020,-0.050
5309,-0.025,-0.055
5310,-0.030,-0.060
5311,-0.040,-0.065
5312,-0.055,-0.075
5313,-0.065,-0.085
5314,-0.065,-0.085
5315,-0.075,-0.085
5316,-0.100,-0.090
5317,-0.115,-0.095
5318,-0.120,-0.100
5319,-0.130,-0.105
5320,-0.140,-0.105
5321,-0.145,-0.105
5322,-0.150,-0.110
5323,-0.155,-0.120
5324,-0.155,-0.130
5325,-0.155,-0.135
5326,-0.155,-0.130
5327,-0.155,-0.125
5328,-0.155,-0.125
5329,-0.155,-0.125
5330,-0.155,-0.125
5331,-0.155,-0.125
5332,-0.160,-0.130
5333,-0.175,-0.135
5334,-0.195,-0.135
5335,-0.170,-0.125
5336,-0.135,-0.115
5337,0.075,-0.105
5338,0.300,-0.090
5339,0.625,0.000
5340,0.875,0.085
5341,0.685,0.180
5342,0.470,0.245
5343,0.145,0.170
5344,-0.175,0.035
5345,-0.455,-0.290
5346,-0.625,-0.580
5347,-0.525,-0.770
5348,-0.430,-0.835
5349,-0.340,-0.650
5350,-0.275,-0.475
5351,-0.240,-0.325
5352,-0.215,-0.215
5353,-0.205,-0.155
5354,-0.195,-0.125
5355,-0.195,-0.110
5356,-0.195,-0.105
5357,-0.190,-0.105
5358,-0.185,-0.105
5359,-0.185,-0.105
5360,-0.185,-0.105
5361,-0.185,-0.100
5362,-0.185,-0.095
5363,-0.180,-0.100
5364,-0.175,-0.105
5365,-0.175,-0.100
5366,-0.175,-0.095
5367,-0.170,-0.095
5368,-0.165,-0.095
5369,-0.160,-0.090
5370,-0.155,-0.085
5371,-0.150,-0.080
5372,-0.145,-0.075
5373,-0.145,-0.080
5374,-0.145,-0.085
5375,-0.145,-0.085
5376,-0.125,-0.075
5377,-0.115,-0.065
5378,-0.120,-0.065
5379,-0.125,-0.065
5380,-0.120,-0.065
5381,-0.115,-0.065
5382,-0.105,-0.060
5383,-0.095,-0.055
5384,-0.090,-0.045
5385,-0.085,-0.035
5386,-0.075,-0.030
5387,-0.065,-0.025
5388,-0.055,-0.020
5389,-0.045,-0.015
5390,-0.040,-0.005
5391,-0.030,0.010
5392,0.000,0.025
5393,0.015,0.035
5394,0.025,0.040
5395,0.035,0.050
5396,0.050,0.065
5397,0.060,0.075
5398,0.075,0.080
5399,0.085,0.090
5400,0.090,0.105
5401,0.100,0.115
5402,0.110,0.115
5403,0.115,0.115
5404,0.110,0.115
5405,0.100,0.115
5406,0.090,0.110
5407,0.080,0.100
5408,0.070,0.090
5409,0.045,0.070
5410,0.020,0.050
5411,0.005,0.040
5412,-0.010,0.030
5413,-0.030,0.005
5414,-0.050,-0.020
5415,-0.075,-0.040
5416,-0.100,-0.060
5417,-0.110,-0.080
5418,-0.115,-0.095
5419,-0.125,-0.110
5420,-0.135,-0.125
5421,-0.140,-0.130
5422,-0.145,-0.135
5423,-0.145,-0.145
5424,-0.145,-0.155
5425,-0.160,-0.155
5426,-0.175,-0.155
5427,-0.175,-0.155
5428,-0.175,-0.155
5429,-0.180,-0.160
5430,-0.185,-0.165
5431,-0.175,-0.160
5432,-0.165,-0.155
5433,-0.160,-0.155
5434,-0.155,-0.155
5435,-0.145,-0.150
5436,-0.135,-0.145
5437,-0.130,-0.150
5438,-0.120,-0.150
5439,-0.110,-0.140
5440,-0.110,-0.135
5441,-0.120,-0.130
5442,-0.125,-0.125
5443,-0.125,-0.130
5444,-0.125,-0.135
5445,-0.130,-0.135
5446,-0.130,-0.135
5447,-0.120,-0.135
5448,-0.115,-0.135
5449,-0.115,-0.140
5450,-0.115,-0.145
5451,-0.120,-0.145
5452,-0.125,-0.145
5453,-0.125,-0.150
5454,-0.125,-0.155
5455,-0.130,-0.155
5456,-0.140,-0.155
5457,-0.150,-0.160
5458,-0.155,-0.165
5459,-0.155,-0.175
5460,-0.145,-0.175
5461,-0.135,-0.175
5462,-0.150,-0.175
5463,-0.165,-0.175
5464,-0.165,-0.175
5465,-0.165,-0.175
5466,-0.170,-0.180
5467,-0.175,-0.185
5468,-0.175,-0.185
5469,-0.170,-0.185
5470,-0.150,-0.180
5471,-0.135,-0.175
5472,-0.120,-0.175
5473,-0.110,-0.175
5474,-0.135,-0.170
5475,-0.150,-0.165
5476,-0.135,-0.155
5477,-0.120,-0.145
5478,-0.105,-0.150
5479,-0.095,-0.155
5480,-0.095,-0.150
5481,-0.095,-0.150
5482,-0.100,-0.160
5483,-0.110,-0.165
5484,-0.120,-0.170
5485,-0.125,-0.180
5486,-0.130,-0.190
5487,-0.145,-0.195
5488,-0.160,-0.195
5489,-0.175,-0.195
5490,-0.190,-0.200
5491,-0.195,-0.205
5492,-0.200,-0.210
5493,-0.205,-0.215
5494,-0.205,-0.210
5495,-0.200,-0.210
5496,-0.190,-0.220
5497,-0.185,-0.225
5498,-0.190,-0.225
5499,-0.200,-0.225
5500,-0.195,-0.225
5501,-0.200,-0.220
5502,-0.185,-0.215
5503,-0.190,-0.220
5504,-0.195,-0.225
5505,-0.200,-0.220
5506,-0.205,-0.215
5507,-0.215,-0.215
5508,-0.195,-0.215
5509,-0.025,-0.195
5510,0.180,-0.165
5511,0.500,-0.110
5512,0.695,-0.040
5513,0.555,0.065
5514,0.350,0.115
5515,0.020,0.050
5516,-0.290,-0.110
5517,-0.585,-0.415
5518,-0.710,-0.670
5519,-0.595,-0.855
5520,-0.485,-0.890
5521,-0.380,-0.740
5522,-0.305,-0.585
5523,-0.265,-0.420
5524,-0.235,-0.305
5525,-0.215,-0.235
5526,-0.215,-0.200
5527,-0.235,-0.185
5528,-0.235,-0.175
5529,-0.215,-0.170
5530,-0.205,-0.170
5531,-0.210,-0.180
5532,-0.215,-0.185
5533,-0.210,-0.180
5534,-0.205,-0.175
5535,-0.205,-0.170
5536,-0.205,-0.165
5537,-0.205,-0.170
5538,-0.205,-0.175
5539,-0.200,-0.170
5540,-0.190,-0.165
5541,-0.180,-0.165
5542,-0.180,-0.165
5543,-0.185,-0.165
5544,-0.185,-0.160
5545,-0.185,-0.155
5546,-0.170,-0.155
5547,-0.155,-0.155
5548,-0.160,-0.145
5549,-0.165,-0.135
5550,-0.145,-0.135
5551,-0.125,-0.135
5552,-0.130,-0.135
5553,-0.135,-0.135
5554,-0.130,-0.130
5555,-0.125,-0.125
5556,-0.130,-0.115
5557,-0.130,-0.105
5558,-0.110,-0.105
5559,-0.085,-0.105
5560,-0.060,-0.100
5561,-0.045,-0.095
5562,-0.040,-0.085
5563,-0.035,-0.070
5564,-0.030,-0.060
5565,-0.020,-0.050
5566,-0.005,-0.040
5567,0.015,-0.030
5568,0.035,-0.020
5569,0.050,-0.010
5570,0.060,0.000
5571,0.070,0.010
5572,0.080,0.020
5573,0.085,0.025
5574,0.080,0.025
5575,0.065,0.020
5576,0.050,0.010
5577,0.045,0.005
5578,0.050,0.005
5579,0.045,0.000
5580,0.030,-0.010
5581,0.005,-0.025
5582,-0.020,-0.040
5583,-0.040,-0.055
5584,-0.065,-0.075
5585,-0.080,-0.095
5586,-0.095,-0.115
5587,-0.115,-0.130
5588,-0.135,-0.145
5589,-0.140,-0.155
5590,-0.145,-0.165
5591,-0.155,-0.175
5592,-0.165,-0.185
5593,-0.165,-0.190
5594,-0.165,-0.195
5595,-0.165,-0.195
5596,-0.165,-0.195
5597,-0.175,-0.195
5598,-0.185,-0.195
5599,-0.185,-0.195
5600,-0.185,-0.195
5601,-0.180,-0.200
5602,-0.175,-0.205
5603,-0.175,-0.205
5604,-0.175,-0.205
5605,-0.175,-0.205
5606,-0.175,-0.205
5607,-0.175,-0.205
5608,-0.170,-0.200
5609,-0.160,-0.190
5610,-0.150,-0.185
5611,-0.140,-0.185
5612,-0.135,-0.185
5613,-0.135,-0.185
5614,-0.135,-0.180
5615,-0.135,-0.170
5616,-0.135,-0.165
5617,-0.130,-0.165
5618,-0.120,-0.165
5619,-0.110,-0.160
5620,-0.110,-0.155
5621,-0.120,-0.155
5622,-0.125,-0.155
5623,-0.125,-0.155
5624,-0.125,-0.155
5625,-0.125,-0.155
5626,-0.130,-0.155
5627,-0.125,-0.155
5628,-0.130,-0.155
5629,-0.135,-0.155
5630,-0.135,-0.155
5631,-0.135,-0.155
5632,-0.140,-0.155
5633,-0.145,-0.155
5634,-0.145,-0.150
5635,-0.145,-0.145
5636,-0.140,-0.150
5637,-0.135,-0.155
5638,-0.130,-0.150
5639,-0.125,-0.145
5640,-0.120,-0.140
5641,-0.110,-0.135
5642,-0.095,-0.135
5643,-0.090,-0.130
5644,-0.105,-0.115
5645,-0.110,-0.105
5646,-0.095,-0.100
5647,-0.080,-0.095
5648,-0.065,-0.100
5649,-0.060,-0.105
5650,-0.075,-0.105
5651,-0.085,-0.110
5652,-0.085,-0.120
5653,-0.085,-0.125
5654,-0.090,-0.130
5655,-0.100,-0.135
5656,-0.110,-0.140
5657,-0.125,-0.145
5658,-0.140,-0.145
5659,-0.150,-0.145
5660,-0.160,-0.145
5661,-0.170,-0.145
5662,-0.180,-0.150
5663,-0.185,-0.155
5664,-0.185,-0.155
5665,-0.185,-0.155
5666,-0.190,-0.155
5667,-0.190,-0.160
5668,-0.185,-0.165
5669,-0.185,-0.160
5670,-0.185,-0.155
5671,-0.180,-0.155
5672,-0.175,-0.155
5673,-0.180,-0.155
5674,-0.185,-0.155
5675,-0.195,-0.155
5676,-0.205,-0.155
5677,-0.200,-0.150
5678,-0.135,-0.145
5679,0.100,-0.130
5680,0.360,-0.095
5681,0.665,-0.015
5682,0.770,0.070
5683,0.500,0.180
5684,0.205,0.205
5685,-0.125,0.095
5686,-0.395,-0.110
5687,-0.600,-0.440
5688,-0.645,-0.660
5689,-0.515,-0.780
5690,-0.410,-0.750
5691,-0.325,-0.590
5692,-0.265,-0.440
5693,-0.230,-0.290
5694,-0.210,-0.200
5695,-0.190,-0.145
5696,-0.185,-0.115
5697,-0.185,-0.095
5698,-0.185,-0.090
5699,-0.190,-0.100
5700,-0.190,-0.105
5701,-0.180,-0.105
5702,-0.175,-0.105
5703,-0.170,-0.100
5704,-0.160,-0.095
5705,-0.150,-0.090
5706,-0.145,-0.085
5707,-0.150,-0.085
5708,-0.150,-0.085
5709,-0.135,-0.085
5710,-0.130,-0.080
5711,-0.125,-0.075
5712,-0.130,-0.070
5713,-0.135,-0.065
5714,-0.130,-0.060
5715,-0.125,-0.055
5716,-0.115,-0.055
5717,-0.105,-0.055
5718,-0.100,-0.055
5719,-0.095,-0.055
5720,-0.085,-0.045
5721,-0.075,-0.035
5722,-0.080,-0.035
5723,-0.085,-0.035
5724,-0.085,-0.030
5725,-0.080,-0.025
5726,-0.060,-0.025
5727,-0.040,-0.025
5728,-0.025,-0.015
5729,-0.015,-0.005
5730,0.000,0.010
5731,0.005,0.020
5732,0.010,0.030
5733,0.025,0.040
5734,0.055,0.050
5735,0.070,0.060
5736,0.085,0.070
5737,0.105,0.085
5738,0.120,0.100
5739,0.130,0.110
5740,0.140,0.120
5741,0.145,0.130
5742,0.150,0.140
5743,0.155,0.145
5744,0.160,0.150
5745,0.160,0.155
5746,0.150,0.150
5747,0.140,0.145
5748,0.130,0.140
5749,0.105,0.130
5750,0.125,0.135
5751,0.065,0.095
5752,0.055,0.075
5753,0.035,0.060
5754,0.015,0.045
5755,0.000,0.025
5756,-0.015,0.005
5757,-0.035,-0.015
5758,-0.055,-0.035
5759,-0.060,-0.040
5760,-0.065,-0.045
5761,-0.070,-0.060
5762,-0.075,-0.075
5763,-0.080,-0.080
5764,-0.085,-0.085
5765,-0.090,-0.085
5766,-0.095,-0.085
5767,-0.095,-0.090
5768,-0.095,-0.095
5769,-0.095,-0.095
5770,-0.095,-0.095
5771,-0.095,-0.100
5772,-0.100,-0.105
5773,-0.110,-0.100
5774,-0.105,-0.095
5775,-0.085,-0.095
5776,-0.075,-0.095
5777,-0.075,-0.095
5778,-0.070,-0.095
5779,-0.060,-0.090
5780,-0.055,-0.085
5781,-0.055,-0.080
5782,-0.050,-0.075
5783,-0.040,-0.070
5784,-0.035,-0.065
5785,-0.030,-0.065
5786,-0.025,-0.065
5787,-0.020,-0.060
5788,-0.015,-0.055
5789,-0.020,-0.050
5790,-0.025,-0.045
5791,-0.020,-0.050
5792,-0.020,-0.055
5793,-0.025,-0.055
5794,-0.030,-0.055
5795,-0.035,-0.055
5796,-0.035,-0.060
5797,-0.035,-0.065
5798,-0.035,-0.060
5799,-0.035,-0.055
5800,-0.040,-0.060
5801,-0.045,-0.065
5802,-0.045,-0.070
5803,-0.045,-0.075
5804,-0.055,-0.075
5805,-0.065,-0.075
5806,-0.055,-0.070
5807,-0.045,-0.065
5808,-0.045,-0.065
5809,-0.045,-0.065
5810,-0.035,-0.065
5811,-0.025,-0.065
5812,-0.025,-0.060
5813,-0.020,-0.055
5814,-0.005,-0.055
5815,0.000,-0.050
5816,-0.015,-0.040
5817,-0.015,-0.035
5818,0.005,-0.035
5819,0.020,-0.035
5820,0.030,-0.035
5821,0.035,-0.035
5822,0.030,-0.035
5823,0.025,-0.040
5824,0.020,-0.050
5825,0.010,-0.060
5826,0.000,-0.070
5827,-0.005,-0.075
5828,0.000,-0.080
5829,-0.020,-0.085
5830,-0.050,-0.085
5831,-0.055,-0.085
5832,-0.055,-0.085
5833,-0.055,-0.085
5834,-0.065,-0.095
5835,-0.070,-0.090
5836,-0.075,-0.085
5837,-0.075,-0.090
5838,-0.075,-0.095
5839,-0.075,-0.100
5840,-0.075,-0.105
5841,-0.080,-0.105
5842,-0.085,-0.105
5843,-0.080,-0.100
5844,-0.075,-0.095
5845,-0.075,-0.100
5846,-0.075,-0.105
5847,-0.080,-0.100
5848,-0.085,-0.095
5849,-0.095,-0.095
5850,-0.070,-0.090
5851,0.030,-0.075
5852,0.225,-0.050
5853,0.550,-0.010
5854,0.790,0.065
5855,0.935,0.180
5856,0.835,0.245
5857,0.505,0.270
5858,0.180,0.140
5859,-0.150,-0.110
5860,-0.320,-0.405
5861,-0.395,-0.735
5862,-0.360,-0.780
5863,-0.265,-0.675
5864,-0.195,-0.515
5865,-0.140,-0.330
5866,-0.115,-0.215
5867,-0.100,-0.115
5868,-0.095,-0.080
5869,-0.095,-0.060
5870,-0.095,-0.055
5871,-0.095,-0.055
5872,-0.095,-0.055
5873,-0.095,-0.055
5874,-0.090,-0.055
5875,-0.095,-0.055
5876,-0.065,-0.055
5877,-0.055,-0.055
5878,-0.065,-0.050
5879,-0.075,-0.045
5880,-0.065,-0.040
5881,-0.055,-0.035
5882,-0.055,-0.035
5883,-0.055,-0.035
5884,-0.050,-0.035
5885,-0.045,-0.035
5886,-0.045,-0.030
5887,-0.045,-0.025
5888,-0.040,-0.025
5889,-0.035,-0.025
5890,-0.030,-0.025
5891,-0.025,-0.025
5892,-0.015,-0.020
5893,-0.005,-0.015
5894,-0.015,-0.015
5895,-0.025,-0.015
5896,-0.010,-0.010
5897,-0.005,-0.005
5898,-0.005,0.000
5899,0.005,0.010
5900,0.035,0.020
5901,0.045,0.025
5902,0.045,0.025
5903,0.045,0.025
5904,0.050,0.030
5905,0.055,0.040
5906,0.060,0.050
5907,0.080,0.065
5908,0.105,0.080
5909,0.125,0.090
5910,0.140,0.100
5911,0.155,0.110
5912,0.170,0.120
5913,0.175,0.125
5914,0.180,0.125
5915,0.190,0.135
5916,0.200,0.150
5917,0.195,0.150
5918,0.185,0.145
5919,0.180,0.135
5920,0.175,0.125
5921,0.165,0.115
5922,0.155,0.105
5923,0.140,0.095
5924,0.125,0.085
5925,0.115,0.065
5926,0.100,0.040
5927,0.070,0.015
5928,0.040,-0.005
5929,0.020,-0.010
5930,0.005,-0.020
5931,0.005,-0.040
5932,0.000,-0.055
5933,-0.020,-0.060
5934,-0.030,-0.065
5935,-0.015,-0.075
5936,-0.005,-0.085
5937,-0.015,-0.095
5938,-0.030,-0.105
5939,-0.040,-0.105
5940,-0.045,-0.105
5941,-0.045,-0.110
5942,-0.045,-0.115
5943,-0.045,-0.110
5944,-0.040,-0.105
5945,-0.030,-0.110
5946,-0.025,-0.115
5947,-0.030,-0.115
5948,-0.035,-0.115
5949,-0.035,-0.115
5950,-0.035,-0.115
5951,-0.030,-0.115
5952,-0.030,-0.115
5953,-0.040,-0.110
5954,-0.035,-0.105
5955,-0.020,-0.100
5956,-0.015,-0.095
5957,-0.010,-0.095
5958,-0.005,-0.095
5959,-0.005,-0.085
5960,-0.005,-0.075
5961,-0.005,-0.065
5962,-0.005,-0.065
5963,-0.005,-0.065
5964,0.000,-0.065
5965,0.005,-0.065
5966,-0.005,-0.065
5967,-0.015,-0.065
5968,-0.025,-0.065
5969,-0.035,-0.065
5970,-0.035,-0.065
5971,-0.035,-0.065
5972,-0.025,-0.070
5973,-0.015,-0.075
5974,-0.025,-0.075
5975,-0.035,-0.075
5976,-0.030,-0.075
5977,-0.025,-0.075
5978,-0.025,-0.075
5979,-0.025,-0.075
5980,-0.025,-0.080
5981,-0.025,-0.085
5982,-0.020,-0.085
5983,-0.015,-0.080
5984,-0.015,-0.070
5985,-0.010,-0.065
5986,0.000,-0.065
5987,0.005,-0.060
5988,0.005,-0.050
5989,0.015,-0.045
5990,0.030,-0.045
5991,0.035,-0.045
5992,0.040,-0.045
5993,0.045,-0.045
5994,0.040,-0.045
5995,0.030,-0.050
5996,0.020,-0.060
5997,0.010,-0.065
5998,0.000,-0.070
5999,-0.005,-0.075
6000,-0.005,-0.075
6001,-0.010,-0.090
6002,-0.025,-0.095
6003,-0.040,-0.090
6004,-0.055,-0.085
6005,-0.065,-0.090
6006,-0.075,-0.095
6007,-0.080,-0.095
6008,-0.085,-0.095
6009,-0.085,-0.095
6010,-0.085,-0.095
6011,-0.095,-0.095
6012,-0.105,-0.095
6013,-0.100,-0.100
6014,-0.095,-0.105
6015,-0.090,-0.105
6016,-0.085,-0.105
6017,-0.080,-0.100
6018,-0.075,-0.095
6019,-0.080,-0.095
6020,-0.090,-0.095
6021,-0.105,-0.095
6022,-0.045,-0.090
6023,0.100,-0.075
6024,0.345,-0.040
6025,0.670,0.015
6026,0.800,0.105
6027,0.800,0.220
6028,0.580,0.255
6029,0.255,0.240
6030,-0.075,0.055
6031,-0.400,-0.200
6032,-0.510,-0.460
6033,-0.545,-0.720
6034,-0.450,-0.735
6035,-0.320,-0.675
6036,-0.245,-0.530
6037,-0.185,-0.365
6038,-0.155,-0.250
6039,-0.130,-0.145
6040,-0.120,-0.110
6041,-0.110,-0.080
6042,-0.105,-0.065
6043,-0.105,-0.055
6044,-0.105,-0.060
6045,-0.105,-0.065
6046,-0.105,-0.065
6047,-0.105,-0.065
6048,-0.095,-0.060
6049,-0.085,-0.055
6050,-0.085,-0.055
6051,-0.085,-0.055
6052,-0.085,-0.055
6053,-0.085,-0.055
6054,-0.085,-0.050
6055,-0.085,-0.045
6056,-0.080,-0.040
6057,-0.075,-0.035
6058,-0.065,-0.035
6059,-0.055,-0.035
6060,-0.055,-0.030
6061,-0.055,-0.025
6062,-0.050,-0.025
6063,-0.040,-0.025
6064,-0.030,-0.025
6065,-0.025,-0.025
6066,-0.030,-0.020
6067,-0.030,-0.015
6068,-0.015,-0.010
6069,-0.005,-0.005
6070,0.000,-0.005
6071,0.010,0.000
6072,0.020,0.010
6073,0.025,0.020
6074,0.030,0.030
6075,0.035,0.035
6076,0.040,0.040
6077,0.060,0.045
6078,0.080,0.045
6079,0.095,0.060
6080,0.110,0.080
6081,0.125,0.090
6082,0.140,0.100
6083,0.150,0.115
6084,0.165,0.135
6085,0.170,0.140
6086,0.175,0.145
6087,0.180,0.150
6088,0.185,0.155
6089,0.180,0.150
6090,0.175,0.145
6091,0.165,0.140
6092,0.155,0.135
6093,0.140,0.130
6094,0.125,0.125
6095,0.115,0.110
6096,0.100,0.095
6097,0.080,0.080
6098,0.060,0.060
6099,0.040,0.045
6100,0.020,0.030
6101,0.005,0.010
6102,-0.005,-0.005
6103,-0.015,-0.015
6104,-0.030,-0.025
6105,-0.045,-0.040
6106,-0.055,-0.050
6107,-0.060,-0.065
6108,-0.065,-0.075
6109,-0.065,-0.080
6110,-0.065,-0.085
6111,-0.070,-0.085
6112,-0.075,-0.085
6113,-0.080,-0.090
6114,-0.085,-0.095
6115,-0.085,-0.095
6116,-0.085,-0.095
6117,-0.080,-0.095
6118,-0.070,-0.095
6119,-0.060,-0.095
6120,-0.055,-0.095
6121,-0.050,-0.090
6122,-0.045,-0.080
6123,-0.040,-0.070
6124,-0.035,-0.065
6125,-0.035,-0.065
6126,-0.025,-0.070
6127,-0.025,-0.065
6128,-0.020,-0.065
6129,-0.015,-0.065
6130,-0.020,-0.065
6131,-0.025,-0.065
6132,-0.020,-0.065
6133,-0.015,-0.065
6134,-0.020,-0.065
6135,-0.025,-0.065
6136,-0.030,-0.065
6137,-0.035,-0.065
6138,-0.040,-0.065
6139,-0.045,-0.065
6140,-0.045,-0.070
6141,-0.045,-0.075
6142,-0.040,-0.075
6143,-0.035,-0.075
6144,-0.045,-0.075
6145,-0.055,-0.075
6146,-0.055,-0.080
6147,-0.055,-0.085
6148,-0.050,-0.085
6149,-0.045,-0.085
6150,-0.050,-0.080
6151,-0.050,-0.075
6152,-0.040,-0.080
6153,-0.035,-0.085
6154,-0.035,-0.080
6155,-0.025,-0.075
6156,-0.010,-0.070
6157,-0.005,-0.065
6158,0.000,-0.065
6159,0.000,-0.060
6160,-0.010,-0.050
6161,-0.010,-0.045
6162,0.000,-0.050
6163,0.010,-0.055
6164,0.020,-0.055
6165,0.020,-0.055
6166,0.010,-0.060
6167,0.000,-0.070
6168,-0.005,-0.075
6169,-0.005,-0.080
6170,-0.005,-0.085
6171,-0.020,-0.090
6172,-0.035,-0.095
6173,-0.045,-0.095
6174,-0.055,-0.095
6175,-0.070,-0.105
6176,-0.085,-0.115
6177,-0.090,-0.110
6178,-0.095,-0.105
6179,-0.100,-0.115
6180,-0.105,-0.125
6181,-0.105,-0.120
6182,-0.105,-0.115
6183,-0.105,-0.120
6184,-0.105,-0.125
6185,-0.105,-0.125
6186,-0.105,-0.125
6187,-0.105,-0.120
6188,-0.105,-0.115
6189,-0.105,-0.120
6190,-0.115,-0.125
6191,-0.140,-0.120
6192,-0.115,-0.110
6193,-0.045,-0.100
6194,0.175,-0.075
6195,0.470,-0.040
6196,0.730,0.045
6197,0.975,0.145
6198,0.805,0.210
6199,0.480,0.260
6200,0.150,0.135
6201,-0.175,-0.040
6202,-0.370,-0.345
6203,-0.540,-0.670
6204,-0.460,-0.740
6205,-0.335,-0.770
6206,-0.260,-0.600
6207,-0.190,-0.405
6208,-0.170,-0.285
6209,-0.145,-0.165
6210,-0.140,-0.135
6211,-0.135,-0.105
6212,-0.135,-0.095
6213,-0.135,-0.085
6214,-0.125,-0.095
6215,-0.115,-0.105
6216,-0.120,-0.105
6217,-0.125,-0.105
6218,-0.125,-0.095
6219,-0.125,-0.085
6220,-0.120,-0.085
6221,-0.115,-0.085
6222,-0.105,-0.085
6223,-0.095,-0.085
6224,-0.095,-0.085
6225,-0.095,-0.085
6226,-0.090,-0.080
6227,-0.085,-0.075
6228,-0.080,-0.070
6229,-0.075,-0.065
6230,-0.075,-0.065
6231,-0.075,-0.065
6232,-0.070,-0.060
6233,-0.065,-0.055
6234,-0.060,-0.055
6235,-0.055,-0.055
6236,-0.050,-0.050
6237,-0.045,-0.045
6238,-0.040,-0.040
6239,-0.035,-0.035
6240,-0.030,-0.035
6241,-0.020,-0.035
6242,-0.010,-0.030
6243,0.000,-0.025
6244,0.010,-0.020
6245,0.020,-0.010
6246,0.030,0.000
6247,0.035,0.005
6248,0.040,0.010
6249,0.055,0.025
6250,0.045,0.015
6251,0.095,0.055
6252,0.115,0.065
6253,0.125,0.075
6254,0.135,0.085
6255,0.145,0.100
6256,0.155,0.115
6257,0.155,0.115
6258,0.155,0.115
6259,0.160,0.110
6260,0.165,0.105
6261,0.155,0.105
6262,0.145,0.105
6263,0.135,0.095
6264,0.120,0.080
6265,0.100,0.060
6266,0.080,0.045
6267,0.065,0.035
6268,0.050,0.020
6269,0.035,0.000
6270,0.020,-0.020
6271,0.005,-0.045
6272,-0.010,-0.060
6273,-0.025,-0.075
6274,-0.035,-0.090
6275,-0.040,-0.100
6276,-0.045,-0.110
6277,-0.050,-0.120
6278,-0.060,-0.125
6279,-0.070,-0.130
6280,-0.075,-0.135
6281,-0.075,-0.140
6282,-0.070,-0.145
6283,-0.060,-0.145
6284,-0.055,-0.145
6285,-0.055,-0.150
6286,-0.055,-0.155
6287,-0.055,-0.150
6288,-0.055,-0.145
6289,-0.050,-0.145
6290,-0.045,-0.145
6291,-0.045,-0.140
6292,-0.050,-0.135
6293,-0.055,-0.135
6294,-0.050,-0.130
6295,-0.045,-0.125
6296,-0.040,-0.120
6297,-0.035,-0.115
6298,-0.035,-0.105
6299,-0.035,-0.095
6300,-0.035,-0.095
6301,-0.035,-0.095
6302,-0.025,-0.095
6303,-0.015,-0.095
6304,-0.015,-0.100
6305,-0.015,-0.105
6306,-0.035,-0.100
6307,-0.045,-0.095
6308,-0.050,-0.105
6309,-0.055,-0.115
6310,-0.060,-0.115
6311,-0.065,-0.115
6312,-0.060,-0.120
6313,-0.055,-0.125
6314,-0.055,-0.120
6315,-0.060,-0.115
6316,-0.070,-0.120
6317,-0.080,-0.125
6318,-0.090,-0.130
6319,-0.095,-0.135
6320,-0.090,-0.140
6321,-0.085,-0.145
6322,-0.080,-0.140
6323,-0.075,-0.135
6324,-0.070,-0.140
6325,-0.065,-0.145
6326,-0.065,-0.145
6327,-0.065,-0.145
6328,-0.060,-0.140
6329,-0.050,-0.135
6330,-0.040,-0.130
6331,-0.045,-0.125
6332,-0.060,-0.120
6333,-0.055,-0.115
6334,-0.035,-0.105
6335,-0.025,-0.110
6336,-0.015,-0.115
6337,-0.015,-0.110
6338,-0.015,-0.105
6339,-0.025,-0.110
6340,-0.035,-0.115
6341,-0.030,-0.120
6342,-0.025,-0.125
6343,-0.035,-0.130
6344,-0.050,-0.135
6345,-0.070,-0.135
6346,-0.085,-0.135
6347,-0.085,-0.135
6348,-0.085,-0.135
6349,-0.095,-0.140
6350,-0.110,-0.145
6351,-0.130,-0.145
6352,-0.145,-0.145
6353,-0.140,-0.150
6354,-0.135,-0.155
6355,-0.120,-0.155
6356,-0.115,-0.155
6357,-0.110,-0.150
6358,-0.105,-0.145
6359,-0.100,-0.145
6360,-0.105,-0.145
6361,-0.125,-0.140
6362,-0.145,-0.135
6363,-0.165,-0.135
6364,-0.165,-0.135
6365,-0.150,-0.135
6366,0.005,-0.125
6367,0.205,-0.110
6368,0.495,-0.050
6369,0.810,0.020
6370,0.720,0.125
6371,0.560,0.230
6372,0.250,0.165
6373,-0.075,0.070
6374,-0.380,-0.245
6375,-0.095,0.065
6376,-0.590,-0.715
6377,-0.490,-0.850
6378,-0.385,-0.715
6379,-0.280,-0.575
6380,-0.225,-0.420
6381,-0.170,-0.275
6382,-0.135,-0.200
6383,-0.105,-0.135
6384,-0.125,-0.105
6385,-0.145,-0.085
6386,-0.140,-0.080
6387,-0.135,-0.075
6388,-0.130,-0.085
6389,-0.125,-0.095
6390,-0.115,-0.090
6391,-0.105,-0.085
6392,-0.110,-0.085
6393,-0.115,-0.085
6394,-0.115,-0.085
6395,-0.115,-0.085
6396,-0.120,-0.080
6397,-0.115,-0.075
6398,-0.095,-0.070
6399,-0.080,-0.065
6400,-0.070,-0.065
6401,-0.070,-0.065
6402,-0.080,-0.060
6403,-0.080,-0.055
6404,-0.070,-0.050
6405,-0.055,-0.045
6406,-0.035,-0.045
6407,-0.030,-0.045
6408,-0.040,-0.040
6409,-0.045,-0.035
6410,-0.040,-0.030
6411,-0.035,-0.025
6412,-0.035,-0.025
6413,-0.025,-0.025
6414,-0.010,-0.020
6415,-0.005,-0.010
6416,0.000,0.000
6417,0.025,0.005
6418,0.045,0.005
6419,0.045,0.015
6420,0.045,0.025
6421,0.070,0.040
6422,0.095,0.055
6423,0.105,0.060
6424,0.115,0.065
6425,0.120,0.080
6426,0.125,0.095
6427,0.140,0.100
6428,0.155,0.105
6429,0.170,0.115
6430,0.185,0.125
6431,0.180,0.130
6432,0.175,0.135
6433,0.175,0.130
6434,0.170,0.125
6435,0.155,0.120
6436,0.145,0.115
6437,0.135,0.105
6438,0.120,0.090
6439,0.105,0.075
6440,0.085,0.055
6441,0.060,0.035
6442,0.040,0.015
6443,0.025,-0.005
6444,0.005,-0.025
6445,-0.015,-0.045
6446,-0.025,-0.060
6447,-0.025,-0.070
6448,-0.030,-0.075
6449,-0.040,-0.080
6450,-0.055,-0.090
6451,-0.070,-0.100
6452,-0.075,-0.105
6453,-0.070,-0.105
6454,-0.065,-0.105
6455,-0.065,-0.105
6456,-0.065,-0.105
6457,-0.070,-0.105
6458,-0.075,-0.105
6459,-0.085,-0.115
6460,-0.080,-0.110
6461,-0.075,-0.105
6462,-0.070,-0.100
6463,-0.065,-0.095
6464,-0.065,-0.095
6465,-0.065,-0.095
6466,-0.055,-0.090
6467,-0.045,-0.085
6468,-0.045,-0.080
6469,-0.045,-0.075
6470,-0.040,-0.060
6471,-0.035,-0.045
6472,-0.030,-0.050
6473,-0.025,-0.055
6474,-0.025,-0.050
6475,-0.025,-0.045
6476,-0.025,-0.040
6477,-0.025,-0.035
6478,-0.025,-0.035
6479,-0.025,-0.035
6480,-0.030,-0.035
6481,-0.035,-0.035
6482,-0.030,-0.040
6483,-0.025,-0.045
6484,-0.030,-0.045
6485,-0.035,-0.045
6486,-0.035,-0.040
6487,-0.035,-0.035
6488,-0.035,-0.040
6489,-0.035,-0.045
6490,-0.040,-0.050
6491,-0.045,-0.055
6492,-0.045,-0.055
6493,-0.045,-0.055
6494,-0.040,-0.055
6495,-0.035,-0.055
6496,-0.030,-0.055
6497,-0.025,-0.055
6498,-0.025,-0.050
6499,-0.015,-0.045
6500,-0.025,-0.045
6501,0.010,-0.035
6502,0.015,-0.025
6503,0.005,-0.015
6504,-0.005,-0.005
6505,0.010,-0.010
6506,0.025,-0.015
6507,0.035,-0.015
6508,0.045,-0.015
6509,0.040,-0.020
6510,0.035,-0.025
6511,0.030,-0.025
6512,0.025,-0.025
6513,0.015,-0.035
6514,0.005,-0.045
6515,0.000,-0.050
6516,-0.005,-0.055
