'sample interval','ECG1','ECG2'
'0.004 sec','mV','mV'
0,-0.080,-0.320
1,-0.095,-0.385
2,-0.090,-0.380
3,-0.105,-0.375
4,-0.120,-0.370
5,-0.105,-0.360
6,-0.090,-0.350
7,-0.095,-0.360
8,-0.100,-0.370
9,-0.095,-0.370
10,-0.090,-0.370
11,-0.105,-0.370
12,-0.120,-0.370
13,-0.110,-0.360
14,-0.100,-0.355
15,-0.105,-0.370
16,-0.110,-0.380
17,-0.105,-0.385
18,-0.100,-0.390
19,-0.110,-0.385
20,-0.120,-0.380
21,-0.125,-0.385
22,-0.130,-0.385
23,-0.125,-0.370
24,-0.120,-0.370
25,-0.120,-0.400
26,-0.120,-0.410
27,-0.115,-0.405
28,-0.115,-0.390
29,-0.125,-0.375
30,-0.130,-0.370
31,-0.130,-0.370
32,-0.120,-0.370
33,-0.105,-0.370
34,-0.080,-0.350
35,-0.045,-0.325
36,-0.045,-0.290
37,-0.055,-0.255
38,-0.035,-0.200
39,-0.005,-0.145
40,0.015,-0.075
41,0.035,-0.005
42,0.030,-0.020
43,0.020,-0.040
44,-0.005,-0.015
45,-0.030,0.010
46,-0.050,-0.030
47,-0.070,-0.075
48,-0.095,-0.115
49,-0.120,-0.150
50,-0.150,-0.165
51,-0.170,-0.185
52,-0.180,-0.210
53,-0.190,-0.240
54,-0.185,-0.300
55,-0.180,-0.340
56,-0.180,-0.360
57,-0.180,-0.375
58,-0.175,-0.395
59,-0.170,-0.405
60,-0.180,-0.390
61,-0.190,-0.380
62,-0.185,-0.370
63,-0.170,-0.415
64,-0.150,-0.525
65,-0.050,-0.400
66,0.120,-0.070
67,0.305,0.920
68,0.505,2.360
69,0.510,3.610
70,0.400,4.750
71,-0.445,5.110
72,-1.615,5.110
73,-2.085,4.140
74,-2.300,2.815
75,-2.165,1.185
76,-1.925,-0.525
77,-1.710,-0.700
78,-1.500,-0.550
79,-1.070,-0.490
80,-0.610,-0.445
81,-0.365,-0.460
82,-0.140,-0.485
83,-0.090,-0.525
84,-0.040,-0.570
85,-0.020,-0.580
86,0.000,-0.590
87,0.020,-0.590
88,0.040,-0.590
89,0.055,-0.570
90,0.070,-0.550
91,0.080,-0.575
92,0.090,-0.600
93,0.110,-0.580
94,0.130,-0.560
95,0.140,-0.570
96,0.150,-0.575
97,0.160,-0.555
98,0.175,-0.545
99,0.195,-0.560
100,0.215,-0.570
101,0.230,-0.560
102,0.250,-0.560
103,0.275,-0.585
104,0.290,-0.590
105,0.305,-0.555
106,0.325,-0.540
107,0.355,-0.540
108,0.385,-0.545
109,0.415,-0.555
110,0.450,-0.560
111,0.485,-0.555
112,0.525,-0.550
113,0.565,-0.555
114,0.605,-0.550
115,0.640,-0.535
116,0.685,-0.555
117,0.730,-0.590
118,0.775,-0.600
119,0.820,-0.595
120,0.860,-0.620
121,0.895,-0.655
122,0.925,-0.660
123,0.955,-0.655
124,0.975,-0.675
125,0.960,-0.650
126,1.010,-0.715
127,1.020,-0.720
128,1.005,-0.750
129,0.990,-0.780
130,0.960,-0.755
131,0.920,-0.730
132,0.850,-0.715
133,0.780,-0.700
134,0.705,-0.670
135,0.630,-0.645
136,0.545,-0.615
137,0.460,-0.575
138,0.380,-0.515
139,0.305,-0.455
140,0.250,-0.410
141,0.200,-0.375
142,0.170,-0.360
143,0.135,-0.345
144,0.095,-0.325
145,0.065,-0.310
146,0.040,-0.305
147,0.025,-0.290
148,0.010,-0.265
149,0.000,-0.255
150,-0.005,-0.265
151,-0.010,-0.260
152,-0.015,-0.240
153,-0.020,-0.240
154,-0.020,-0.260
155,-0.020,-0.245
156,-0.025,-0.210
157,-0.030,-0.205
158,-0.025,-0.215
159,-0.035,-0.220
160,-0.055,-0.225
161,-0.055,-0.250
162,-0.045,-0.275
163,-0.040,-0.250
164,-0.040,-0.215
165,-0.040,-0.210
166,-0.040,-0.215
167,-0.030,-0.235
168,-0.020,-0.250
169,-0.015,-0.255
170,-0.010,-0.260
171,-0.015,-0.265
172,-0.020,-0.270
173,-0.020,-0.265
174,-0.020,-0.260
175,-0.010,-0.270
176,0.000,-0.280
177,0.000,-0.285
178,0.000,-0.295
179,0.000,-0.325
180,0.000,-0.340
181,-0.005,-0.305
182,-0.010,-0.285
183,-0.010,-0.310
184,-0.010,-0.330
185,-0.020,-0.325
186,-0.030,-0.325
187,-0.025,-0.345
188,-0.020,-0.345
189,-0.025,-0.310
190,-0.030,-0.285
191,-0.035,-0.270
192,-0.025,-0.260
193,0.005,-0.260
194,0.015,-0.215
195,-0.005,-0.145
196,-0.005,-0.150
197,0.005,-0.195
198,0.040,-0.155
199,0.080,-0.080
200,0.090,-0.005
201,0.085,0.065
202,0.070,0.070
203,0.055,0.055
204,0.010,0.050
205,-0.035,0.045
206,-0.040,0.015
207,-0.045,-0.015
208,-0.095,-0.070
209,-0.150,-0.130
210,-0.170,-0.125
211,-0.190,-0.120
212,-0.180,-0.175
213,-0.170,-0.230
214,-0.180,-0.255
215,-0.190,-0.280
216,-0.190,-0.315
217,-0.190,-0.340
218,-0.185,-0.345
219,-0.180,-0.355
220,-0.195,-0.375
221,-0.210,-0.390
222,-0.200,-0.400
223,-0.190,-0.475
224,-0.190,-0.660
225,-0.125,-0.645
226,0.040,-0.300
227,0.225,0.490
228,0.430,1.840
229,0.460,3.175
230,0.290,4.490
231,-0.385,5.110
232,-1.510,5.110
233,-2.090,4.300
234,-2.260,2.900
235,-2.180,1.385
236,-1.935,-0.200
237,-1.695,-0.695
238,-1.460,-0.655
239,-1.105,-0.535
240,-0.705,-0.385
241,-0.435,-0.400
242,-0.205,-0.465
243,-0.130,-0.475
244,-0.090,-0.465
245,-0.070,-0.485
246,-0.055,-0.515
247,-0.040,-0.520
248,-0.025,-0.515
249,-0.015,-0.505
250,-0.020,-0.510
251,0.015,-0.460
252,0.030,-0.430
253,0.055,-0.470
254,0.080,-0.510
255,0.080,-0.520
256,0.080,-0.525
257,0.085,-0.480
258,0.090,-0.440
259,0.110,-0.470
260,0.130,-0.485
261,0.140,-0.440
262,0.150,-0.420
263,0.165,-0.455
264,0.185,-0.470
265,0.205,-0.430
266,0.225,-0.405
267,0.245,-0.435
268,0.265,-0.440
269,0.285,-0.415
270,0.315,-0.400
271,0.350,-0.415
272,0.380,-0.415
273,0.400,-0.400
274,0.420,-0.390
275,0.450,-0.395
276,0.480,-0.400
277,0.515,-0.395
278,0.545,-0.400
279,0.570,-0.415
280,0.585,-0.420
281,0.595,-0.425
282,0.605,-0.425
283,0.615,-0.415
284,0.620,-0.415
285,0.615,-0.425
286,0.610,-0.430
287,0.605,-0.435
288,0.565,-0.440
289,0.525,-0.445
290,0.495,-0.420
291,0.465,-0.385
292,0.385,-0.380
293,0.310,-0.380
294,0.270,-0.315
295,0.230,-0.250
296,0.175,-0.265
297,0.130,-0.280
298,0.090,-0.240
299,0.055,-0.210
300,0.020,-0.210
301,-0.015,-0.210
302,-0.050,-0.190
303,-0.080,-0.175
304,-0.090,-0.205
305,-0.100,-0.230
306,-0.105,-0.230
307,-0.110,-0.225
308,-0.110,-0.200
309,-0.115,-0.180
310,-0.130,-0.185
311,-0.140,-0.190
312,-0.140,-0.200
313,-0.140,-0.215
314,-0.145,-0.225
315,-0.155,-0.225
316,-0.165,-0.215
317,-0.170,-0.210
318,-0.165,-0.215
319,-0.165,-0.215
320,-0.175,-0.205
321,-0.180,-0.220
322,-0.175,-0.250
323,-0.170,-0.245
324,-0.170,-0.225
325,-0.175,-0.240
326,-0.185,-0.265
327,-0.185,-0.250
328,-0.175,-0.225
329,-0.155,-0.255
330,-0.135,-0.295
331,-0.130,-0.300
332,-0.135,-0.295
333,-0.145,-0.285
334,-0.160,-0.270
335,-0.155,-0.270
336,-0.150,-0.270
337,-0.150,-0.285
338,-0.150,-0.300
339,-0.160,-0.325
340,-0.170,-0.350
341,-0.170,-0.335
342,-0.170,-0.320
343,-0.175,-0.335
344,-0.180,-0.350
345,-0.175,-0.340
346,-0.170,-0.330
347,-0.175,-0.335
348,-0.180,-0.335
349,-0.185,-0.310
350,-0.190,-0.295
351,-0.195,-0.315
352,-0.200,-0.320
353,-0.200,-0.290
354,-0.200,-0.280
355,-0.200,-0.305
356,-0.190,-0.300
357,-0.170,-0.260
358,-0.155,-0.240
359,-0.140,-0.240
360,-0.135,-0.215
361,-0.145,-0.175
362,-0.135,-0.160
363,-0.110,-0.165
364,-0.080,-0.100
365,-0.050,0.005
366,-0.045,0.040
367,-0.055,0.055
368,-0.070,0.060
369,-0.085,0.065
370,-0.110,0.035
371,-0.135,-0.005
372,-0.165,-0.065
373,-0.195,-0.125
374,-0.220,-0.130
375,-0.200,-0.130
376,-0.255,-0.175
377,-0.260,-0.220
378,-0.250,-0.265
379,-0.240,-0.310
380,-0.250,-0.345
381,-0.260,-0.380
382,-0.255,-0.380
383,-0.250,-0.380
384,-0.270,-0.385
385,-0.290,-0.390
386,-0.280,-0.365
387,-0.270,-0.390
388,-0.265,-0.540
389,-0.215,-0.500
390,-0.070,-0.060
391,0.085,0.625
392,0.265,1.710
393,0.410,2.935
394,0.505,4.355
395,0.140,5.110
396,-0.755,5.110
397,-1.405,4.425
398,-1.825,3.095
399,-1.925,1.535
400,-1.770,-0.210
401,-1.630,-0.815
402,-1.500,-0.685
403,-1.260,-0.575
404,-0.960,-0.475
405,-0.690,-0.450
406,-0.430,-0.470
407,-0.305,-0.470
408,-0.230,-0.455
409,-0.205,-0.480
410,-0.195,-0.520
411,-0.180,-0.500
412,-0.165,-0.455
413,-0.140,-0.475
414,-0.115,-0.505
415,-0.105,-0.495
416,-0.095,-0.475
417,-0.085,-0.480
418,-0.080,-0.490
419,-0.080,-0.465
420,-0.080,-0.440
421,-0.055,-0.450
422,-0.030,-0.460
423,-0.035,-0.440
424,-0.040,-0.420
425,-0.025,-0.425
426,-0.010,-0.430
427,0.000,-0.410
428,0.010,-0.390
429,0.015,-0.385
430,0.025,-0.380
431,0.045,-0.400
432,0.065,-0.410
433,0.080,-0.405
434,0.095,-0.400
435,0.110,-0.395
436,0.130,-0.380
437,0.155,-0.355
438,0.180,-0.345
439,0.200,-0.355
440,0.220,-0.350
441,0.240,-0.330
442,0.255,-0.330
443,0.270,-0.350
444,0.280,-0.345
445,0.285,-0.310
446,0.300,-0.325
447,0.320,-0.365
448,0.335,-0.370
449,0.345,-0.355
450,0.345,-0.370
451,0.335,-0.400
452,0.320,-0.385
453,0.305,-0.355
454,0.280,-0.365
455,0.255,-0.385
456,0.225,-0.380
457,0.195,-0.365
458,0.155,-0.360
459,0.110,-0.360
460,0.075,-0.325
461,0.040,-0.290
462,0.000,-0.295
463,-0.040,-0.300
464,-0.050,-0.295
465,-0.060,-0.290
466,-0.095,-0.310
467,-0.120,-0.330
468,-0.130,-0.325
469,-0.140,-0.320
470,-0.150,-0.330
471,-0.160,-0.340
472,-0.155,-0.355
473,-0.150,-0.370
474,-0.150,-0.360
475,-0.150,-0.360
476,-0.150,-0.385
477,-0.150,-0.395
478,-0.160,-0.375
479,-0.170,-0.365
480,-0.165,-0.390
481,-0.155,-0.395
482,-0.145,-0.380
483,-0.140,-0.380
484,-0.145,-0.410
485,-0.150,-0.395
486,-0.145,-0.355
487,-0.135,-0.350
488,-0.125,-0.370
489,-0.120,-0.380
490,-0.120,-0.380
491,-0.120,-0.395
492,-0.120,-0.415
493,-0.120,-0.400
494,-0.115,-0.365
495,-0.110,-0.365
496,-0.105,-0.375
497,-0.100,-0.395
498,-0.095,-0.415
499,-0.090,-0.420
500,-0.090,-0.420
501,-0.080,-0.415
502,-0.080,-0.420
503,-0.090,-0.400
504,-0.100,-0.380
505,-0.100,-0.405
506,-0.100,-0.430
507,-0.090,-0.415
508,-0.080,-0.400
509,-0.090,-0.415
510,-0.100,-0.425
511,-0.105,-0.380
512,-0.110,-0.350
513,-0.115,-0.365
514,-0.120,-0.375
515,-0.125,-0.355
516,-0.125,-0.345
517,-0.105,-0.360
518,-0.085,-0.350
519,-0.070,-0.290
520,-0.065,-0.260
521,-0.080,-0.245
522,-0.075,-0.230
523,-0.045,-0.205
524,-0.030,-0.145
525,-0.030,-0.055
526,-0.015,-0.010
527,0.010,0.010
528,-0.005,0.015
529,-0.045,0.005
530,-0.080,0.000
531,-0.110,-0.005
532,-0.125,-0.055
533,-0.135,-0.115
534,-0.180,-0.135
535,-0.230,-0.145
536,-0.245,-0.145
537,-0.255,-0.135
538,-0.245,-0.205
539,-0.225,-0.290
540,-0.220,-0.310
541,-0.215,-0.325
542,-0.225,-0.355
543,-0.240,-0.380
544,-0.245,-0.345
545,-0.250,-0.310
546,-0.235,-0.320
547,-0.220,-0.340
548,-0.230,-0.455
549,-0.230,-0.530
550,-0.140,-0.385
551,-0.025,-0.065
552,0.190,0.890
553,0.360,2.055
554,0.400,3.810
555,0.155,5.030
556,-0.725,5.080
557,-1.480,4.900
558,-2.020,4.310
559,-2.305,3.030
560,-2.205,0.735
561,-2.045,-0.515
562,-1.810,-0.495
563,-1.465,-0.455
564,-1.010,-0.405
565,-0.660,-0.370
566,-0.405,-0.345
567,-0.235,-0.365
568,-0.125,-0.425
569,-0.080,-0.435
570,-0.075,-0.410
571,-0.060,-0.415
572,-0.040,-0.440
573,-0.015,-0.440
574,0.005,-0.425
575,0.020,-0.440
576,0.035,-0.470
577,0.040,-0.440
578,0.045,-0.390
579,0.065,-0.405
580,0.085,-0.435
581,0.095,-0.420
582,0.105,-0.395
583,0.120,-0.410
584,0.140,-0.440
585,0.155,-0.405
586,0.170,-0.370
587,0.190,-0.375
588,0.210,-0.380
589,0.230,-0.360
590,0.250,-0.340
591,0.275,-0.340
592,0.300,-0.340
593,0.320,-0.350
594,0.345,-0.355
595,0.380,-0.325
596,0.415,-0.300
597,0.445,-0.310
598,0.480,-0.320
599,0.525,-0.315
600,0.560,-0.310
601,0.595,-0.320
602,0.635,-0.315
603,0.670,-0.275
604,0.705,-0.260
605,0.740,-0.285
606,0.765,-0.300
607,0.780,-0.300
608,0.790,-0.315
609,0.785,-0.345
610,0.780,-0.340
611,0.780,-0.305
612,0.765,-0.310
613,0.740,-0.345
614,0.700,-0.335
615,0.655,-0.300
616,0.595,-0.300
617,0.535,-0.315
618,0.465,-0.285
619,0.395,-0.240
620,0.330,-0.225
621,0.270,-0.215
622,0.220,-0.180
623,0.175,-0.145
624,0.135,-0.140
625,0.170,-0.140
626,0.060,-0.140
627,0.030,-0.150
628,0.020,-0.125
629,0.010,-0.100
630,0.000,-0.125
631,-0.010,-0.150
632,-0.015,-0.150
633,-0.020,-0.150
634,-0.030,-0.170
635,-0.040,-0.185
636,-0.040,-0.150
637,-0.040,-0.125
638,-0.050,-0.145
639,-0.060,-0.155
640,-0.050,-0.130
641,-0.040,-0.120
642,-0.040,-0.155
643,-0.040,-0.170
644,-0.045,-0.145
645,-0.050,-0.140
646,-0.055,-0.165
647,-0.055,-0.165
648,-0.040,-0.130
649,-0.030,-0.130
650,-0.025,-0.170
651,-0.020,-0.185
652,-0.015,-0.175
653,-0.010,-0.180
654,-0.010,-0.195
655,-0.005,-0.195
656,0.005,-0.185
657,0.010,-0.190
658,0.005,-0.205
659,0.000,-0.220
660,0.000,-0.235
661,0.005,-0.220
662,0.015,-0.195
663,0.020,-0.205
664,0.015,-0.225
665,0.010,-0.220
666,0.015,-0.205
667,0.020,-0.230
668,0.020,-0.260
669,0.010,-0.235
670,0.000,-0.210
671,-0.010,-0.225
672,-0.020,-0.240
673,-0.025,-0.210
674,-0.030,-0.185
675,-0.025,-0.225
676,-0.020,-0.255
677,-0.030,-0.230
678,-0.040,-0.210
679,-0.050,-0.225
680,-0.060,-0.230
681,-0.060,-0.180
682,-0.055,-0.150
683,-0.030,-0.160
684,-0.010,-0.165
685,0.000,-0.150
686,0.010,-0.125
687,0.000,-0.090
688,0.000,-0.060
689,0.020,-0.035
690,0.030,0.030
691,0.035,0.130
692,0.055,0.160
693,0.085,0.140
694,0.070,0.150
695,0.020,0.185
696,-0.010,0.160
697,-0.030,0.100
698,-0.055,0.065
699,-0.080,0.040
700,-0.120,0.000
701,-0.160,-0.040
702,-0.170,-0.045
703,-0.165,-0.035
704,-0.150,-0.090
705,-0.135,-0.160
706,-0.130,-0.170
707,-0.130,-0.175
708,-0.130,-0.220
709,-0.130,-0.270
710,-0.130,-0.245
711,-0.130,-0.220
712,-0.140,-0.220
713,-0.150,-0.225
714,-0.155,-0.315
715,-0.145,-0.365
716,-0.045,-0.205
717,0.085,0.110
718,0.315,1.010
719,0.495,2.125
720,0.520,3.875
721,0.280,5.110
722,-0.605,5.110
723,-1.395,4.930
724,-2.005,4.390
725,-2.345,3.160
726,-2.255,0.850
727,-2.075,-0.440
728,-1.790,-0.410
729,-1.395,-0.380
730,-0.890,-0.345
731,-0.525,-0.305
732,-0.285,-0.255
733,-0.130,-0.275
734,-0.035,-0.355
735,0.010,-0.385
736,0.030,-0.375
737,0.050,-0.380
738,0.065,-0.395
739,0.080,-0.380
740,0.095,-0.350
741,0.110,-0.370
742,0.125,-0.410
743,0.135,-0.395
744,0.145,-0.360
745,0.150,-0.360
746,0.155,-0.375
747,0.170,-0.365
748,0.185,-0.345
749,0.200,-0.340
750,0.190,-0.340
751,0.235,-0.355
752,0.250,-0.360
753,0.260,-0.355
754,0.270,-0.350
755,0.290,-0.340
756,0.310,-0.330
757,0.335,-0.305
758,0.360,-0.280
759,0.390,-0.310
760,0.415,-0.325
761,0.450,-0.295
762,0.485,-0.270
763,0.515,-0.285
764,0.550,-0.290
765,0.585,-0.250
766,0.620,-0.235
767,0.650,-0.280
768,0.685,-0.295
769,0.725,-0.260
770,0.760,-0.245
771,0.785,-0.270
772,0.805,-0.275
773,0.820,-0.265
774,0.835,-0.275
775,0.850,-0.305
776,0.855,-0.315
777,0.845,-0.305
778,0.830,-0.305
779,0.810,-0.315
780,0.775,-0.300
781,0.740,-0.270
782,0.685,-0.250
783,0.625,-0.235
784,0.570,-0.230
785,0.520,-0.225
786,0.450,-0.190
787,0.380,-0.155
788,0.320,-0.140
789,0.265,-0.125
790,0.225,-0.075
791,0.185,-0.025
792,0.155,-0.060
793,0.130,-0.100
794,0.110,-0.065
795,0.090,-0.030
796,0.070,-0.070
797,0.050,-0.110
798,0.050,-0.070
799,0.050,-0.045
800,0.040,-0.075
801,0.030,-0.100
802,0.025,-0.080
803,0.020,-0.065
804,0.015,-0.090
805,0.010,-0.105
806,0.000,-0.070
807,-0.010,-0.055
808,-0.010,-0.070
809,-0.005,-0.080
810,0.010,-0.080
811,0.015,-0.080
812,0.000,-0.085
813,-0.010,-0.085
814,-0.005,-0.075
815,0.000,-0.065
816,0.005,-0.055
817,0.010,-0.070
818,0.015,-0.105
819,0.020,-0.110
820,0.020,-0.090
821,0.025,-0.100
822,0.035,-0.130
823,0.040,-0.120
824,0.035,-0.090
825,0.030,-0.115
826,0.035,-0.160
827,0.040,-0.145
828,0.040,-0.115
829,0.040,-0.145
830,0.035,-0.185
831,0.030,-0.160
832,0.035,-0.125
833,0.040,-0.130
834,0.030,-0.150
835,0.025,-0.140
836,0.020,-0.130
837,0.015,-0.145
838,0.010,-0.160
839,0.005,-0.135
840,0.000,-0.110
841,-0.010,-0.115
842,-0.020,-0.120
843,-0.020,-0.140
844,-0.020,-0.160
845,-0.030,-0.145
846,-0.040,-0.130
847,-0.035,-0.140
848,-0.035,-0.145
849,-0.050,-0.120
850,-0.060,-0.110
851,-0.055,-0.145
852,-0.050,-0.155
853,-0.055,-0.115
854,-0.050,-0.090
855,-0.025,-0.090
856,-0.010,-0.075
857,-0.010,-0.045
858,-0.010,-0.025
859,-0.005,-0.015
860,0.010,0.005
861,0.030,0.035
862,0.040,0.095
863,0.040,0.165
864,0.060,0.210
865,0.090,0.240
866,0.065,0.245
867,0.020,0.235
868,-0.010,0.210
869,-0.035,0.185
870,-0.050,0.135
871,-0.065,0.080
872,-0.115,0.070
873,-0.165,0.070
874,-0.170,0.070
875,-0.170,0.070
876,-0.165,-0.005
877,-0.160,-0.090
878,-0.155,-0.105
879,-0.150,-0.120
880,-0.145,-0.170
881,-0.140,-0.205
882,-0.145,-0.155
883,-0.150,-0.110
884,-0.145,-0.125
885,-0.140,-0.155
886,-0.140,-0.240
887,-0.125,-0.270
888,-0.055,-0.150
889,0.065,0.180
890,0.295,0.940
891,0.475,2.085
892,0.570,3.860
893,0.325,4.935
894,-0.410,5.050
895,-1.170,4.965
896,-1.965,4.655
897,-2.335,3.340
898,-2.300,1.080
899,-2.105,-0.020
900,-1.795,-0.220
901,-1.405,-0.315
902,-0.965,-0.345
903,-0.650,-0.310
904,-0.395,-0.225
905,-0.215,-0.250
906,-0.060,-0.330
907,-0.020,-0.325
908,-0.015,-0.290
909,0.005,-0.295
910,0.025,-0.315
911,0.050,-0.315
912,0.075,-0.305
913,0.080,-0.320
914,0.080,-0.345
915,0.095,-0.315
916,0.115,-0.275
917,0.130,-0.290
918,0.140,-0.310
919,0.150,-0.285
920,0.160,-0.260
921,0.170,-0.275
922,0.180,-0.290
923,0.195,-0.275
924,0.210,-0.260
925,0.220,-0.255
926,0.235,-0.250
927,0.260,-0.250
928,0.285,-0.250
929,0.310,-0.245
930,0.330,-0.245
931,0.350,-0.265
932,0.370,-0.270
933,0.400,-0.235
934,0.430,-0.210
935,0.460,-0.220
936,0.495,-0.225
937,0.530,-0.210
938,0.560,-0.215
939,0.585,-0.245
940,0.615,-0.245
941,0.645,-0.215
942,0.675,-0.215
943,0.700,-0.240
944,0.720,-0.245
945,0.740,-0.235
946,0.755,-0.255
947,0.765,-0.295
948,0.765,-0.310
949,0.755,-0.305
950,0.745,-0.310
951,0.735,-0.325
952,0.705,-0.315
953,0.675,-0.295
954,0.630,-0.295
955,0.585,-0.305
956,0.525,-0.295
957,0.465,-0.275
958,0.400,-0.215
959,0.330,-0.150
960,0.285,-0.135
961,0.240,-0.120
962,0.195,-0.100
963,0.150,-0.080
964,0.120,-0.095
965,0.090,-0.110
966,0.065,-0.085
967,0.040,-0.060
968,0.020,-0.075
969,0.000,-0.090
970,0.005,-0.075
971,0.005,-0.070
972,-0.015,-0.110
973,-0.030,-0.135
974,-0.020,-0.115
975,-0.010,-0.100
976,-0.020,-0.110
977,-0.030,-0.110
978,-0.025,-0.080
979,-0.020,-0.075
980,-0.025,-0.120
981,-0.030,-0.140
982,-0.030,-0.140
983,-0.025,-0.140
984,-0.015,-0.135
985,-0.010,-0.125
986,-0.015,-0.115
987,-0.020,-0.125
988,-0.015,-0.150
989,-0.010,-0.160
990,-0.005,-0.160
991,0.000,-0.145
992,0.005,-0.125
993,0.005,-0.130
994,-0.005,-0.145
995,-0.010,-0.150
996,-0.010,-0.150
997,0.000,-0.170
998,0.015,-0.195
999,0.010,-0.190
1000,0.020,-0.200
1001,0.000,-0.185
1002,0.010,-0.200
1003,0.000,-0.165
1004,-0.010,-0.130
1005,-0.015,-0.155
1006,-0.020,-0.180
1007,-0.030,-0.170
1008,-0.040,-0.160
1009,-0.050,-0.155
1010,-0.060,-0.150
1011,-0.070,-0.135
1012,-0.080,-0.125
1013,-0.080,-0.150
1014,-0.085,-0.170
1015,-0.105,-0.160
1016,-0.120,-0.150
1017,-0.125,-0.150
1018,-0.135,-0.150
1019,-0.150,-0.150
1020,-0.160,-0.150
1021,-0.165,-0.150
1022,-0.170,-0.155
1023,-0.175,-0.170
1024,-0.185,-0.175
1025,-0.195,-0.165
1026,-0.200,-0.160
1027,-0.200,-0.160
1028,-0.205,-0.150
1029,-0.215,-0.135
1030,-0.225,-0.140
1031,-0.235,-0.155
1032,-0.240,-0.145
1033,-0.240,-0.120
1034,-0.235,-0.095
1035,-0.225,-0.075
1036,-0.200,-0.050
1037,-0.175,-0.025
1038,-0.180,-0.020
1039,-0.195,-0.015
1040,-0.170,0.030
1041,-0.135,0.075
1042,-0.140,0.175
1043,-0.150,0.270
1044,-0.120,0.255
1045,-0.090,0.240
1046,-0.125,0.255
1047,-0.165,0.270
1048,-0.205,0.230
1049,-0.240,0.195
1050,-0.245,0.155
1051,-0.260,0.120
1052,-0.305,0.115
1053,-0.340,0.110
1054,-0.345,0.125
1055,-0.350,0.110
1056,-0.330,0.015
1057,-0.320,-0.055
1058,-0.320,-0.075
1059,-0.320,-0.090
1060,-0.315,-0.100
1061,-0.310,-0.095
1062,-0.310,-0.060
1063,-0.305,-0.050
1064,-0.290,-0.075
1065,-0.285,-0.135
1066,-0.295,-0.220
1067,-0.235,-0.075
1068,-0.115,0.245
1069,0.080,1.055
1070,0.315,2.140
1071,0.450,3.405
1072,0.545,4.750
1073,-0.165,5.110
1074,-1.170,5.110
1075,-1.740,4.320
1076,-2.190,3.305
1077,-2.135,1.535
1078,-1.975,-0.395
1079,-1.785,-0.540
1080,-1.595,-0.420
1081,-1.180,-0.330
1082,-0.745,-0.245
1083,-0.500,-0.240
1084,-0.260,-0.250
1085,-0.195,-0.265
1086,-0.130,-0.280
1087,-0.125,-0.275
1088,-0.120,-0.270
1089,-0.085,-0.300
1090,-0.050,-0.330
1091,-0.045,-0.320
1092,-0.040,-0.310
1093,-0.025,-0.315
1094,-0.010,-0.315
1095,0.005,-0.280
1096,0.020,-0.255
1097,0.030,-0.285
1098,0.040,-0.300
1099,0.040,-0.255
1100,0.045,-0.245
1101,0.060,-0.285
1102,0.075,-0.290
1103,0.095,-0.245
1104,0.110,-0.230
1105,0.125,-0.265
1106,0.135,-0.270
1107,0.150,-0.245
1108,0.165,-0.240
1109,0.175,-0.260
1110,0.185,-0.255
1111,0.195,-0.230
1112,0.210,-0.215
1113,0.230,-0.205
1114,0.265,-0.200
1115,0.310,-0.205
1116,0.330,-0.210
1117,0.345,-0.215
1118,0.365,-0.215
1119,0.385,-0.205
1120,0.395,-0.205
1121,0.405,-0.215
1122,0.425,-0.220
1123,0.445,-0.225
1124,0.460,-0.225
1125,0.450,-0.230
1126,0.475,-0.245
1127,0.470,-0.280
1128,0.460,-0.250
1129,0.450,-0.220
1130,0.430,-0.245
1131,0.410,-0.265
1132,0.400,-0.225
1133,0.385,-0.190
1134,0.340,-0.205
1135,0.295,-0.210
1136,0.260,-0.155
1137,0.220,-0.110
1138,0.175,-0.095
1139,0.135,-0.080
1140,0.115,-0.085
1141,0.090,-0.090
1142,0.055,-0.090
1143,0.015,-0.085
1144,-0.020,-0.065
1145,-0.040,-0.050
1146,-0.040,-0.055
1147,-0.050,-0.060
1148,-0.070,-0.065
1149,-0.080,-0.075
1150,-0.080,-0.090
1151,-0.085,-0.105
1152,-0.095,-0.120
1153,-0.110,-0.110
1154,-0.125,-0.080
1155,-0.130,-0.075
1156,-0.125,-0.085
1157,-0.120,-0.105
1158,-0.115,-0.130
1159,-0.110,-0.140
1160,-0.110,-0.145
1161,-0.115,-0.135
1162,-0.125,-0.115
1163,-0.130,-0.110
1164,-0.135,-0.115
1165,-0.135,-0.135
1166,-0.125,-0.155
1167,-0.110,-0.170
1168,-0.100,-0.180
1169,-0.095,-0.150
1170,-0.090,-0.120
1171,-0.095,-0.145
1172,-0.100,-0.170
1173,-0.090,-0.165
1174,-0.080,-0.160
1175,-0.075,-0.165
1176,-0.070,-0.170
1177,-0.070,-0.175
1178,-0.070,-0.180
1179,-0.075,-0.195
1180,-0.080,-0.210
1181,-0.070,-0.200
1182,-0.060,-0.195
1183,-0.070,-0.210
1184,-0.080,-0.220
1185,-0.085,-0.215
1186,-0.090,-0.205
1187,-0.095,-0.190
1188,-0.100,-0.185
1189,-0.105,-0.200
1190,-0.110,-0.210
1191,-0.105,-0.205
1192,-0.105,-0.205
1193,-0.115,-0.220
1194,-0.120,-0.225
1195,-0.125,-0.215
1196,-0.130,-0.210
1197,-0.135,-0.210
1198,-0.145,-0.205
1199,-0.155,-0.195
1200,-0.160,-0.215
1201,-0.160,-0.250
1202,-0.160,-0.235
1203,-0.165,-0.205
1204,-0.170,-0.200
1205,-0.175,-0.200
1206,-0.180,-0.190
1207,-0.175,-0.175
1208,-0.170,-0.170
1209,-0.170,-0.180
1210,-0.155,-0.160
1211,-0.140,-0.140
1212,-0.140,-0.110
1213,-0.140,-0.080
1214,-0.130,-0.070
1215,-0.120,-0.060
1216,-0.095,-0.035
1217,-0.070,0.005
1218,-0.065,0.100
1219,-0.060,0.170
1220,-0.045,0.155
1221,-0.040,0.145
1222,-0.080,0.165
1223,-0.110,0.170
1224,-0.120,0.135
1225,-0.140,0.090
1226,-0.165,0.025
1227,-0.195,-0.010
1228,-0.235,-0.015
1229,-0.260,-0.020
1230,-0.260,-0.035
1231,-0.255,-0.065
1232,-0.245,-0.125
1233,-0.245,-0.175
1234,-0.255,-0.220
1235,-0.260,-0.240
1236,-0.260,-0.235
1237,-0.270,-0.230
1238,-0.290,-0.235
1239,-0.290,-0.220
1240,-0.265,-0.190
1241,-0.260,-0.250
1242,-0.260,-0.350
1243,-0.180,-0.090
1244,-0.075,0.260
1245,0.085,1.140
1246,0.250,2.105
1247,0.460,3.550
1248,0.670,5.040
1249,-0.090,5.110
1250,0.680,5.110
1251,-1.430,4.185
1252,-1.935,3.205
1253,-1.825,1.135
1254,-1.710,-0.730
1255,-1.595,-0.610
1256,-1.450,-0.495
1257,-1.135,-0.440
1258,-0.835,-0.385
1259,-0.590,-0.355
1260,-0.375,-0.335
1261,-0.250,-0.360
1262,-0.160,-0.380
1263,-0.160,-0.380
1264,-0.155,-0.380
1265,-0.140,-0.380
1266,-0.120,-0.380
1267,-0.090,-0.390
1268,-0.070,-0.400
1269,-0.060,-0.395
1270,-0.045,-0.385
1271,-0.030,-0.370
1272,-0.020,-0.360
1273,-0.025,-0.355
1274,-0.020,-0.350
1275,0.010,-0.355
1276,0.020,-0.355
1277,0.020,-0.345
1278,0.035,-0.340
1279,0.060,-0.335
1280,0.075,-0.320
1281,0.085,-0.305
1282,0.110,-0.300
1283,0.140,-0.295
1284,0.160,-0.290
1285,0.175,-0.295
1286,0.185,-0.300
1287,0.195,-0.295
1288,0.220,-0.280
1289,0.245,-0.265
1290,0.275,-0.245
1291,0.305,-0.225
1292,0.335,-0.240
1293,0.360,-0.260
1294,0.400,-0.250
1295,0.440,-0.240
1296,0.460,-0.240
1297,0.480,-0.240
1298,0.510,-0.235
1299,0.540,-0.230
1300,0.555,-0.245
1301,0.570,-0.260
1302,0.585,-0.270
1303,0.600,-0.280
1304,0.600,-0.290
1305,0.600,-0.300
1306,0.590,-0.295
1307,0.575,-0.290
1308,0.550,-0.295
1309,0.520,-0.300
1310,0.490,-0.295
1311,0.440,-0.290
1312,0.375,-0.280
1313,0.315,-0.255
1314,0.265,-0.220
1315,0.215,-0.190
1316,0.165,-0.170
1317,0.125,-0.165
1318,0.095,-0.175
1319,0.065,-0.180
1320,0.030,-0.175
1321,0.005,-0.165
1322,-0.020,-0.155
1323,-0.045,-0.155
1324,-0.065,-0.165
1325,-0.070,-0.175
1326,-0.065,-0.185
1327,-0.065,-0.190
1328,-0.075,-0.190
1329,-0.080,-0.200
1330,-0.080,-0.215
1331,-0.080,-0.205
1332,-0.085,-0.185
1333,-0.080,-0.180
1334,-0.060,-0.180
1335,-0.070,-0.200
1336,-0.080,-0.220
1337,-0.065,-0.220
1338,-0.050,-0.220
1339,-0.055,-0.220
1340,-0.060,-0.220
1341,-0.055,-0.210
1342,-0.050,-0.200
1343,-0.045,-0.220
1344,-0.040,-0.240
1345,-0.040,-0.225
1346,-0.040,-0.210
1347,-0.035,-0.210
1348,-0.030,-0.210
1349,-0.030,-0.200
1350,-0.030,-0.190
1351,-0.030,-0.190
1352,-0.030,-0.190
1353,-0.030,-0.190
1354,-0.030,-0.195
1355,-0.035,-0.210
1356,-0.040,-0.210
1357,-0.040,-0.185
1358,-0.040,-0.175
1359,-0.040,-0.185
1360,-0.040,-0.190
1361,-0.040,-0.190
1362,-0.040,-0.195
1363,-0.045,-0.205
1364,-0.050,-0.200
1365,-0.050,-0.185
1366,-0.050,-0.180
1367,-0.055,-0.180
1368,-0.060,-0.185
1369,-0.065,-0.195
1370,-0.070,-0.200
1371,-0.065,-0.205
1372,-0.065,-0.210
1373,-0.075,-0.205
1374,-0.080,-0.185
1375,-0.080,-0.200
1376,-0.080,-0.175
1377,-0.090,-0.190
1378,-0.090,-0.185
1379,-0.090,-0.180
1380,-0.100,-0.200
1381,-0.110,-0.220
1382,-0.115,-0.195
1383,-0.120,-0.170
1384,-0.120,-0.165
1385,-0.120,-0.160
1386,-0.115,-0.165
1387,-0.110,-0.170
1388,-0.120,-0.180
1389,-0.130,-0.180
1390,-0.120,-0.140
1391,-0.100,-0.110
1392,-0.065,-0.100
1393,-0.040,-0.085
1394,-0.050,-0.065
1395,-0.050,-0.050
1396,-0.025,-0.035
1397,-0.010,0.005
1398,-0.010,0.075
1399,0.010,0.150
1400,0.050,0.220
1401,0.050,0.235
1402,0.015,0.205
1403,-0.020,0.190
1404,-0.050,0.185
1405,-0.070,0.125
1406,-0.085,0.045
1407,-0.120,0.035
1408,-0.170,0.055
1409,-0.180,0.045
1410,-0.185,0.025
1411,-0.190,-0.030
1412,-0.190,-0.090
1413,-0.190,-0.150
1414,-0.185,-0.215
1415,-0.180,-0.220
1416,-0.185,-0.215
1417,-0.185,-0.210
1418,-0.180,-0.210
1419,-0.175,-0.200
1420,-0.170,-0.190
1421,-0.175,-0.205
1422,-0.175,-0.225
1423,-0.135,-0.300
1424,-0.070,-0.275
1425,0.130,0.250
1426,0.330,1.005
1427,0.525,2.605
1428,0.575,3.960
1429,0.205,4.640
1430,-0.400,5.110
1431,-1.525,5.110
1432,-2.270,4.500
1433,-2.340,2.795
1434,-2.255,1.285
1435,-1.945,0.060
1436,-1.660,-0.585
1437,-1.415,-0.530
1438,-1.095,-0.445
1439,-0.695,-0.325
1440,-0.385,-0.285
1441,-0.150,-0.325
1442,-0.045,-0.340
1443,-0.030,-0.345
1444,-0.005,-0.355
1445,0.030,-0.375
1446,0.045,-0.380
1447,0.055,-0.375
1448,0.075,-0.380
1449,0.095,-0.395
1450,0.105,-0.380
1451,0.115,-0.355
1452,0.130,-0.350
1453,0.145,-0.355
1454,0.155,-0.360
1455,0.165,-0.355
1456,0.185,-0.350
1457,0.205,-0.355
1458,0.215,-0.340
1459,0.230,-0.310
1460,0.245,-0.315
1461,0.260,-0.320
1462,0.290,-0.315
1463,0.320,-0.310
1464,0.335,-0.315
1465,0.350,-0.320
1466,0.375,-0.300
1467,0.400,-0.280
1468,0.420,-0.270
1469,0.450,-0.260
1470,0.490,-0.250
1471,0.525,-0.240
1472,0.550,-0.255
1473,0.585,-0.270
1474,0.635,-0.275
1475,0.680,-0.270
1476,0.715,-0.245
1477,0.750,-0.230
1478,0.775,-0.235
1479,0.805,-0.240
1480,0.840,-0.255
1481,0.865,-0.265
1482,0.880,-0.275
1483,0.890,-0.275
1484,0.895,-0.260
1485,0.895,-0.255
1486,0.885,-0.270
1487,0.870,-0.280
1488,0.850,-0.275
1489,0.805,-0.275
1490,0.755,-0.285
1491,0.700,-0.275
1492,0.645,-0.245
1493,0.580,-0.225
1494,0.510,-0.205
1495,0.435,-0.170
1496,0.360,-0.135
1497,0.310,-0.130
1498,0.265,-0.130
1499,0.220,-0.130
1500,0.260,-0.130
1501,0.130,-0.105
1502,0.090,-0.080
1503,0.075,-0.090
1504,0.060,-0.100
1505,0.055,-0.115
1506,0.050,-0.130
1507,0.030,-0.135
1508,0.010,-0.140
1509,0.010,-0.140
1510,0.010,-0.140
1511,0.005,-0.140
1512,0.000,-0.140
1513,0.000,-0.140
1514,0.000,-0.140
1515,-0.005,-0.145
1516,-0.010,-0.150
1517,-0.010,-0.150
1518,-0.010,-0.150
1519,-0.020,-0.150
1520,-0.025,-0.150
1521,-0.010,-0.135
1522,0.000,-0.135
1523,0.000,-0.150
1524,0.005,-0.165
1525,0.015,-0.175
1526,0.015,-0.180
1527,0.005,-0.180
1528,0.000,-0.180
1529,0.005,-0.175
1530,0.010,-0.170
1531,0.015,-0.170
1532,0.020,-0.185
1533,0.020,-0.205
1534,0.020,-0.215
1535,0.020,-0.225
1536,0.025,-0.230
1537,0.035,-0.225
1538,0.040,-0.215
1539,0.045,-0.205
1540,0.050,-0.215
1541,0.045,-0.235
1542,0.040,-0.240
1543,0.040,-0.240
1544,0.040,-0.230
1545,0.040,-0.220
1546,0.030,-0.210
1547,0.020,-0.200
1548,0.010,-0.215
1549,0.000,-0.230
1550,-0.005,-0.230
1551,-0.010,-0.230
1552,-0.005,-0.215
1553,0.000,-0.200
1554,-0.015,-0.205
1555,-0.030,-0.210
1556,-0.030,-0.215
1557,-0.030,-0.220
1558,-0.025,-0.225
1559,-0.020,-0.230
1560,-0.025,-0.230
1561,-0.030,-0.230
1562,-0.040,-0.230
1563,-0.050,-0.225
1564,-0.045,-0.215
1565,-0.045,-0.215
1566,-0.055,-0.230
1567,-0.060,-0.240
1568,-0.060,-0.240
1569,-0.060,-0.230
1570,-0.055,-0.210
1571,-0.050,-0.180
1572,-0.045,-0.140
1573,-0.020,-0.135
1574,0.010,-0.145
1575,0.015,-0.130
1576,0.005,-0.105
1577,0.025,-0.070
1578,0.055,-0.030
1579,0.060,0.070
1580,0.065,0.180
1581,0.090,0.185
1582,0.115,0.175
1583,0.085,0.170
1584,0.040,0.180
1585,0.015,0.140
1586,-0.010,0.100
1587,-0.035,0.060
1588,-0.060,0.020
1589,-0.095,0.030
1590,-0.130,0.040
1591,-0.135,0.005
1592,-0.140,-0.035
1593,-0.135,-0.115
1594,-0.130,-0.185
1595,-0.130,-0.205
1596,-0.130,-0.220
1597,-0.130,-0.210
1598,-0.130,-0.200
1599,-0.135,-0.210
1600,-0.140,-0.220
1601,-0.130,-0.215
1602,-0.120,-0.240
1603,-0.130,-0.310
1604,-0.110,-0.280
1605,-0.045,-0.130
1606,0.115,0.345
1607,0.350,1.115
1608,0.495,2.440
1609,0.575,4.170
1610,0.160,4.910
1611,-0.560,5.060
1612,-1.330,4.835
1613,-2.125,4.430
1614,-2.310,2.655
1615,-2.245,0.350
1616,-2.005,-0.270
1617,-1.710,-0.375
1618,-1.280,-0.400
1619,-0.825,-0.400
1620,-0.550,-0.350
1621,-0.305,-0.290
1622,-0.155,-0.310
1623,-0.020,-0.345
1624,-0.010,-0.370
1625,-0.010,-0.350
1626,0.025,-0.395
1627,0.050,-0.390
1628,0.065,-0.405
1629,0.080,-0.420
1630,0.095,-0.390
1631,0.110,-0.360
1632,0.125,-0.370
1633,0.140,-0.380
1634,0.155,-0.380
1635,0.170,-0.380
1636,0.170,-0.385
1637,0.170,-0.385
1638,0.185,-0.360
1639,0.205,-0.340
1640,0.225,-0.340
1641,0.240,-0.345
1642,0.250,-0.360
1643,0.270,-0.370
1644,0.295,-0.365
1645,0.315,-0.355
1646,0.330,-0.340
1647,0.355,-0.325
1648,0.385,-0.315
1649,0.410,-0.315
1650,0.430,-0.325
1651,0.460,-0.325
1652,0.495,-0.315
1653,0.530,-0.320
1654,0.565,-0.335
1655,0.605,-0.330
1656,0.640,-0.310
1657,0.680,-0.310
1658,0.720,-0.325
1659,0.750,-0.330
1660,0.775,-0.330
1661,0.795,-0.340
1662,0.815,-0.355
1663,0.825,-0.355
1664,0.835,-0.345
1665,0.840,-0.355
1666,0.835,-0.375
1667,0.820,-0.385
1668,0.810,-0.390
1669,0.780,-0.395
1670,0.750,-0.400
1671,0.685,-0.370
1672,0.625,-0.340
1673,0.570,-0.310
1674,0.510,-0.280
1675,0.430,-0.275
1676,0.360,-0.265
1677,0.310,-0.235
1678,0.260,-0.205
1679,0.210,-0.185
1680,0.165,-0.170
1681,0.130,-0.160
1682,0.100,-0.150
1683,0.065,-0.145
1684,0.040,-0.140
1685,0.040,-0.145
1686,0.040,-0.155
1687,0.030,-0.175
1688,0.015,-0.180
1689,0.005,-0.155
1690,0.000,-0.140
1691,0.000,-0.145
1692,0.000,-0.155
1693,0.000,-0.165
1694,-0.005,-0.170
1695,-0.015,-0.175
1696,-0.020,-0.165
1697,-0.020,-0.140
1698,-0.020,-0.140
1699,-0.015,-0.155
1700,-0.010,-0.160
1701,-0.005,-0.165
1702,0.000,-0.175
1703,0.000,-0.185
1704,0.000,-0.190
1705,0.005,-0.185
1706,0.010,-0.180
1707,0.015,-0.175
1708,0.020,-0.180
1709,0.030,-0.200
1710,0.035,-0.215
1711,0.040,-0.230
1712,0.050,-0.235
1713,0.060,-0.240
1714,0.055,-0.225
1715,0.050,-0.210
1716,0.060,-0.210
1717,0.070,-0.210
1718,0.070,-0.215
1719,0.070,-0.225
1720,0.060,-0.245
1721,0.050,-0.255
1722,0.045,-0.235
1723,0.040,-0.220
1724,0.035,-0.225
1725,0.030,-0.230
1726,0.025,-0.235
1727,0.020,-0.240
1728,0.020,-0.245
1729,0.020,-0.250
1730,0.015,-0.235
1731,0.005,-0.230
1732,-0.005,-0.230
1733,-0.010,-0.230
1734,-0.010,-0.235
1735,-0.010,-0.245
1736,-0.015,-0.255
1737,-0.030,-0.260
1738,-0.045,-0.260
1739,-0.050,-0.250
1740,-0.045,-0.235
1741,-0.040,-0.230
1742,-0.045,-0.230
1743,-0.050,-0.235
1744,-0.050,-0.245
1745,-0.055,-0.255
1746,-0.065,-0.265
1747,-0.070,-0.245
1748,-0.070,-0.215
1749,-0.075,-0.225
1750,-0.070,-0.210
1751,-0.085,-0.240
1752,-0.080,-0.230
1753,-0.085,-0.240
1754,-0.090,-0.250
1755,-0.090,-0.240
1756,-0.090,-0.230
1757,-0.090,-0.230
1758,-0.090,-0.230
1759,-0.085,-0.225
1760,-0.080,-0.215
1761,-0.080,-0.190
1762,-0.075,-0.170
1763,-0.050,-0.170
1764,-0.030,-0.155
1765,-0.025,-0.110
1766,-0.020,-0.075
1767,-0.010,-0.045
1768,0.000,-0.030
1769,0.010,-0.020
1770,0.030,0.025
1771,0.055,0.110
1772,0.065,0.145
1773,0.055,0.135
1774,0.030,0.130
1775,-0.010,0.135
1776,-0.035,0.115
1777,-0.045,0.070
1778,-0.070,0.030
1779,-0.105,-0.005
1780,-0.135,-0.020
1781,-0.160,-0.025
1782,-0.165,-0.045
1783,-0.155,-0.070
1784,-0.150,-0.120
1785,-0.145,-0.180
1786,-0.140,-0.220
1787,-0.135,-0.255
1788,-0.135,-0.260
1789,-0.145,-0.260
1790,-0.150,-0.240
1791,-0.150,-0.215
1792,-0.145,-0.220
1793,-0.140,-0.230
1794,-0.120,-0.290
1795,-0.085,-0.315
1796,0.120,0.170
1797,0.325,0.790
1798,0.540,2.350
1799,0.680,3.765
1800,0.420,4.520
1801,-0.040,5.110
1802,-1.230,5.110
1803,-2.130,4.620
1804,-2.210,2.760
1805,-2.175,1.155
1806,-1.865,0.105
1807,-1.570,-0.565
1808,-1.320,-0.545
1809,-1.030,-0.475
1810,-0.685,-0.340
1811,-0.390,-0.290
1812,-0.165,-0.360
1813,-0.045,-0.405
1814,-0.030,-0.415
1815,-0.015,-0.415
1816,0.000,-0.405
1817,0.015,-0.400
1818,0.030,-0.395
1819,0.045,-0.395
1820,0.065,-0.405
1821,0.080,-0.410
1822,0.095,-0.405
1823,0.105,-0.395
1824,0.115,-0.385
1825,0.125,-0.380
1826,0.135,-0.375
1827,0.150,-0.365
1828,0.165,-0.355
1829,0.170,-0.360
1830,0.175,-0.375
1831,0.200,-0.370
1832,0.225,-0.355
1833,0.240,-0.350
1834,0.260,-0.360
1835,0.285,-0.330
1836,0.310,-0.300
1837,0.320,-0.310
1838,0.330,-0.320
1839,0.355,-0.320
1840,0.380,-0.320
1841,0.415,-0.300
1842,0.445,-0.280
1843,0.475,-0.285
1844,0.510,-0.290
1845,0.550,-0.295
1846,0.585,-0.300
1847,0.605,-0.295
1848,0.630,-0.290
1849,0.665,-0.290
1850,0.690,-0.290
1851,0.695,-0.300
1852,0.710,-0.315
1853,0.735,-0.330
1854,0.750,-0.340
1855,0.750,-0.355
1856,0.750,-0.365
1857,0.745,-0.375
1858,0.725,-0.380
1859,0.695,-0.375
1860,0.665,-0.360
1861,0.640,-0.340
1862,0.605,-0.335
1863,0.565,-0.345
1864,0.500,-0.335
1865,0.430,-0.310
1866,0.365,-0.270
1867,0.305,-0.230
1868,0.255,-0.195
1869,0.210,-0.160
1870,0.165,-0.150
1871,0.125,-0.155
1872,0.105,-0.150
1873,0.085,-0.135
1874,0.065,-0.120
1875,0.080,-0.130
1876,0.025,-0.110
1877,0.010,-0.120
1878,-0.005,-0.120
1879,-0.020,-0.120
1880,-0.020,-0.130
1881,-0.020,-0.140
1882,-0.015,-0.135
1883,-0.010,-0.130
1884,-0.025,-0.130
1885,-0.040,-0.130
1886,-0.035,-0.115
1887,-0.030,-0.110
1888,-0.040,-0.145
1889,-0.055,-0.170
1890,-0.070,-0.165
1891,-0.075,-0.160
1892,-0.060,-0.150
1893,-0.050,-0.140
1894,-0.050,-0.140
1895,-0.050,-0.140
1896,-0.035,-0.145
1897,-0.030,-0.150
1898,-0.025,-0.150
1899,-0.020,-0.155
1900,-0.020,-0.165
1901,-0.020,-0.170
1902,-0.025,-0.170
1903,-0.030,-0.170
1904,-0.030,-0.165
1905,-0.030,-0.170
1906,-0.025,-0.190
1907,-0.020,-0.200
1908,-0.015,-0.205
1909,-0.020,-0.210
1910,-0.035,-0.205
1911,-0.040,-0.200
1912,-0.035,-0.205
1913,-0.035,-0.220
1914,-0.045,-0.235
1915,-0.050,-0.225
1916,-0.050,-0.205
1917,-0.055,-0.230
1918,-0.060,-0.260
1919,-0.065,-0.245
1920,-0.070,-0.230
1921,-0.085,-0.230
1922,-0.100,-0.230
1923,-0.095,-0.240
1924,-0.090,-0.250
1925,-0.100,-0.265
1926,-0.110,-0.280
1927,-0.115,-0.265
1928,-0.120,-0.250
1929,-0.125,-0.235
1930,-0.130,-0.225
1931,-0.120,-0.245
1932,-0.110,-0.260
1933,-0.120,-0.255
1934,-0.130,-0.250
1935,-0.135,-0.240
1936,-0.140,-0.230
1937,-0.145,-0.230
1938,-0.150,-0.235
1939,-0.145,-0.250
1940,-0.145,-0.260
1941,-0.155,-0.255
1942,-0.160,-0.250
1943,-0.160,-0.250
1944,-0.160,-0.245
1945,-0.155,-0.235
1946,-0.145,-0.230
1947,-0.135,-0.225
1948,-0.115,-0.200
1949,-0.090,-0.170
1950,-0.080,-0.170
1951,-0.085,-0.185
1952,-0.090,-0.150
1953,-0.090,-0.100
1954,-0.075,-0.065
1955,-0.055,-0.035
1956,-0.045,0.065
1957,-0.035,0.175
1958,-0.005,0.160
1959,0.030,0.130
1960,-0.020,0.155
1961,-0.070,0.180
1962,-0.090,0.140
1963,-0.110,0.095
1964,-0.135,0.025
1965,-0.165,-0.040
1966,-0.210,-0.055
1967,-0.250,-0.070
1968,-0.235,-0.075
1969,-0.220,-0.090
1970,-0.235,-0.135
1971,-0.250,-0.180
1972,-0.240,-0.215
1973,-0.230,-0.245
1974,-0.240,-0.265
1975,-0.250,-0.280
1976,-0.240,-0.290
1977,-0.230,-0.285
1978,-0.235,-0.245
1979,-0.240,-0.255
1980,-0.240,-0.330
1981,-0.195,-0.205
1982,-0.110,0.115
1983,0.035,0.745
1984,0.225,1.605
1985,0.445,2.945
1986,0.680,4.575
1987,0.325,5.110
1988,-0.325,5.110
1989,-1.030,4.665
1990,-1.755,4.040
1991,-1.895,2.170
1992,-1.840,-0.085
1993,-1.735,-0.535
1994,-1.610,-0.570
1995,-1.300,-0.540
1996,-0.955,-0.485
1997,-0.720,-0.400
1998,-0.495,-0.305
1999,-0.325,-0.325
2000,-0.480,-0.300
2001,-0.165,-0.390
2002,-0.170,-0.420
2003,-0.165,-0.415
2004,-0.160,-0.410
2005,-0.130,-0.390
2006,-0.100,-0.370
2007,-0.090,-0.380
2008,-0.080,-0.390
2009,-0.060,-0.380
2010,-0.040,-0.370
2011,-0.035,-0.370
2012,-0.030,-0.370
2013,-0.030,-0.365
2014,-0.030,-0.360
2015,-0.020,-0.350
2016,-0.005,-0.335
2017,0.015,-0.320
2018,0.030,-0.315
2019,0.035,-0.335
2020,0.040,-0.335
2021,0.055,-0.300
2022,0.065,-0.280
2023,0.080,-0.275
2024,0.100,-0.270
2025,0.120,-0.270
2026,0.135,-0.270
2027,0.150,-0.270
2028,0.170,-0.265
2029,0.190,-0.255
2030,0.210,-0.240
2031,0.230,-0.220
2032,0.255,-0.220
2033,0.280,-0.235
2034,0.310,-0.235
2035,0.335,-0.225
2036,0.345,-0.225
2037,0.355,-0.235
2038,0.380,-0.205
2039,0.405,-0.165
2040,0.410,-0.175
2041,0.410,-0.195
2042,0.420,-0.210
2043,0.430,-0.220
2044,0.420,-0.250
2045,0.410,-0.280
2046,0.400,-0.245
2047,0.390,-0.210
2048,0.365,-0.225
2049,0.335,-0.240
2050,0.300,-0.230
2051,0.265,-0.220
2052,0.225,-0.205
2053,0.180,-0.190
2054,0.140,-0.185
2055,0.100,-0.175
2056,0.060,-0.150
2057,0.025,-0.130
2058,0.005,-0.135
2059,-0.020,-0.140
2060,-0.045,-0.140
2061,-0.060,-0.150
2062,-0.065,-0.175
2063,-0.075,-0.180
2064,-0.090,-0.155
2065,-0.105,-0.150
2066,-0.115,-0.175
2067,-0.120,-0.190
2068,-0.115,-0.185
2069,-0.110,-0.195
2070,-0.110,-0.230
2071,-0.110,-0.230
2072,-0.105,-0.215
2073,-0.105,-0.215
2074,-0.115,-0.225
2075,-0.115,-0.230
2076,-0.105,-0.235
2077,-0.100,-0.240
2078,-0.100,-0.235
2079,-0.100,-0.245
2080,-0.100,-0.265
2081,-0.100,-0.255
2082,-0.100,-0.235
2083,-0.100,-0.235
2084,-0.100,-0.250
2085,-0.095,-0.250
2086,-0.090,-0.250
2087,-0.090,-0.265
2088,-0.090,-0.280
2089,-0.085,-0.255
2090,-0.080,-0.230
2091,-0.085,-0.245
2092,-0.090,-0.260
2093,-0.095,-0.260
2094,-0.100,-0.260
2095,-0.100,-0.275
2096,-0.100,-0.290
2097,-0.105,-0.275
2098,-0.110,-0.260
2099,-0.115,-0.260
2100,-0.120,-0.260
2101,-0.115,-0.265
2102,-0.110,-0.270
2103,-0.105,-0.275
2104,-0.100,-0.280
2105,-0.115,-0.285
2106,-0.125,-0.285
2107,-0.135,-0.275
2108,-0.140,-0.270
2109,-0.135,-0.270
2110,-0.135,-0.270
2111,-0.145,-0.270
2112,-0.150,-0.275
2113,-0.155,-0.285
2114,-0.160,-0.285
2115,-0.165,-0.275
2116,-0.170,-0.275
2117,-0.175,-0.285
2118,-0.175,-0.280
2119,-0.165,-0.265
2120,-0.160,-0.265
2121,-0.160,-0.275
2122,-0.165,-0.280
2123,-0.175,-0.275
2124,-0.180,-0.260
2125,-0.180,-0.270
2126,-0.190,-0.240
2127,-0.190,-0.240
2128,-0.190,-0.250
2129,-0.190,-0.260
2130,-0.190,-0.265
2131,-0.190,-0.270
2132,-0.190,-0.235
2133,-0.190,-0.205
2134,-0.175,-0.175
2135,-0.155,-0.150
2136,-0.130,-0.150
2137,-0.110,-0.150
2138,-0.115,-0.135
2139,-0.110,-0.105
2140,-0.075,-0.060
2141,-0.050,0.000
2142,-0.045,0.085
2143,-0.040,0.140
2144,-0.030,0.135
2145,-0.040,0.130
2146,-0.085,0.130
2147,-0.115,0.115
2148,-0.125,0.080
2149,-0.150,0.040
2150,-0.185,0.000
2151,-0.215,-0.020
2152,-0.245,-0.015
2153,-0.260,-0.030
2154,-0.255,-0.065
2155,-0.250,-0.125
2156,-0.250,-0.190
2157,-0.250,-0.225
2158,-0.250,-0.250
2159,-0.250,-0.265
2160,-0.255,-0.275
2161,-0.260,-0.260
2162,-0.255,-0.235
2163,-0.250,-0.240
2164,-0.250,-0.255
2165,-0.250,-0.325
2166,-0.255,-0.395
2167,-0.180,-0.230
2168,-0.095,-0.035
2169,0.120,0.850
2170,0.325,1.805
2171,0.405,3.535
2172,0.375,5.050
2173,-0.495,5.080
2174,-1.320,5.020
2175,-1.900,4.470
2176,-2.340,3.540
2177,-2.240,1.245
2178,-2.100,-0.440
2179,-1.870,-0.440
2180,-1.570,-0.430
2181,-1.110,-0.390
2182,-0.725,-0.350
2183,-0.485,-0.315
2184,-0.295,-0.300
2185,-0.170,-0.340
2186,-0.100,-0.360
2187,-0.100,-0.360
2188,-0.085,-0.370
2189,-0.050,-0.390
2190,-0.030,-0.400
2191,-0.025,-0.405
2192,-0.010,-0.405
2193,0.010,-0.395
2194,0.025,-0.380
2195,0.045,-0.360
2196,0.060,-0.365
2197,0.075,-0.390
2198,0.090,-0.400
2199,0.105,-0.395
2200,0.120,-0.385
2201,0.135,-0.375
2202,0.145,-0.360
2203,0.155,-0.345
2204,0.185,-0.345
2205,0.215,-0.355
2206,0.230,-0.350
2207,0.245,-0.335
2208,0.270,-0.330
2209,0.300,-0.330
2210,0.320,-0.320
2211,0.340,-0.310
2212,0.380,-0.300
2213,0.420,-0.290
2214,0.450,-0.300
2215,0.485,-0.310
2216,0.530,-0.310
2217,0.575,-0.310
2218,0.605,-0.295
2219,0.640,-0.280
2220,0.685,-0.270
2221,0.730,-0.265
2222,0.775,-0.290
2223,0.810,-0.310
2224,0.820,-0.305
2225,0.840,-0.300
2226,0.865,-0.300
2227,0.880,-0.300
2228,0.885,-0.310
2229,0.890,-0.320
2230,0.885,-0.335
2231,0.860,-0.340
2232,0.820,-0.345
2233,0.775,-0.350
2234,0.730,-0.355
2235,0.665,-0.345
2236,0.590,-0.315
2237,0.520,-0.280
2238,0.450,-0.250
2239,0.390,-0.240
2240,0.325,-0.235
2241,0.270,-0.210
2242,0.215,-0.180
2243,0.170,-0.150
2244,0.130,-0.125
2245,0.095,-0.115
2246,0.065,-0.105
2247,0.055,-0.110
2248,0.045,-0.125
2249,0.030,-0.130
2250,0.040,-0.130
2251,0.005,-0.125
2252,0.000,-0.130
2253,-0.005,-0.110
2254,-0.010,-0.090
2255,-0.010,-0.110
2256,-0.010,-0.130
2257,-0.010,-0.130
2258,-0.010,-0.130
2259,-0.020,-0.135
2260,-0.030,-0.140
2261,-0.025,-0.130
2262,-0.020,-0.120
2263,-0.020,-0.120
2264,-0.020,-0.120
2265,-0.015,-0.130
2266,-0.010,-0.140
2267,-0.005,-0.150
2268,0.000,-0.160
2269,0.000,-0.155
2270,0.000,-0.150
2271,0.015,-0.145
2272,0.020,-0.155
2273,0.020,-0.190
2274,0.020,-0.200
2275,0.020,-0.180
2276,0.025,-0.175
2277,0.035,-0.185
2278,0.030,-0.190
2279,0.015,-0.185
2280,0.020,-0.190
2281,0.035,-0.205
2282,0.035,-0.210
2283,0.025,-0.205
2284,0.010,-0.220
2285,-0.005,-0.245
2286,-0.010,-0.225
2287,-0.005,-0.195
2288,0.000,-0.190
2289,-0.005,-0.195
2290,-0.010,-0.200
2291,-0.015,-0.195
2292,-0.025,-0.200
2293,-0.030,-0.210
2294,-0.040,-0.195
2295,-0.050,-0.180
2296,-0.045,-0.180
2297,-0.040,-0.180
2298,-0.045,-0.190
2299,-0.050,-0.200
2300,-0.060,-0.190
2301,-0.070,-0.180
2302,-0.080,-0.185
2303,-0.090,-0.185
2304,-0.095,-0.165
2305,-0.100,-0.155
2306,-0.090,-0.175
2307,-0.085,-0.190
2308,-0.100,-0.180
2309,-0.110,-0.180
2310,-0.110,-0.205
2311,-0.110,-0.210
2312,-0.120,-0.180
2313,-0.125,-0.160
2314,-0.110,-0.165
2315,-0.100,-0.170
2316,-0.105,-0.170
2317,-0.110,-0.170
2318,-0.110,-0.165
2319,-0.100,-0.125
2320,-0.080,-0.070
2321,-0.060,-0.055
2322,-0.040,-0.065
2323,-0.040,-0.070
2324,-0.055,-0.065
2325,-0.025,-0.020
2326,0.020,0.040
2327,0.040,0.130
2328,0.055,0.235
2329,0.060,0.240
2330,0.055,0.225
2331,0.035,0.230
2332,0.015,0.245
2333,0.000,0.195
2334,-0.020,0.130
2335,-0.075,0.080
2336,-0.130,0.030
2337,-0.150,0.045
2338,-0.170,0.060
2339,-0.170,0.030
2340,-0.170,-0.010
2341,-0.165,-0.080
2342,-0.160,-0.145
2343,-0.165,-0.180
2344,-0.170,-0.205
2345,-0.165,-0.180
2346,-0.160,-0.160
2347,-0.170,-0.155
2348,-0.180,-0.155
2349,-0.170,-0.170
2350,-0.155,-0.215
2351,-0.140,-0.315
2352,-0.055,-0.175
2353,0.120,0.285
2354,0.305,1.190
2355,0.510,2.585
2356,0.545,3.745
2357,0.415,4.705
2358,-0.325,5.110
2359,-1.520,5.110
2360,-2.080,4.230
2361,-2.260,2.815
2362,-2.150,1.325
2363,-1.895,-0.200
2364,-1.675,-0.565
2365,-1.470,-0.475
2366,-1.090,-0.360
2367,-0.655,-0.245
2368,-0.380,-0.265
2369,-0.145,-0.320
2370,-0.075,-0.325
2371,-0.035,-0.315
2372,-0.030,-0.320
2373,-0.030,-0.335
2374,-0.010,-0.335
2375,-0.030,-0.340
2376,0.035,-0.335
2377,0.050,-0.350
2378,0.060,-0.350
2379,0.070,-0.350
2380,0.090,-0.330
2381,0.110,-0.310
2382,0.120,-0.305
2383,0.130,-0.300
2384,0.150,-0.310
2385,0.170,-0.320
2386,0.175,-0.315
2387,0.180,-0.310
2388,0.195,-0.295
2389,0.215,-0.280
2390,0.240,-0.280
2391,0.265,-0.280
2392,0.285,-0.275
2393,0.305,-0.270
2394,0.325,-0.275
2395,0.355,-0.275
2396,0.390,-0.260
2397,0.415,-0.250
2398,0.430,-0.245
2399,0.465,-0.240
2400,0.510,-0.240
2401,0.550,-0.245
2402,0.585,-0.255
2403,0.625,-0.260
2404,0.665,-0.265
2405,0.705,-0.260
2406,0.740,-0.245
2407,0.770,-0.250
2408,0.800,-0.265
2409,0.830,-0.290
2410,0.855,-0.315
2411,0.860,-0.340
2412,0.860,-0.365
2413,0.860,-0.365
2414,0.855,-0.355
2415,0.840,-0.350
2416,0.825,-0.345
2417,0.780,-0.340
2418,0.740,-0.340
2419,0.690,-0.335
2420,0.635,-0.330
2421,0.560,-0.295
2422,0.485,-0.260
2423,0.410,-0.230
2424,0.345,-0.200
2425,0.290,-0.170
2426,0.240,-0.150
2427,0.195,-0.140
2428,0.155,-0.130
2429,0.115,-0.120
2430,0.085,-0.105
2431,0.065,-0.085
2432,0.050,-0.070
2433,0.040,-0.065
2434,0.025,-0.065
2435,0.010,-0.080
2436,0.000,-0.090
2437,-0.005,-0.095
2438,-0.010,-0.090
2439,-0.015,-0.070
2440,-0.025,-0.070
2441,-0.035,-0.090
2442,-0.035,-0.100
2443,-0.025,-0.095
2444,-0.025,-0.090
2445,-0.035,-0.090
2446,-0.040,-0.090
2447,-0.040,-0.090
2448,-0.040,-0.090
2449,-0.035,-0.095
2450,-0.025,-0.100
2451,-0.015,-0.100
2452,-0.010,-0.105
2453,-0.015,-0.115
2454,-0.020,-0.120
2455,-0.015,-0.125
2456,-0.010,-0.125
2457,-0.015,-0.115
2458,-0.015,-0.110
2459,0.000,-0.100
2460,0.005,-0.120
2461,0.010,-0.140
2462,0.005,-0.150
2463,0.000,-0.160
2464,0.000,-0.150
2465,0.000,-0.140
2466,-0.005,-0.145
2467,-0.010,-0.150
2468,-0.005,-0.155
2469,0.000,-0.160
2470,-0.005,-0.160
2471,-0.010,-0.160
2472,-0.010,-0.160
2473,-0.010,-0.160
2474,-0.015,-0.155
2475,-0.020,-0.145
2476,-0.030,-0.130
2477,-0.040,-0.125
2478,-0.035,-0.145
2479,-0.035,-0.160
2480,-0.050,-0.160
2481,-0.060,-0.155
2482,-0.065,-0.140
2483,-0.070,-0.130
2484,-0.070,-0.130
2485,-0.070,-0.145
2486,-0.070,-0.170
2487,-0.080,-0.170
2488,-0.095,-0.155
2489,-0.100,-0.150
2490,-0.105,-0.155
2491,-0.110,-0.150
2492,-0.110,-0.135
2493,-0.110,-0.130
2494,-0.110,-0.135
2495,-0.110,-0.140
2496,-0.115,-0.145
2497,-0.120,-0.160
2498,-0.120,-0.175
2499,-0.125,-0.165
2500,-0.120,-0.180
2501,-0.130,-0.140
2502,-0.120,-0.140
2503,-0.125,-0.155
2504,-0.130,-0.170
2505,-0.130,-0.165
2506,-0.130,-0.160
2507,-0.125,-0.150
2508,-0.120,-0.135
2509,-0.110,-0.095
2510,-0.095,-0.060
2511,-0.070,-0.070
2512,-0.050,-0.075
2513,-0.055,-0.045
2514,-0.055,-0.020
2515,-0.035,-0.015
2516,-0.020,0.025
2517,-0.025,0.120
2518,-0.010,0.205
2519,0.040,0.265
2520,0.060,0.290
2521,0.025,0.265
2522,-0.005,0.240
2523,-0.035,0.215
2524,-0.060,0.175
2525,-0.090,0.130
2526,-0.125,0.110
2527,-0.170,0.105
2528,-0.190,0.080
2529,-0.190,0.050
2530,-0.190,0.000
2531,-0.195,-0.060
2532,-0.190,-0.110
2533,-0.175,-0.160
2534,-0.175,-0.170
2535,-0.185,-0.165
2536,-0.190,-0.160
2537,-0.190,-0.165
2538,-0.190,-0.170
2539,-0.190,-0.165
2540,-0.190,-0.225
2541,-0.190,-0.295
2542,-0.145,-0.170
2543,-0.095,-0.020
2544,0.135,0.630
2545,0.360,1.365
2546,0.510,3.105
2547,0.570,4.660
2548,0.010,4.905
2549,-0.620,5.075
2550,-1.560,4.870
2551,-2.300,4.235
2552,-2.290,2.050
2553,-2.195,0.340
2554,-1.875,-0.055
2555,-1.535,-0.340
2556,-1.170,-0.375
2557,-0.840,-0.370
2558,-0.580,-0.270
2559,-0.355,-0.220
2560,-0.185,-0.260
2561,-0.090,-0.285
2562,-0.085,-0.305
2563,-0.065,-0.320
2564,-0.035,-0.315
2565,-0.020,-0.320
2566,-0.015,-0.340
2567,0.005,-0.335
2568,0.030,-0.310
2569,0.045,-0.300
2570,0.055,-0.300
2571,0.070,-0.300
2572,0.090,-0.300
2573,0.100,-0.305
2574,0.105,-0.315
2575,0.120,-0.300
2576,0.135,-0.275
2577,0.150,-0.270
2578,0.165,-0.265
2579,0.180,-0.265
2580,0.195,-0.275
2581,0.215,-0.280
2582,0.235,-0.280
2583,0.250,-0.280
2584,0.270,-0.280
2585,0.300,-0.265
2586,0.330,-0.250
2587,0.365,-0.255
2588,0.400,-0.260
2589,0.430,-0.250
2590,0.460,-0.240
2591,0.495,-0.260
2592,0.525,-0.275
2593,0.575,-0.240
2594,0.615,-0.215
2595,0.640,-0.245
2596,0.670,-0.270
2597,0.705,-0.275
2598,0.735,-0.280
2599,0.755,-0.280
2600,0.780,-0.280
2601,0.805,-0.290
2602,0.820,-0.305
2603,0.830,-0.320
2604,0.840,-0.340
2605,0.825,-0.365
2606,0.810,-0.385
2607,0.785,-0.395
2608,0.750,-0.400
2609,0.710,-0.405
2610,0.650,-0.390
2611,0.575,-0.355
2612,0.520,-0.330
2613,0.465,-0.315
2614,0.400,-0.290
2615,0.330,-0.260
2616,0.265,-0.250
2617,0.205,-0.245
2618,0.165,-0.200
2619,0.130,-0.150
2620,0.085,-0.140
2621,0.045,-0.135
2622,0.030,-0.130
2623,0.015,-0.130
2624,0.000,-0.130
2625,0.010,-0.130
2626,-0.015,-0.135
2627,-0.010,-0.130
2628,-0.030,-0.130
2629,-0.050,-0.130
2630,-0.045,-0.130
2631,-0.040,-0.130
2632,-0.050,-0.135
2633,-0.060,-0.140
2634,-0.050,-0.150
2635,-0.040,-0.155
2636,-0.050,-0.120
2637,-0.060,-0.090
2638,-0.055,-0.105
2639,-0.050,-0.120
2640,-0.040,-0.120
2641,-0.030,-0.125
2642,-0.035,-0.145
2643,-0.040,-0.155
2644,-0.035,-0.135
2645,-0.030,-0.125
2646,-0.025,-0.140
2647,-0.020,-0.145
2648,-0.015,-0.135
2649,-0.010,-0.140
2650,-0.005,-0.170
2651,0.000,-0.175
2652,0.000,-0.165
2653,0.000,-0.170
2654,0.000,-0.185
2655,0.000,-0.190
2656,-0.005,-0.185
2657,-0.005,-0.180
2658,0.005,-0.185
2659,0.005,-0.200
2660,-0.005,-0.215
2661,-0.010,-0.200
2662,-0.015,-0.175
2663,-0.020,-0.180
2664,-0.020,-0.195
2665,-0.020,-0.200
2666,-0.025,-0.205
2667,-0.035,-0.225
2668,-0.040,-0.240
2669,-0.055,-0.220
2670,-0.070,-0.200
2671,-0.075,-0.205
2672,-0.080,-0.210
2673,-0.090,-0.205
2674,-0.100,-0.200
2675,-0.085,-0.230
2676,-0.070,-0.250
2677,-0.090,-0.240
2678,-0.110,-0.230
2679,-0.115,-0.230
2680,-0.120,-0.230
2681,-0.115,-0.220
2682,-0.110,-0.210
2683,-0.115,-0.220
2684,-0.120,-0.230
2685,-0.120,-0.235
2686,-0.120,-0.240
2687,-0.130,-0.230
2688,-0.140,-0.220
2689,-0.140,-0.225
2690,-0.140,-0.230
2691,-0.140,-0.225
2692,-0.140,-0.225
2693,-0.145,-0.235
2694,-0.150,-0.230
2695,-0.145,-0.210
2696,-0.140,-0.205
2697,-0.145,-0.215
2698,-0.155,-0.200
2699,-0.165,-0.170
2700,-0.150,-0.145
2701,-0.120,-0.125
2702,-0.095,-0.120
2703,-0.075,-0.125
2704,-0.075,-0.100
2705,-0.085,-0.065
2706,-0.080,-0.010
2707,-0.065,0.045
2708,-0.015,0.125
2709,0.040,0.210
2710,0.020,0.175
2711,0.000,0.140
2712,-0.035,0.160
2713,-0.070,0.175
2714,-0.080,0.130
2715,-0.095,0.090
2716,-0.135,0.055
2717,-0.170,0.025
2718,-0.190,-0.010
2719,-0.210,-0.040
2720,-0.215,-0.055
2721,-0.220,-0.090
2722,-0.210,-0.165
2723,-0.200,-0.215
2724,-0.210,-0.200
2725,-0.220,-0.200
2726,-0.225,-0.225
2727,-0.230,-0.240
2728,-0.220,-0.230
2729,-0.210,-0.220
2730,-0.210,-0.235
2731,-0.210,-0.245
2732,-0.215,-0.260
2733,-0.110,0.030
2734,0.085,0.550
2735,0.320,1.690
2736,0.575,3.200
2737,0.585,4.185
2738,0.465,4.905
2739,-0.380,5.110
2740,-1.510,5.110
2741,-1.915,3.810
2742,-2.095,2.110
2743,-1.955,0.765
2744,-1.735,-0.500
2745,-1.520,-0.625
2746,-1.310,-0.560
2747,-1.010,-0.425
2748,-0.695,-0.280
2749,-0.450,-0.295
2750,-0.680,-0.270
2751,-0.175,-0.355
2752,-0.150,-0.380
2753,-0.130,-0.395
2754,-0.110,-0.410
2755,-0.100,-0.405
2756,-0.090,-0.400
2757,-0.080,-0.390
2758,-0.070,-0.380
2759,-0.050,-0.390
2760,-0.030,-0.400
2761,-0.005,-0.395
2762,0.010,-0.390
2763,0.005,-0.400
2764,0.000,-0.405
2765,0.010,-0.390
2766,0.025,-0.380
2767,0.040,-0.390
2768,0.060,-0.400
2769,0.085,-0.390
2770,0.100,-0.380
2771,0.115,-0.385
2772,0.125,-0.380
2773,0.135,-0.360
2774,0.150,-0.345
2775,0.170,-0.330
2776,0.195,-0.325
2777,0.225,-0.340
2778,0.250,-0.340
2779,0.265,-0.320
2780,0.280,-0.315
2781,0.300,-0.325
2782,0.325,-0.315
2783,0.350,-0.290
2784,0.380,-0.300
2785,0.405,-0.335
2786,0.435,-0.325
2787,0.465,-0.305
2788,0.475,-0.330
2789,0.485,-0.365
2790,0.490,-0.350
2791,0.490,-0.325
2792,0.510,-0.335
2793,0.530,-0.350
2794,0.525,-0.365
2795,0.520,-0.380
2796,0.500,-0.395
2797,0.480,-0.410
2798,0.465,-0.405
2799,0.445,-0.400
2800,0.410,-0.370
2801,0.370,-0.350
2802,0.300,-0.345
2803,0.245,-0.335
2804,0.220,-0.305
2805,0.185,-0.275
2806,0.135,-0.255
2807,0.090,-0.230
2808,0.055,-0.200
2809,0.020,-0.180
2810,-0.010,-0.190
2811,-0.035,-0.200
2812,-0.050,-0.190
2813,-0.065,-0.195
2814,-0.075,-0.225
2815,-0.085,-0.230
2816,-0.095,-0.205
2817,-0.100,-0.185
2818,-0.100,-0.175
2819,-0.105,-0.185
2820,-0.115,-0.220
2821,-0.120,-0.230
2822,-0.115,-0.225
2823,-0.125,-0.210
2824,-0.145,-0.195
2825,-0.150,-0.190
2826,-0.145,-0.190
2827,-0.140,-0.190
2828,-0.140,-0.195
2829,-0.140,-0.220
2830,-0.135,-0.245
2831,-0.130,-0.235
2832,-0.130,-0.215
2833,-0.130,-0.220
2834,-0.120,-0.240
2835,-0.120,-0.235
2836,-0.120,-0.230
2837,-0.125,-0.210
2838,-0.130,-0.190
2839,-0.125,-0.225
2840,-0.120,-0.260
2841,-0.115,-0.225
2842,-0.110,-0.200
2843,-0.120,-0.215
2844,-0.130,-0.230
2845,-0.130,-0.235
2846,-0.130,-0.245
2847,-0.125,-0.270
2848,-0.125,-0.280
2849,-0.140,-0.250
2850,-0.150,-0.240
2851,-0.145,-0.270
2852,-0.140,-0.285
2853,-0.145,-0.270
2854,-0.150,-0.265
2855,-0.150,-0.290
2856,-0.150,-0.295
2857,-0.150,-0.280
2858,-0.150,-0.270
2859,-0.155,-0.270
2860,-0.160,-0.265
2861,-0.165,-0.250
2862,-0.170,-0.245
2863,-0.175,-0.255
2864,-0.180,-0.265
2865,-0.185,-0.275
2866,-0.195,-0.265
2867,-0.205,-0.245
2868,-0.200,-0.240
2869,-0.185,-0.245
2870,-0.180,-0.270
2871,-0.185,-0.295
2872,-0.190,-0.295
2873,-0.195,-0.285
2874,-0.200,-0.270
2875,-0.200,-0.280
2876,-0.195,-0.250
2877,-0.190,-0.250
2878,-0.190,-0.245
2879,-0.190,-0.240
2880,-0.180,-0.235
2881,-0.170,-0.230
2882,-0.155,-0.210
2883,-0.140,-0.190
2884,-0.140,-0.175
2885,-0.135,-0.160
2886,-0.105,-0.145
2887,-0.080,-0.105
2888,-0.075,-0.015
2889,-0.055,0.060
2890,-0.010,0.095
2891,0.015,0.120
2892,-0.005,0.130
2893,-0.030,0.140
2894,-0.060,0.135
2895,-0.080,0.100
2896,-0.085,0.025
2897,-0.110,-0.025
2898,-0.155,-0.055
2899,-0.190,-0.070
2900,-0.210,-0.075
2901,-0.220,-0.110
2902,-0.225,-0.160
2903,-0.230,-0.210
2904,-0.230,-0.255
2905,-0.230,-0.280
2906,-0.225,-0.295
2907,-0.230,-0.295
2908,-0.245,-0.285
2909,-0.250,-0.280
2910,-0.250,-0.280
2911,-0.250,-0.310
2912,-0.245,-0.345
2913,-0.225,-0.210
2914,-0.205,-0.050
2915,-0.025,0.635
2916,0.165,1.355
2917,0.455,3.035
2918,0.730,4.685
2919,0.350,4.905
2920,-0.070,5.085
2921,-1.010,4.710
2922,-1.830,4.090
2923,-1.805,1.735
2924,-1.770,-0.245
2925,-1.685,-0.410
2926,-1.545,-0.540
2927,-1.205,-0.550
2928,-0.895,-0.530
2929,-0.680,-0.400
2930,-0.475,-0.330
2931,-0.295,-0.395
2932,-0.180,-0.440
2933,-0.170,-0.435
2934,-0.160,-0.430
2935,-0.150,-0.435
2936,-0.135,-0.440
2937,-0.120,-0.435
2938,-0.100,-0.435
2939,-0.075,-0.450
2940,-0.060,-0.460
2941,-0.055,-0.465
2942,-0.045,-0.460
2943,-0.030,-0.440
2944,-0.015,-0.425
2945,-0.005,-0.405
2946,0.005,-0.405
2947,0.015,-0.415
2948,0.025,-0.420
2949,0.035,-0.415
2950,0.050,-0.410
2951,0.065,-0.405
2952,0.080,-0.395
2953,0.095,-0.385
2954,0.120,-0.380
2955,0.145,-0.375
2956,0.160,-0.370
2957,0.175,-0.370
2958,0.195,-0.345
2959,0.220,-0.310
2960,0.240,-0.310
2961,0.260,-0.310
2962,0.295,-0.310
2963,0.330,-0.310
2964,0.360,-0.325
2965,0.390,-0.340
2966,0.425,-0.335
2967,0.455,-0.330
2968,0.485,-0.340
2969,0.515,-0.350
2970,0.540,-0.335
2971,0.565,-0.325
2972,0.585,-0.355
2973,0.600,-0.385
2974,0.605,-0.405
2975,0.610,-0.420
2976,0.600,-0.425
2977,0.580,-0.430
2978,0.555,-0.425
2979,0.525,-0.420
2980,0.480,-0.425
2981,0.435,-0.420
2982,0.375,-0.400
2983,0.325,-0.385
2984,0.270,-0.370
2985,0.215,-0.345
2986,0.155,-0.315
2987,0.110,-0.280
2988,0.080,-0.245
2989,0.045,-0.230
2990,0.000,-0.235
2991,-0.025,-0.240
2992,-0.045,-0.240
2993,-0.060,-0.235
2994,-0.075,-0.225
2995,-0.080,-0.200
2996,-0.085,-0.175
2997,-0.090,-0.210
2998,-0.095,-0.255
2999,-0.100,-0.255
3000,-0.100,-0.260
3001,-0.110,-0.245
3002,-0.120,-0.250
3003,-0.110,-0.230
3004,-0.100,-0.210
3005,-0.105,-0.230
3006,-0.110,-0.250
3007,-0.100,-0.240
3008,-0.090,-0.230
3009,-0.090,-0.240
3010,-0.090,-0.250
3011,-0.090,-0.235
3012,-0.090,-0.220
3013,-0.085,-0.225
3014,-0.080,-0.235
3015,-0.070,-0.250
3016,-0.060,-0.260
3017,-0.055,-0.260
3018,-0.050,-0.250
3019,-0.060,-0.225
3020,-0.070,-0.210
3021,-0.065,-0.195
3022,-0.060,-0.200
3023,-0.060,-0.225
3024,-0.060,-0.235
3025,-0.060,-0.220
3026,-0.060,-0.215
3027,-0.065,-0.225
3028,-0.070,-0.215
3029,-0.065,-0.190
3030,-0.065,-0.190
3031,-0.075,-0.210
3032,-0.080,-0.220
3033,-0.075,-0.215
3034,-0.070,-0.220
3035,-0.075,-0.235
3036,-0.085,-0.230
3037,-0.095,-0.215
3038,-0.100,-0.210
3039,-0.095,-0.215
3040,-0.090,-0.220
3041,-0.095,-0.225
3042,-0.110,-0.250
3043,-0.120,-0.270
3044,-0.115,-0.245
3045,-0.110,-0.220
3046,-0.105,-0.220
3047,-0.100,-0.220
3048,-0.110,-0.240
3049,-0.120,-0.260
3050,-0.115,-0.260
3051,-0.110,-0.260
3052,-0.120,-0.250
3053,-0.130,-0.240
3054,-0.135,-0.230
3055,-0.140,-0.225
3056,-0.135,-0.250
3057,-0.130,-0.265
3058,-0.125,-0.250
3059,-0.120,-0.240
3060,-0.130,-0.245
3061,-0.130,-0.230
3062,-0.105,-0.180
3063,-0.085,-0.150
3064,-0.070,-0.150
3065,-0.060,-0.145
3066,-0.065,-0.130
3067,-0.050,-0.115
3068,-0.005,-0.100
3069,0.015,0.005
3070,0.035,0.150
3071,0.040,0.165
3072,0.040,0.115
3073,0.025,0.115
3074,0.005,0.140
3075,-0.020,0.095
3076,-0.050,0.025
3077,-0.085,-0.010
3078,-0.115,-0.035
3079,-0.140,-0.040
3080,-0.165,-0.035
3081,-0.170,-0.060
3082,-0.170,-0.095
3083,-0.165,-0.175
3084,-0.150,-0.260
3085,-0.160,-0.290
3086,-0.170,-0.320
3087,-0.170,-0.290
3088,-0.170,-0.260
3089,-0.175,-0.260
3090,-0.180,-0.260
3091,-0.170,-0.275
3092,-0.160,-0.305
3093,-0.155,-0.405
3094,-0.105,-0.355
3095,0.080,0.145
3096,0.270,0.940
3097,0.480,2.435
3098,0.560,3.715
3099,0.375,4.580
3100,-0.195,5.110
3101,-1.370,5.110
3102,-2.090,4.445
3103,-2.240,2.910
3104,-2.205,1.415
3105,-1.965,-0.045
3106,-1.735,-0.690
3107,-1.510,-0.605
3108,-1.160,-0.500
3109,-0.720,-0.380
3110,-0.405,-0.365
3111,-0.170,-0.425
3112,-0.070,-0.440
3113,-0.040,-0.425
3114,-0.025,-0.435
3115,-0.015,-0.460
3116,0.005,-0.465
3117,0.035,-0.455
3118,0.050,-0.465
3119,0.065,-0.485
3120,0.075,-0.465
3121,0.085,-0.435
3122,0.100,-0.430
3123,0.115,-0.435
3124,0.130,-0.430
3125,0.120,-0.440
3126,0.170,-0.425
3127,0.190,-0.440
3128,0.200,-0.385
3129,0.210,-0.330
3130,0.210,-0.385
3131,0.215,-0.430
3132,0.260,-0.415
3133,0.300,-0.400
3134,0.310,-0.410
3135,0.325,-0.420
3136,0.355,-0.425
3137,0.390,-0.425
3138,0.425,-0.400
3139,0.460,-0.380
3140,0.495,-0.375
3141,0.535,-0.370
3142,0.575,-0.370
3143,0.615,-0.370
3144,0.655,-0.380
3145,0.695,-0.380
3146,0.730,-0.355
3147,0.770,-0.345
3148,0.810,-0.360
3149,0.845,-0.370
3150,0.875,-0.370
3151,0.905,-0.385
3152,0.930,-0.415
3153,0.950,-0.430
3154,0.965,-0.425
3155,0.965,-0.430
3156,0.955,-0.445
3157,0.935,-0.450
3158,0.915,-0.445
3159,0.885,-0.445
3160,0.850,-0.455
3161,0.780,-0.440
3162,0.700,-0.415
3163,0.625,-0.380
3164,0.545,-0.345
3165,0.475,-0.315
3166,0.405,-0.285
3167,0.345,-0.270
3168,0.290,-0.260
3169,0.235,-0.240
3170,0.180,-0.220
3171,0.150,-0.195
3172,0.120,-0.170
3173,0.100,-0.170
3174,0.080,-0.170
3175,0.070,-0.165
3176,0.060,-0.160
3177,0.055,-0.175
3178,0.050,-0.190
3179,0.045,-0.180
3180,0.040,-0.170
3181,0.030,-0.190
3182,0.020,-0.195
3183,0.025,-0.170
3184,0.030,-0.160
3185,0.025,-0.185
3186,0.020,-0.200
3187,0.020,-0.190
3188,0.020,-0.185
3189,0.015,-0.195
3190,0.015,-0.195
3191,0.025,-0.185
3192,0.030,-0.195
3193,0.035,-0.220
3194,0.040,-0.230
3195,0.040,-0.225
3196,0.040,-0.210
3197,0.045,-0.195
3198,0.050,-0.190
3199,0.045,-0.195
3200,0.040,-0.205
3201,0.045,-0.215
3202,0.050,-0.225
3203,0.050,-0.235
3204,0.050,-0.240
3205,0.050,-0.240
3206,0.045,-0.240
3207,0.035,-0.240
3208,0.035,-0.230
3209,0.050,-0.210
3210,0.045,-0.240
3211,0.040,-0.270
3212,0.035,-0.270
3213,0.030,-0.270
3214,0.020,-0.265
3215,0.010,-0.260
3216,0.010,-0.245
3217,0.010,-0.235
3218,0.010,-0.265
3219,0.010,-0.290
3220,0.000,-0.280
3221,-0.010,-0.270
3222,-0.010,-0.260
3223,-0.015,-0.250
3224,-0.030,-0.250
3225,-0.040,-0.250
3226,-0.040,-0.250
3227,-0.040,-0.250
3228,-0.045,-0.260
3229,-0.050,-0.270
3230,-0.050,-0.270
3231,-0.050,-0.265
3232,-0.055,-0.250
3233,-0.060,-0.235
3234,-0.065,-0.225
3235,-0.070,-0.235
3236,-0.065,-0.260
3237,-0.065,-0.270
3238,-0.075,-0.270
3239,-0.080,-0.260
3240,-0.080,-0.235
3241,-0.070,-0.195
3242,-0.055,-0.140
3243,-0.030,-0.145
3244,-0.005,-0.165
3245,-0.005,-0.140
3246,-0.015,-0.105
3247,-0.005,-0.060
3248,0.015,-0.015
3249,0.060,0.095
3250,0.020,-0.010
3251,0.080,0.170
3252,0.050,0.130
3253,0.045,0.145
3254,0.040,0.155
3255,0.010,0.085
3256,-0.025,0.020
3257,-0.075,0.020
3258,-0.120,0.020
3259,-0.125,0.010
3260,-0.130,-0.010
3261,-0.140,-0.065
3262,-0.145,-0.125
3263,-0.125,-0.185
3264,-0.115,-0.230
3265,-0.135,-0.235
3266,-0.150,-0.240
3267,-0.150,-0.230
3268,-0.150,-0.225
3269,-0.145,-0.245
3270,-0.140,-0.260
3271,-0.145,-0.275
3272,-0.145,-0.300
3273,-0.130,-0.345
3274,-0.005,-0.035
3275,0.205,0.570
3276,0.410,1.820
3277,0.610,3.475
3278,0.510,4.405
3279,0.250,4.945
3280,-0.645,5.110
3281,-1.805,5.110
3282,-2.165,3.665
3283,-2.260,1.735
3284,-2.040,0.565
3285,-1.730,-0.415
3286,-1.490,-0.570
3287,-1.265,-0.565
3288,-0.915,-0.435
3289,-0.545,-0.290
3290,-0.305,-0.325
3291,-0.075,-0.375
3292,-0.050,-0.375
3293,-0.030,-0.370
3294,-0.015,-0.395
3295,0.000,-0.420
3296,0.020,-0.420
3297,0.040,-0.420
3298,0.050,-0.430
3299,0.060,-0.440
3300,0.070,-0.425
3301,0.080,-0.410
3302,0.090,-0.420
3303,0.105,-0.425
3304,0.135,-0.405
3305,0.160,-0.395
3306,0.150,-0.430
3307,0.145,-0.440
3308,0.170,-0.395
3309,0.190,-0.370
3310,0.200,-0.375
3311,0.215,-0.380
3312,0.230,-0.375
3313,0.250,-0.370
3314,0.270,-0.365
3315,0.290,-0.355
3316,0.310,-0.340
3317,0.335,-0.330
3318,0.365,-0.325
3319,0.390,-0.330
3320,0.410,-0.350
3321,0.450,-0.350
3322,0.495,-0.330
3323,0.525,-0.340
3324,0.550,-0.370
3325,0.600,-0.355
3326,0.660,-0.320
3327,0.695,-0.325
3328,0.735,-0.345
3329,0.765,-0.350
3330,0.795,-0.350
3331,0.800,-0.390
3332,0.805,-0.435
3333,0.825,-0.425
3334,0.850,-0.400
3335,0.835,-0.425
3336,0.820,-0.450
3337,0.805,-0.445
3338,0.790,-0.440
3339,0.755,-0.455
3340,0.710,-0.465
3341,0.645,-0.420
3342,0.580,-0.380
3343,0.505,-0.360
3344,0.440,-0.335
3345,0.390,-0.305
3346,0.335,-0.275
3347,0.275,-0.245
3348,0.220,-0.220
3349,0.185,-0.220
3350,0.150,-0.200
3351,0.120,-0.145
3352,0.095,-0.110
3353,0.080,-0.120
3354,0.070,-0.130
3355,0.055,-0.115
3356,0.050,-0.125
3357,0.045,-0.155
3358,0.035,-0.150
3359,0.025,-0.115
3360,0.020,-0.105
3361,0.025,-0.120
3362,0.030,-0.130
3363,0.025,-0.125
3364,0.020,-0.130
3365,0.020,-0.145
3366,0.020,-0.145
3367,0.025,-0.135
3368,0.030,-0.130
3369,0.035,-0.135
3370,0.040,-0.140
3371,0.040,-0.140
3372,0.040,-0.160
3373,0.045,-0.185
3374,0.050,-0.190
3375,0.050,-0.190
3376,0.055,-0.165
3377,0.060,-0.150
3378,0.065,-0.165
3379,0.070,-0.180
3380,0.080,-0.175
3381,0.090,-0.170
3382,0.100,-0.205
3383,0.110,-0.215
3384,0.105,-0.125
3385,0.100,-0.040
3386,0.105,0.010
3387,0.110,0.080
3388,0.115,0.185
3389,0.110,0.235
3390,0.075,0.160
3391,0.095,0.250
3392,0.230,0.630
3393,0.355,1.070
3394,0.475,1.590
3395,0.610,1.800
3396,0.770,1.645
3397,0.905,0.915
3398,1.020,-0.360
3399,1.110,-1.515
3400,1.180,-2.575
3401,1.550,-3.040
3402,2.105,-3.130
3403,2.825,-3.160
3404,3.630,-3.155
3405,3.825,-2.980
3406,3.760,-2.735
3407,3.510,-2.440
3408,3.195,-2.125
3409,3.140,-1.905
3410,3.155,-1.715
3411,3.065,-1.640
3412,2.945,-1.590
3413,3.295,-1.680
3414,3.710,-1.800
3415,3.480,-1.700
3416,3.195,-1.585
3417,2.525,-1.385
3418,1.850,-1.185
3419,1.055,-0.915
3420,0.315,-0.640
3421,0.205,-0.350
3422,0.095,-0.065
3423,-0.035,0.170
3424,-0.160,0.395
3425,-0.225,0.540
3426,-0.285,0.680
3427,-0.325,0.775
3428,-0.360,0.875
3429,-0.360,0.985
3430,-0.370,1.085
3431,-0.420,1.170
3432,-0.450,1.260
3433,-0.450,1.360
3434,-0.460,1.505
3435,-0.485,1.715
3436,-0.500,1.870
3437,-0.500,1.960
3438,-0.535,2.050
3439,-0.615,2.140
3440,-0.660,2.205
3441,-0.685,2.250
3442,-0.735,2.315
3443,-0.795,2.390
3444,-0.855,2.485
3445,-0.920,2.585
3446,-0.975,2.700
3447,-1.035,2.825
3448,-1.090,2.890
3449,-1.145,2.935
3450,-1.185,3.050
3451,-1.220,3.185
3452,-1.270,3.320
3453,-1.320,3.450
3454,-1.370,3.620
3455,-1.415,3.795
3456,-1.460,3.865
3457,-1.505,3.925
3458,-1.505,3.960
3459,-1.490,4.000
3460,-1.490,3.945
3461,-1.490,3.885
3462,-1.450,3.775
3463,-1.405,3.640
3464,-1.340,3.350
3465,-1.265,3.055
3466,-1.165,2.740
3467,-1.060,2.430
3468,-0.955,2.135
3469,-0.845,1.840
3470,-0.730,1.550
3471,-0.620,1.260
3472,-0.520,0.975
3473,-0.425,0.725
3474,-0.340,0.525
3475,-0.270,0.350
3476,-0.220,0.215
3477,-0.175,0.110
3478,-0.135,0.030
3479,-0.110,-0.025
3480,-0.110,-0.070
3481,-0.105,-0.125
3482,-0.095,-0.195
3483,-0.090,-0.230
3484,-0.095,-0.235
3485,-0.100,-0.245
3486,-0.100,-0.255
3487,-0.100,-0.255
3488,-0.100,-0.245
3489,-0.100,-0.260
3490,-0.100,-0.290
3491,-0.100,-0.290
3492,-0.100,-0.275
3493,-0.100,-0.270
3494,-0.100,-0.270
3495,-0.110,-0.255
3496,-0.125,-0.235
3497,-0.120,-0.255
3498,-0.105,-0.285
3499,-0.100,-0.290
3500,-0.100,-0.290
3501,-0.105,-0.285
3502,-0.110,-0.280
3503,-0.115,-0.290
3504,-0.120,-0.300
3505,-0.115,-0.290
3506,-0.110,-0.280
3507,-0.115,-0.300
3508,-0.120,-0.320
3509,-0.130,-0.325
3510,-0.140,-0.330
3511,-0.135,-0.315
3512,-0.130,-0.300
3513,-0.120,-0.290
3514,-0.110,-0.290
3515,-0.110,-0.325
3516,-0.115,-0.345
3517,-0.130,-0.325
3518,-0.140,-0.310
3519,-0.140,-0.320
3520,-0.140,-0.320
3521,-0.140,-0.285
3522,-0.140,-0.285
3523,-0.145,-0.315
3524,-0.145,-0.325
3525,-0.135,-0.315
3526,-0.130,-0.315
3527,-0.130,-0.330
3528,-0.130,-0.320
3529,-0.135,-0.290
3530,-0.140,-0.285
3531,-0.145,-0.295
3532,-0.150,-0.300
3533,-0.145,-0.300
3534,-0.145,-0.315
3535,-0.155,-0.335
3536,-0.155,-0.315
3537,-0.145,-0.285
3538,-0.140,-0.275
3539,-0.145,-0.265
3540,-0.150,-0.285
3541,-0.150,-0.315
3542,-0.150,-0.320
3543,-0.150,-0.320
3544,-0.165,-0.310
3545,-0.180,-0.300
3546,-0.175,-0.285
3547,-0.170,-0.270
3548,-0.180,-0.295
3549,-0.190,-0.320
3550,-0.175,-0.305
3551,-0.160,-0.290
3552,-0.180,-0.310
3553,-0.200,-0.325
3554,-0.185,-0.295
3555,-0.170,-0.275
3556,-0.180,-0.310
3557,-0.190,-0.330
3558,-0.180,-0.325
3559,-0.170,-0.320
3560,-0.175,-0.325
3561,-0.180,-0.325
3562,-0.185,-0.310
3563,-0.190,-0.300
3564,-0.190,-0.305
3565,-0.190,-0.315
3566,-0.190,-0.325
3567,-0.190,-0.335
3568,-0.195,-0.350
3569,-0.205,-0.345
3570,-0.215,-0.320
3571,-0.220,-0.315
3572,-0.215,-0.325
3573,-0.205,-0.330
3574,-0.195,-0.330
3575,-0.195,-0.330
3576,-0.205,-0.335
3577,-0.210,-0.340
3578,-0.210,-0.340
3579,-0.215,-0.340
3580,-0.225,-0.345
3581,-0.230,-0.350
3582,-0.225,-0.350
3583,-0.220,-0.340
3584,-0.230,-0.320
3585,-0.225,-0.350
3586,-0.220,-0.380
3587,-0.225,-0.345
3588,-0.230,-0.310
3589,-0.225,-0.315
3590,-0.220,-0.320
3591,-0.220,-0.325
3592,-0.220,-0.330
3593,-0.225,-0.335
3594,-0.230,-0.335
3595,-0.225,-0.305
3596,-0.220,-0.280
3597,-0.235,-0.295
3598,-0.245,-0.310
3599,-0.230,-0.305
3600,-0.220,-0.305
3601,-0.230,-0.320
3602,-0.240,-0.325
3603,-0.235,-0.305
3604,-0.230,-0.280
3605,-0.235,-0.255
3606,-0.230,-0.230
3607,-0.205,-0.210
3608,-0.185,-0.195
3609,-0.175,-0.185
3610,-0.170,-0.180
3611,-0.175,-0.175
3612,-0.165,-0.130
3613,-0.140,-0.060
3614,-0.105,0.030
3615,-0.060,0.135
3616,-0.060,0.135
3617,-0.075,0.100
3618,-0.100,0.085
3619,-0.135,0.075
3620,-0.145,0.070
3621,-0.155,0.075
3622,-0.190,0.035
3623,-0.225,-0.015
3624,-0.235,-0.035
3625,-0.230,-0.020
3626,-0.260,-0.105
3627,-0.270,-0.150
3628,-0.250,-0.200
3629,-0.230,-0.250
3630,-0.260,-0.255
3631,-0.290,-0.260
3632,-0.275,-0.265
3633,-0.260,-0.270
3634,-0.270,-0.280
3635,-0.280,-0.300
3636,-0.280,-0.355
3637,-0.280,-0.345
3638,-0.275,-0.145
3639,-0.215,0.230
3640,-0.035,0.960
3641,0.185,2.070
3642,0.465,3.820
3643,0.485,4.890
3644,0.130,5.030
3645,-0.450,4.925
3646,-1.285,4.525
3647,-1.700,3.130
3648,-1.720,0.800
3649,-1.680,-0.305
3650,-1.590,-0.465
3651,-1.360,-0.535
3652,-1.050,-0.550
3653,-0.810,-0.475
3654,-0.605,-0.340
3655,-0.415,-0.335
3656,-0.235,-0.385
3657,-0.190,-0.405
3658,-0.190,-0.415
3659,-0.170,-0.435
3660,-0.135,-0.455
3661,-0.110,-0.460
3662,-0.085,-0.465
3663,-0.075,-0.455
3664,-0.065,-0.435
3665,-0.055,-0.430
3666,-0.045,-0.425
3667,-0.025,-0.430
3668,-0.010,-0.440
3669,-0.010,-0.440
3670,-0.010,-0.440
3671,0.000,-0.420
3672,0.010,-0.400
3673,0.025,-0.400
3674,0.040,-0.400
3675,0.070,-0.395
3676,0.090,-0.390
3677,0.090,-0.395
3678,0.095,-0.395
3679,0.125,-0.375
3680,0.150,-0.360
3681,0.150,-0.380
3682,0.160,-0.390
3683,0.195,-0.380
3684,0.225,-0.375
3685,0.240,-0.390
3686,0.255,-0.400
3687,0.275,-0.410
3688,0.310,-0.425
3689,0.350,-0.435
3690,0.380,-0.440
3691,0.405,-0.445
3692,0.445,-0.465
3693,0.490,-0.495
3694,0.520,-0.525
3695,0.540,-0.560
3696,0.570,-0.590
3697,0.600,-0.620
3698,0.615,-0.655
3699,0.625,-0.690
3700,0.650,-0.735
3701,0.680,-0.780
3702,0.690,-0.835
3703,0.685,-0.890
3704,0.675,-0.900
3705,0.665,-0.900
3706,0.610,-0.900
3707,0.555,-0.905
3708,0.495,-0.895
3709,0.430,-0.870
3710,0.370,-0.850
3711,0.310,-0.830
3712,0.245,-0.775
3713,0.185,-0.715
3714,0.140,-0.650
3715,0.100,-0.580
3716,0.065,-0.515
3717,0.040,-0.455
3718,0.020,-0.430
3719,-0.005,-0.405
3720,-0.025,-0.370
3721,-0.040,-0.335
3722,-0.040,-0.305
3723,-0.040,-0.275
3724,-0.050,-0.260
3725,-0.055,-0.250
3726,-0.040,-0.245
3727,-0.030,-0.240
3728,-0.030,-0.235
3729,-0.030,-0.230
3730,-0.030,-0.230
3731,-0.035,-0.225
3732,-0.050,-0.215
3733,-0.055,-0.200
3734,-0.045,-0.180
3735,-0.035,-0.185
3736,-0.025,-0.210
3737,-0.020,-0.215
3738,-0.015,-0.205
3739,-0.010,-0.190
3740,-0.015,-0.175
3741,-0.020,-0.170
3742,-0.015,-0.165
3743,-0.010,-0.175
3744,-0.005,-0.195
3745,0.000,-0.200
3746,0.000,-0.195
3747,0.000,-0.185
3748,0.000,-0.175
3749,0.000,-0.155
3750,0.000,-0.170
3751,0.015,-0.155
3752,0.030,-0.180
3753,0.035,-0.135
3754,0.035,-0.080
3755,-0.035,0.070
3756,-0.105,0.200
3757,-0.140,0.220
3758,-0.170,0.325
3759,-0.165,0.795
3760,-0.105,1.370
3761,0.145,2.280
3762,0.495,3.245
3763,1.095,4.335
3764,1.815,5.075
3765,2.775,5.095
3766,3.705,4.765
3767,4.580,3.845
3768,5.090,2.420
3769,5.100,0.300
3770,5.110,-1.230
3771,5.110,-2.085
3772,5.050,-2.350
3773,4.925,-2.060
3774,4.660,-1.785
3775,4.290,-1.525
3776,3.960,-1.510
3777,3.665,-1.665
3778,3.650,-1.675
3779,3.795,-1.605
3780,3.940,-1.400
3781,4.080,-1.145
3782,3.280,-0.885
3783,2.160,-0.615
3784,1.380,-0.405
3785,0.690,-0.205
3786,0.440,-0.055
3787,0.270,0.080
3788,0.040,0.220
3789,-0.200,0.360
3790,-0.310,0.370
3791,-0.405,0.375
3792,-0.495,0.455
3793,-0.580,0.530
3794,-0.640,0.485
3795,-0.700,0.440
3796,-0.760,0.405
3797,-0.815,0.370
3798,-0.890,0.400
3799,-0.955,0.430
3800,-1.000,0.400
3801,-1.040,0.370
3802,-1.060,0.310
3803,-1.090,0.265
3804,-1.135,0.285
3805,-1.180,0.300
3806,-1.220,0.310
3807,-1.270,0.330
3808,-1.340,0.375
3809,-1.395,0.410
3810,-1.440,0.440
3811,-1.500,0.465
3812,-1.570,0.485
3813,-1.635,0.510
3814,-1.690,0.530
3815,-1.770,0.580
3816,-1.860,0.665
3817,-1.935,0.735
3818,-2.005,0.805
3819,-2.075,0.860
3820,-2.155,0.910
3821,-2.220,0.970
3822,-2.280,1.030
3823,-2.320,1.095
3824,-2.350,1.165
3825,-2.365,1.220
3826,-2.375,1.270
3827,-2.350,1.285
3828,-2.310,1.295
3829,-2.240,1.240
3830,-2.170,1.170
3831,-2.055,1.030
3832,-1.935,0.885
3833,-1.790,0.760
3834,-1.640,0.630
3835,-1.465,0.470
3836,-1.290,0.315
3837,-1.130,0.185
3838,-0.965,0.060
3839,-0.830,-0.040
3840,-0.695,-0.130
3841,-0.590,-0.165
3842,-0.490,-0.195
3843,-0.430,-0.235
3844,-0.370,-0.275
3845,-0.320,-0.295
3846,-0.280,-0.315
3847,-0.265,-0.345
3848,-0.245,-0.370
3849,-0.230,-0.365
3850,-0.220,-0.360
3851,-0.220,-0.360
3852,-0.215,-0.360
3853,-0.200,-0.350
3854,-0.190,-0.340
3855,-0.185,-0.345
3856,-0.180,-0.355
3857,-0.185,-0.365
3858,-0.190,-0.360
3859,-0.185,-0.330
3860,-0.180,-0.320
3861,-0.180,-0.320
3862,-0.180,-0.330
3863,-0.175,-0.345
3864,-0.170,-0.340
3865,-0.165,-0.325
3866,-0.165,-0.310
3867,-0.175,-0.295
3868,-0.180,-0.295
3869,-0.175,-0.305
3870,-0.165,-0.305
3871,-0.155,-0.295
3872,-0.150,-0.300
3873,-0.155,-0.315
3874,-0.160,-0.320
3875,-0.160,-0.320
3876,-0.165,-0.315
3877,-0.170,-0.310
3878,-0.165,-0.305
3879,-0.160,-0.300
3880,-0.150,-0.305
3881,-0.140,-0.310
3882,-0.140,-0.305
3883,-0.140,-0.300
3884,-0.145,-0.295
3885,-0.150,-0.290
3886,-0.150,-0.300
3887,-0.150,-0.310
3888,-0.150,-0.320
3889,-0.150,-0.330
3890,-0.145,-0.330
3891,-0.140,-0.325
3892,-0.135,-0.310
3893,-0.130,-0.300
3894,-0.140,-0.300
3895,-0.150,-0.300
3896,-0.145,-0.295
3897,-0.140,-0.300
3898,-0.140,-0.320
3899,-0.140,-0.330
3900,-0.145,-0.335
3901,-0.150,-0.340
3902,-0.150,-0.335
3903,-0.150,-0.320
3904,-0.145,-0.305
3905,-0.135,-0.310
3906,-0.125,-0.325
3907,-0.125,-0.330
3908,-0.135,-0.335
3909,-0.140,-0.340
3910,-0.135,-0.335
3911,-0.130,-0.315
3912,-0.135,-0.295
3913,-0.140,-0.315
3914,-0.140,-0.345
3915,-0.140,-0.345
3916,-0.145,-0.335
3917,-0.145,-0.330
3918,-0.140,-0.330
3919,-0.145,-0.330
3920,-0.150,-0.330
3921,-0.140,-0.335
3922,-0.130,-0.340
3923,-0.135,-0.345
3924,-0.140,-0.350
3925,-0.140,-0.350
3926,-0.140,-0.350
3927,-0.150,-0.335
3928,-0.160,-0.320
3929,-0.160,-0.320
3930,-0.160,-0.320
3931,-0.155,-0.330
3932,-0.150,-0.340
3933,-0.160,-0.345
3934,-0.170,-0.350
3935,-0.160,-0.340
3936,-0.150,-0.325
3937,-0.155,-0.305
3938,-0.160,-0.295
3939,-0.160,-0.310
3940,-0.160,-0.320
3941,-0.160,-0.320
3942,-0.160,-0.320
3943,-0.160,-0.320
3944,-0.165,-0.315
3945,-0.175,-0.305
3946,-0.170,-0.300
3947,-0.155,-0.305
3948,-0.150,-0.310
3949,-0.150,-0.305
3950,-0.150,-0.315
3951,-0.150,-0.335
3952,-0.155,-0.325
3953,-0.165,-0.305
3954,-0.170,-0.295
3955,-0.165,-0.285
3956,-0.155,-0.280
3957,-0.145,-0.275
3958,-0.125,-0.255
3959,-0.100,-0.230
3960,-0.095,-0.200
3961,-0.090,-0.170
3962,-0.070,-0.150
3963,-0.050,-0.125
3964,-0.035,-0.040
3965,-0.015,0.030
3966,0.020,0.045
3967,0.045,0.060
3968,0.005,0.075
3969,-0.035,0.090
3970,-0.060,0.075
3971,-0.080,0.040
3972,-0.085,-0.030
3973,-0.105,-0.080
3974,-0.150,-0.080
3975,-0.180,-0.095
3976,-0.185,-0.135
3977,-0.190,-0.170
3978,-0.200,-0.200
3979,-0.210,-0.235
3980,-0.195,-0.280
3981,-0.190,-0.295
3982,-0.190,-0.280
3983,-0.195,-0.290
3984,-0.205,-0.325
3985,-0.210,-0.325
3986,-0.210,-0.300
3987,-0.210,-0.385
3988,-0.205,-0.535
3989,-0.110,-0.355
3990,0.020,-0.035
3991,0.210,1.010
3992,0.425,2.280
3993,0.510,3.595
3994,0.560,4.920
3995,-0.310,5.110
3996,-1.340,5.110
3997,-1.800,4.275
3998,-2.200,3.355
3999,-2.110,1.355
4000,-2.220,3.310
4001,-1.775,-0.610
4002,-1.550,-0.515
4003,-1.085,-0.395
4004,-0.640,-0.280
4005,-0.410,-0.320
4006,-0.200,-0.365
4007,-0.125,-0.400
4008,-0.060,-0.430
4009,-0.050,-0.450
4010,-0.035,-0.470
4011,0.000,-0.460
4012,0.030,-0.450
4013,0.040,-0.455
4014,0.055,-0.460
4015,0.070,-0.465
4016,0.085,-0.470
4017,0.100,-0.470
4018,0.115,-0.475
4019,0.135,-0.495
4020,0.150,-0.495
4021,0.150,-0.450
4022,0.165,-0.435
4023,0.200,-0.445
4024,0.225,-0.450
4025,0.235,-0.455
4026,0.255,-0.445
4027,0.280,-0.415
4028,0.295,-0.400
4029,0.305,-0.405
4030,0.325,-0.420
4031,0.350,-0.435
4032,0.375,-0.440
4033,0.395,-0.445
4034,0.435,-0.455
4035,0.480,-0.465
4036,0.505,-0.455
4037,0.525,-0.435
4038,0.575,-0.440
4039,0.625,-0.455
4040,0.665,-0.470
4041,0.705,-0.485
4042,0.750,-0.515
4043,0.790,-0.540
4044,0.840,-0.605
4045,0.890,-0.670
4046,0.915,-0.665
4047,0.945,-0.665
4048,1.000,-0.705
4049,1.050,-0.740
4050,1.060,-0.755
4051,1.070,-0.775
4052,1.070,-0.815
4053,1.070,-0.850
4054,1.060,-0.855
4055,1.035,-0.860
4056,0.985,-0.880
4057,0.930,-0.880
4058,0.870,-0.850
4059,0.790,-0.825
4060,0.690,-0.810
4061,0.600,-0.770
4062,0.520,-0.700
4063,0.440,-0.635
4064,0.350,-0.585
4065,0.275,-0.530
4066,0.200,-0.475
4067,0.160,-0.435
4068,0.140,-0.405
4069,0.110,-0.365
4070,0.075,-0.325
4071,0.050,-0.275
4072,0.035,-0.225
4073,0.020,-0.225
4074,0.005,-0.250
4075,0.020,-0.235
4076,0.045,-0.200
4077,0.025,-0.195
4078,-0.015,-0.205
4079,-0.020,-0.175
4080,-0.015,-0.135
4081,-0.010,-0.130
4082,-0.010,-0.130
4083,-0.015,-0.090
4084,-0.030,-0.040
4085,-0.025,-0.080
4086,-0.020,-0.120
4087,-0.035,-0.150
4088,-0.050,-0.185
4089,-0.030,-0.230
4090,-0.010,-0.270
4091,-0.015,-0.270
4092,-0.020,-0.265
4093,-0.010,-0.240
4094,0.000,-0.220
4095,-0.005,-0.235
4096,-0.010,-0.250
4097,-0.015,-0.240
4098,-0.020,-0.230
4099,-0.010,-0.225
4100,0.000,-0.230
4101,0.000,-0.255
4102,0.000,-0.270
4103,0.000,-0.270
4104,0.000,-0.260
4105,-0.005,-0.235
4106,-0.015,-0.225
4107,-0.025,-0.235
4108,-0.025,-0.240
4109,-0.015,-0.240
4110,-0.010,-0.240
4111,-0.015,-0.245
4112,-0.030,-0.240
4113,-0.050,-0.225
4114,-0.060,-0.230
4115,-0.055,-0.245
4116,-0.050,-0.245
4117,-0.045,-0.235
4118,-0.040,-0.235
4119,-0.040,-0.245
4120,-0.050,-0.220
4121,-0.065,-0.185
4122,-0.050,-0.165
4123,-0.025,-0.145
4124,-0.025,-0.110
4125,-0.020,-0.140
4126,-0.035,-0.075
4127,-0.030,-0.080
4128,0.005,-0.030
4129,0.040,0.030
4130,0.050,0.140
4131,0.060,0.240
4132,0.040,0.230
4133,0.015,0.215
4134,-0.020,0.170
4135,-0.050,0.125
4136,-0.055,0.090
4137,-0.070,0.055
4138,-0.125,0.025
4139,-0.170,-0.005
4140,-0.210,-0.020
4141,-0.235,-0.040
4142,-0.215,-0.070
4143,-0.200,-0.120
4144,-0.195,-0.195
4145,-0.190,-0.240
4146,-0.205,-0.255
4147,-0.205,-0.260
4148,-0.195,-0.255
4149,-0.190,-0.240
4150,-0.195,-0.210
4151,-0.205,-0.225
4152,-0.215,-0.270
4153,-0.220,-0.420
4154,-0.220,-0.620
4155,-0.105,-0.375
4156,0.055,0.065
4157,0.255,1.265
4158,0.465,2.715
4159,0.460,3.865
4160,0.395,4.940
4161,-0.510,5.110
4162,-1.570,5.110
4163,-1.920,3.765
4164,-2.180,2.255
4165,-2.010,0.840
4166,-1.805,-0.565
4167,-1.550,-0.550
4168,-1.295,-0.510
4169,-0.975,-0.395
4170,-0.665,-0.295
4171,-0.420,-0.360
4172,-0.200,-0.420
4173,-0.170,-0.405
4174,-0.140,-0.390
4175,-0.135,-0.385
4176,-0.125,-0.380
4177,-0.095,-0.395
4178,-0.070,-0.410
4179,-0.060,-0.415
4180,-0.050,-0.415
4181,-0.030,-0.390
4182,-0.020,-0.365
4183,-0.025,-0.340
4184,-0.030,-0.330
4185,-0.020,-0.360
4186,-0.005,-0.380
4187,0.015,-0.385
4188,0.030,-0.385
4189,0.035,-0.370
4190,0.040,-0.350
4191,0.045,-0.325
4192,0.070,-0.345
4193,0.105,-0.415
4194,0.115,-0.395
4195,0.105,-0.315
4196,0.120,-0.310
4197,0.160,-0.350
4198,0.175,-0.360
4199,0.185,-0.360
4200,0.195,-0.360
4201,0.205,-0.360
4202,0.225,-0.350
4203,0.245,-0.335
4204,0.245,-0.385
4205,0.235,-0.450
4206,0.255,-0.425
4207,0.285,-0.385
4208,0.315,-0.420
4209,0.350,-0.470
4210,0.365,-0.430
4211,0.380,-0.390
4212,0.400,-0.400
4213,0.420,-0.410
4214,0.440,-0.435
4215,0.460,-0.460
4216,0.445,-0.470
4217,0.430,-0.475
4218,0.430,-0.450
4219,0.430,-0.435
4220,0.420,-0.455
4221,0.395,-0.470
4222,0.345,-0.460
4223,0.305,-0.430
4224,0.280,-0.365
4225,0.240,-0.305
4226,0.175,-0.265
4227,0.125,-0.230
4228,0.090,-0.200
4229,0.055,-0.180
4230,0.010,-0.175
4231,-0.025,-0.160
4232,-0.055,-0.140
4233,-0.075,-0.095
4234,-0.085,-0.025
4235,-0.095,-0.060
4236,-0.105,-0.165
4237,-0.115,-0.190
4238,-0.125,-0.175
4239,-0.120,-0.170
4240,-0.105,-0.165
4241,-0.120,-0.165
4242,-0.150,-0.175
4243,-0.135,-0.180
4244,-0.100,-0.185
4245,-0.105,-0.190
4246,-0.125,-0.195
4247,-0.125,-0.200
4248,-0.115,-0.195
4249,-0.110,-0.185
4250,-0.110,-0.190
4251,-0.120,-0.165
4252,-0.120,-0.160
4253,-0.135,-0.190
4254,-0.150,-0.220
4255,-0.115,-0.215
4256,-0.080,-0.210
4257,-0.095,-0.190
4258,-0.110,-0.170
4259,-0.125,-0.180
4260,-0.135,-0.190
4261,-0.110,-0.190
4262,-0.090,-0.190
4263,-0.095,-0.200
4264,-0.100,-0.210
4265,-0.095,-0.220
4266,-0.090,-0.225
4267,-0.095,-0.210
4268,-0.100,-0.195
4269,-0.090,-0.175
4270,-0.085,-0.165
4271,-0.100,-0.180
4272,-0.110,-0.215
4273,-0.105,-0.275
4274,-0.110,-0.285
4275,-0.130,-0.255
4276,-0.125,-0.235
4277,-0.100,-0.220
4278,-0.100,-0.225
4279,-0.120,-0.250
4280,-0.130,-0.260
4281,-0.130,-0.260
4282,-0.135,-0.255
4283,-0.145,-0.245
4284,-0.150,-0.220
4285,-0.150,-0.195
4286,-0.135,-0.195
4287,-0.115,-0.205
4288,-0.110,-0.195
4289,-0.110,-0.175
4290,-0.110,-0.160
4291,-0.110,-0.145
4292,-0.085,-0.080
4293,-0.060,-0.020
4294,-0.040,0.090
4295,-0.020,0.190
4296,-0.010,0.160
4297,0.000,0.130
4298,-0.015,0.130
4299,-0.035,0.130
4300,-0.090,0.125
4301,-0.130,0.110
4302,-0.130,0.050
4303,-0.140,0.000
4304,-0.200,-0.015
4305,-0.240,-0.035
4306,-0.230,-0.060
4307,-0.220,-0.090
4308,-0.225,-0.125
4309,-0.230,-0.165
4310,-0.240,-0.210
4311,-0.250,-0.240
4312,-0.245,-0.235
4313,-0.235,-0.230
4314,-0.225,-0.230
4315,-0.225,-0.240
4316,-0.235,-0.265
4317,-0.240,-0.330
4318,-0.240,-0.415
4319,-0.185,-0.245
4320,-0.100,0.085
4321,0.035,0.860
4322,0.185,1.840
4323,0.410,3.230
4324,0.655,4.770
4325,0.155,5.110
4326,-0.555,5.110
4327,-1.195,4.235
4328,-1.820,3.175
4329,-1.775,1.360
4330,-1.635,-0.565
4331,-1.540,-0.670
4332,-1.445,-0.615
4333,-1.155,-0.555
4334,-0.860,-0.490
4335,-0.630,-0.420
4336,-0.405,-0.350
4337,-0.265,-0.370
4338,-0.140,-0.390
4339,-0.145,-0.420
4340,-0.150,-0.450
4341,-0.125,-0.460
4342,-0.095,-0.465
4343,-0.070,-0.430
4344,-0.050,-0.400
4345,-0.055,-0.415
4346,-0.055,-0.430
4347,-0.035,-0.420
4348,-0.020,-0.415
4349,-0.015,-0.430
4350,-0.010,-0.430
4351,-0.005,-0.405
4352,0.010,-0.390
4353,0.035,-0.385
4354,0.050,-0.380
4355,0.055,-0.365
4356,0.065,-0.360
4357,0.080,-0.360
4358,0.090,-0.360
4359,0.090,-0.365
4360,0.105,-0.350
4361,0.130,-0.315
4362,0.150,-0.300
4363,0.170,-0.295
4364,0.190,-0.295
4365,0.215,-0.305
4366,0.235,-0.310
4367,0.265,-0.305
4368,0.290,-0.280
4369,0.325,-0.255
4370,0.360,-0.265
4371,0.395,-0.285
4372,0.415,-0.295
4373,0.435,-0.305
4374,0.475,-0.310
4375,0.440,-0.310
4376,0.535,-0.310
4377,0.550,-0.310
4378,0.570,-0.335
4379,0.590,-0.360
4380,0.585,-0.360
4381,0.580,-0.365
4382,0.590,-0.405
4383,0.595,-0.440
4384,0.565,-0.445
4385,0.535,-0.450
4386,0.490,-0.435
4387,0.450,-0.415
4388,0.395,-0.385
4389,0.345,-0.360
4390,0.290,-0.350
4391,0.235,-0.335
4392,0.190,-0.305
4393,0.145,-0.280
4394,0.095,-0.250
4395,0.060,-0.230
4396,0.025,-0.225
4397,0.000,-0.220
4398,-0.025,-0.215
4399,-0.045,-0.210
4400,-0.060,-0.215
4401,-0.070,-0.220
4402,-0.075,-0.215
4403,-0.080,-0.205
4404,-0.080,-0.195
4405,-0.080,-0.180
4406,-0.085,-0.165
4407,-0.090,-0.170
4408,-0.090,-0.185
4409,-0.090,-0.195
4410,-0.095,-0.205
4411,-0.100,-0.180
4412,-0.095,-0.135
4413,-0.090,-0.150
4414,-0.095,-0.175
4415,-0.090,-0.165
4416,-0.075,-0.145
4417,-0.075,-0.170
4418,-0.080,-0.200
4419,-0.070,-0.180
4420,-0.060,-0.160
4421,-0.075,-0.170
4422,-0.090,-0.180
4423,-0.075,-0.160
4424,-0.060,-0.140
4425,-0.060,-0.155
4426,-0.060,-0.170
4427,-0.060,-0.175
4428,-0.060,-0.180
4429,-0.070,-0.170
4430,-0.080,-0.160
4431,-0.060,-0.165
4432,-0.050,-0.170
4433,-0.055,-0.170
4434,-0.060,-0.175
4435,-0.060,-0.195
4436,-0.060,-0.200
4437,-0.065,-0.175
4438,-0.070,-0.170
4439,-0.070,-0.190
4440,-0.070,-0.190
4441,-0.070,-0.170
4442,-0.070,-0.180
4443,-0.065,-0.215
4444,-0.060,-0.210
4445,-0.060,-0.175
4446,-0.070,-0.170
4447,-0.090,-0.190
4448,-0.090,-0.185
4449,-0.075,-0.165
4450,-0.080,-0.180
4451,-0.095,-0.205
4452,-0.100,-0.210
4453,-0.095,-0.205
4454,-0.090,-0.175
4455,-0.090,-0.145
4456,-0.085,-0.125
4457,-0.075,-0.105
4458,-0.045,-0.095
4459,-0.010,-0.080
4460,-0.025,-0.075
4461,-0.040,-0.070
4462,-0.015,-0.005
4463,0.010,0.060
4464,0.025,0.155
4465,0.040,0.235
4466,0.040,0.200
4467,0.035,0.170
4468,-0.015,0.160
4469,-0.050,0.140
4470,-0.055,0.100
4471,-0.070,0.060
4472,-0.110,0.020
4473,-0.145,0.030
4474,-0.165,0.145
4475,-0.180,0.150
4476,-0.175,-0.025
4477,-0.170,-0.150
4478,-0.165,-0.210
4479,-0.160,-0.240
4480,-0.175,-0.245
4481,-0.180,-0.250
4482,-0.185,-0.250
4483,-0.190,-0.255
4484,-0.190,-0.265
4485,-0.185,-0.265
4486,-0.175,-0.255
4487,-0.175,-0.360
4488,-0.185,-0.520
4489,-0.085,-0.255
4490,0.065,0.185
4491,0.260,1.290
4492,0.470,2.600
4493,0.465,3.790
4494,0.400,4.945
4495,-0.515,5.110
4496,-1.570,5.110
4497,-1.970,4.095
4498,-2.300,2.975
4499,-2.190,1.160
4500,-2.320,2.920
4501,-1.815,-0.625
4502,-1.570,-0.555
4503,-1.100,-0.440
4504,-0.650,-0.330
4505,-0.390,-0.355
4506,-0.165,-0.380
4507,-0.100,-0.395
4508,-0.050,-0.410
4509,-0.030,-0.420
4510,-0.005,-0.430
4511,0.020,-0.435
4512,0.040,-0.440
4513,0.050,-0.445
4514,0.065,-0.445
4515,0.080,-0.425
4516,0.090,-0.410
4517,0.095,-0.400
4518,0.105,-0.390
4519,0.120,-0.400
4520,0.135,-0.410
4521,0.150,-0.410
4522,0.165,-0.405
4523,0.175,-0.390
4524,0.190,-0.375
4525,0.220,-0.365
4526,0.235,-0.365
4527,0.250,-0.380
4528,0.275,-0.390
4529,0.300,-0.385
4530,0.325,-0.380
4531,0.350,-0.385
4532,0.380,-0.360
4533,0.410,-0.320
4534,0.440,-0.310
4535,0.475,-0.315
4536,0.515,-0.320
4537,0.560,-0.320
4538,0.600,-0.320
4539,0.635,-0.325
4540,0.670,-0.310
4541,0.705,-0.285
4542,0.745,-0.285
4543,0.780,-0.290
4544,0.820,-0.300
4545,0.860,-0.310
4546,0.880,-0.345
4547,0.900,-0.380
4548,0.925,-0.370
4549,0.950,-0.360
4550,0.945,-0.380
4551,0.940,-0.400
4552,0.925,-0.405
4553,0.905,-0.410
4554,0.875,-0.410
4555,0.830,-0.410
4556,0.765,-0.390
4557,0.695,-0.370
4558,0.620,-0.325
4559,0.545,-0.290
4560,0.470,-0.250
4561,0.410,-0.225
4562,0.360,-0.210
4563,0.305,-0.190
4564,0.250,-0.170
4565,0.195,-0.145
4566,0.150,-0.105
4567,0.120,-0.095
4568,0.100,-0.105
4569,0.075,-0.105
4570,0.050,-0.085
4571,0.040,-0.090
4572,0.035,-0.110
4573,0.030,-0.115
4574,0.030,-0.105
4575,0.020,-0.115
4576,0.005,-0.135
4577,0.000,-0.140
4578,0.005,-0.135
4579,0.010,-0.130
4580,0.010,-0.135
4581,0.010,-0.140
4582,0.005,-0.140
4583,0.000,-0.135
4584,-0.010,-0.120
4585,-0.005,-0.125
4586,0.000,-0.130
4587,0.005,-0.145
4588,0.010,-0.160
4589,0.010,-0.165
4590,0.010,-0.170
4591,0.010,-0.160
4592,0.010,-0.150
4593,0.015,-0.155
4594,0.020,-0.160
4595,0.025,-0.165
4596,0.030,-0.170
4597,0.040,-0.180
4598,0.050,-0.190
4599,0.045,-0.195
4600,0.040,-0.200
4601,0.050,-0.200
4602,0.060,-0.200
4603,0.050,-0.195
4604,0.040,-0.195
4605,0.045,-0.210
4606,0.050,-0.220
4607,0.045,-0.215
4608,0.035,-0.205
4609,0.025,-0.195
4610,0.025,-0.190
4611,0.035,-0.185
4612,0.035,-0.190
4613,0.025,-0.205
4614,0.020,-0.200
4615,0.015,-0.185
4616,0.010,-0.150
4617,0.015,-0.110
4618,0.035,-0.115
4619,0.055,-0.135
4620,0.060,-0.105
4621,0.055,-0.065
4622,0.075,-0.060
4623,0.105,-0.065
4624,0.100,0.020
4625,0.110,-0.070
4626,0.115,0.140
4627,0.150,0.160
4628,0.110,0.165
4629,0.070,0.170
4630,0.015,0.150
4631,-0.030,0.120
4632,-0.025,0.050
4633,-0.025,-0.010
4634,-0.070,-0.010
4635,-0.115,-0.010
4636,-0.145,-0.015
4637,-0.165,-0.035
4638,-0.145,-0.095
4639,-0.130,-0.160
4640,-0.135,-0.235
4641,-0.140,-0.275
4642,-0.135,-0.255
4643,-0.130,-0.240
4644,-0.135,-0.245
4645,-0.140,-0.250
4646,-0.140,-0.245
4647,-0.140,-0.295
4648,-0.140,-0.400
4649,-0.130,-0.420
4650,-0.110,-0.365
4651,0.040,0.130
4652,0.270,0.900
4653,0.435,2.345
4654,0.570,4.135
4655,0.200,4.825
4656,-0.380,5.050
4657,-1.200,4.880
4658,-2.095,4.565
4659,-2.280,2.650
4660,-2.275,0.325
4661,-1.985,-0.200
4662,-1.650,-0.395
4663,-1.245,-0.425
4664,-0.830,-0.435
4665,-0.585,-0.390
4666,-0.355,-0.335
4667,-0.175,-0.380
4668,0.000,-0.430
4669,-0.005,-0.435
4670,-0.010,-0.440
4671,0.005,-0.435
4672,0.020,-0.430
4673,0.050,-0.420
4674,0.080,-0.410
4675,0.085,-0.415
4676,0.090,-0.420
4677,0.100,-0.405
4678,0.110,-0.390
4679,0.125,-0.390
4680,0.140,-0.390
4681,0.150,-0.400
4682,0.165,-0.405
4683,0.180,-0.390
4684,0.190,-0.380
4685,0.200,-0.375
4686,0.215,-0.365
4687,0.235,-0.345
4688,0.255,-0.335
4689,0.265,-0.350
4690,0.275,-0.360
4691,0.290,-0.355
4692,0.315,-0.350
4693,0.345,-0.345
4694,0.365,-0.335
4695,0.385,-0.315
4696,0.415,-0.315
4697,0.455,-0.325
4698,0.490,-0.325
4699,0.520,-0.315
4700,0.555,-0.310
4701,0.590,-0.315
4702,0.620,-0.310
4703,0.645,-0.295
4704,0.680,-0.295
4705,0.715,-0.305
4706,0.730,-0.325
4707,0.745,-0.345
4708,0.750,-0.360
4709,0.760,-0.380
4710,0.775,-0.375
4711,0.790,-0.370
4712,0.770,-0.375
4713,0.750,-0.380
4714,0.735,-0.405
4715,0.715,-0.430
4716,0.665,-0.435
4717,0.610,-0.440
4718,0.560,-0.440
4719,0.505,-0.385
4720,0.445,-0.165
4721,0.390,-0.020
4722,0.350,-0.055
4723,0.305,-0.080
4724,0.245,-0.080
4725,0.200,-0.075
4726,0.175,-0.060
4727,0.145,-0.045
4728,0.110,-0.030
4729,0.090,-0.025
4730,0.075,-0.050
4731,0.060,-0.075
4732,0.040,-0.110
4733,0.035,-0.100
4734,0.045,-0.045
4735,0.040,-0.020
4736,0.020,-0.020
4737,0.010,-0.005
4738,0.015,0.020
4739,0.020,0.025
4740,0.025,0.015
4741,0.020,0.010
4742,0.005,0.005
4743,0.000,0.015
4744,0.005,0.035
4745,0.000,0.035
4746,-0.015,0.025
4747,-0.010,0.005
4748,0.005,-0.015
4749,0.010,-0.030
4750,0.010,-0.020
4751,0.020,-0.080
4752,0.040,-0.110
4753,0.025,-0.095
4754,0.010,-0.085
4755,0.045,-0.175
4756,0.070,-0.245
4757,0.000,-0.190
4758,-0.055,-0.140
4759,-0.015,-0.170
4760,0.020,-0.190
4761,0.015,-0.175
4762,0.010,-0.165
4763,0.005,-0.185
4764,0.000,-0.205
4765,0.005,-0.220
4766,0.010,-0.230
4767,0.000,-0.225
4768,-0.010,-0.225
4769,-0.005,-0.245
4770,0.000,-0.250
4771,-0.015,-0.215
4772,-0.020,-0.200
4773,-0.020,-0.205
4774,-0.025,-0.215
4775,-0.035,-0.225
4776,-0.035,-0.235
4777,-0.025,-0.250
4778,-0.025,-0.245
4779,-0.035,-0.220
4780,-0.040,-0.200
4781,-0.040,-0.185
4782,-0.040,-0.160
4783,-0.035,-0.130
4784,-0.010,-0.130
4785,0.015,-0.145
4786,0.010,-0.135
4787,-0.005,-0.115
4788,0.010,-0.055
4789,0.035,0.015
4790,0.060,0.140
4791,0.085,0.275
4792,0.075,0.205
4793,0.060,0.130
4794,0.040,0.140
4795,0.020,0.150
4796,-0.010,0.095
4797,-0.040,0.050
4798,-0.065,0.020
4799,-0.095,-0.010
4800,-0.125,-0.020
4801,-0.150,-0.040
4802,-0.145,-0.100
4803,-0.135,-0.155
4804,-0.115,-0.175
4805,-0.105,-0.195
4806,-0.130,-0.230
4807,-0.150,-0.250
4808,-0.145,-0.240
4809,-0.140,-0.230
4810,-0.140,-0.235
4811,-0.140,-0.250
4812,-0.145,-0.280
4813,-0.145,-0.345
4814,-0.135,-0.435
4815,-0.030,-0.235
4816,0.155,0.215
4817,0.340,1.315
4818,0.530,2.860
4819,0.500,3.970
4820,0.340,4.835
4821,-0.455,5.110
4822,-1.540,5.110
4823,-1.970,3.835
4824,-2.165,2.095
4825,-2.025,0.830
4826,-1.785,-0.305
4827,-1.545,-0.505
4828,-1.310,-0.515
4829,-0.965,-0.385
4830,-0.600,-0.225
4831,-0.350,-0.285
4832,-0.110,-0.365
4833,-0.075,-0.370
4834,-0.040,-0.370
4835,-0.010,-0.400
4836,0.020,-0.430
4837,0.020,-0.420
4838,0.020,-0.410
4839,0.035,-0.400
4840,0.050,-0.390
4841,0.060,-0.395
4842,0.070,-0.400
4843,0.090,-0.405
4844,0.110,-0.410
4845,0.110,-0.415
4846,0.110,-0.415
4847,0.120,-0.390
4848,0.130,-0.370
4849,0.135,-0.365
4850,0.145,-0.360
4851,0.165,-0.370
4852,0.185,-0.380
4853,0.205,-0.380
4854,0.220,-0.370
4855,0.225,-0.335
4856,0.240,-0.325
4857,0.260,-0.335
4858,0.280,-0.340
4859,0.310,-0.335
4860,0.335,-0.335
4861,0.365,-0.345
4862,0.395,-0.345
4863,0.420,-0.335
4864,0.455,-0.330
4865,0.490,-0.330
4866,0.515,-0.330
4867,0.535,-0.335
4868,0.580,-0.355
4869,0.630,-0.375
4870,0.650,-0.400
4871,0.665,-0.425
4872,0.670,-0.415
4873,0.670,-0.395
4874,0.680,-0.400
4875,0.670,-0.390
4876,0.690,-0.450
4877,0.680,-0.480
4878,0.655,-0.470
4879,0.630,-0.460
4880,0.605,-0.450
4881,0.575,-0.440
4882,0.510,-0.405
4883,0.455,-0.375
4884,0.410,-0.335
4885,0.360,-0.300
4886,0.295,-0.275
4887,0.240,-0.255
4888,0.195,-0.230
4889,0.145,-0.200
4890,0.100,-0.160
4891,0.065,-0.125
4892,0.045,-0.105
4893,0.025,-0.095
4894,0.005,-0.115
4895,-0.015,-0.130
4896,-0.030,-0.135
4897,-0.035,-0.140
4898,-0.025,-0.135
4899,-0.025,-0.130
4900,-0.035,-0.125
4901,-0.040,-0.125
4902,-0.045,-0.135
4903,-0.050,-0.130
4904,-0.050,-0.115
4905,-0.050,-0.110
4906,-0.045,-0.105
4907,-0.050,-0.100
4908,-0.065,-0.105
4909,-0.065,-0.110
4910,-0.055,-0.115
4911,-0.050,-0.125
4912,-0.050,-0.135
4913,-0.055,-0.135
4914,-0.065,-0.125
4915,-0.060,-0.125
4916,-0.045,-0.135
4917,-0.030,-0.115
4918,-0.020,-0.090
4919,-0.015,-0.125
4920,-0.010,-0.160
4921,-0.015,-0.160
4922,-0.020,-0.160
4923,-0.010,-0.160
4924,0.000,-0.160
4925,-0.010,-0.150
4926,-0.020,-0.140
4927,-0.010,-0.150
4928,0.000,-0.155
4929,-0.005,-0.115
4930,-0.010,-0.100
4931,-0.020,-0.140
4932,-0.035,-0.170
4933,-0.060,-0.170
4934,-0.075,-0.170
4935,-0.055,-0.160
4936,-0.040,-0.160
4937,-0.045,-0.185
4938,-0.055,-0.200
4939,-0.065,-0.200
4940,-0.075,-0.200
4941,-0.085,-0.200
4942,-0.090,-0.185
4943,-0.085,-0.160
4944,-0.080,-0.165
4945,-0.085,-0.200
4946,-0.090,-0.190
4947,-0.085,-0.150
4948,-0.065,-0.135
4949,-0.040,-0.125
4950,-0.035,-0.095
4951,-0.045,-0.060
4952,-0.030,-0.055
4953,-0.005,-0.065
4954,-0.005,0.010
4955,-0.015,0.100
4956,0.015,0.145
4957,0.055,0.185
4958,0.040,0.180
4959,0.010,0.160
4960,-0.020,0.155
4961,-0.050,0.145
4962,-0.070,0.060
4963,-0.095,-0.020
4964,-0.140,-0.035
4965,-0.180,-0.050
4966,-0.185,-0.060
4967,-0.190,-0.075
4968,-0.200,-0.110
4969,-0.205,-0.155
4970,-0.170,-0.220
4971,-0.145,-0.265
4972,-0.175,-0.245
4973,-0.195,-0.235
4974,-0.170,-0.255
4975,-0.155,-0.260
4976,-0.175,-0.225
4977,-0.190,-0.230
4978,-0.190,-0.300
4979,-0.185,-0.355
4980,-0.170,-0.390
4981,-0.050,-0.130
4982,0.165,0.405
4983,0.390,1.600
4984,0.615,3.285
4985,0.500,4.300
4986,0.180,4.910
4987,-0.655,5.055
4988,-1.740,4.965
4989,-2.105,3.485
4990,-2.180,1.460
4991,-1.980,0.420
4992,-1.685,-0.320
4993,-1.440,-0.460
4994,-1.205,-0.455
4995,-0.920,-0.370
4996,-0.630,-0.270
4997,-0.380,-0.315
4998,-0.135,-0.375
4999,-0.115,-0.380
5000,-0.120,-0.380
5001,-0.090,-0.375
5002,-0.080,-0.380
5003,-0.055,-0.375
5004,-0.030,-0.370
5005,-0.020,-0.395
5006,-0.010,-0.420
5007,0.015,-0.400
5008,0.040,-0.380
5009,0.035,-0.380
5010,0.030,-0.375
5011,0.030,-0.330
5012,0.030,-0.310
5013,0.040,-0.355
5014,0.050,-0.385
5015,0.055,-0.370
5016,0.065,-0.350
5017,0.080,-0.320
5018,0.095,-0.300
5019,0.110,-0.295
5020,0.120,-0.290
5021,0.125,-0.275
5022,0.135,-0.270
5023,0.145,-0.270
5024,0.160,-0.270
5025,0.180,-0.270
5026,0.205,-0.270
5027,0.235,-0.270
5028,0.260,-0.255
5029,0.275,-0.230
5030,0.290,-0.230
5031,0.305,-0.250
5032,0.325,-0.260
5033,0.350,-0.255
5034,0.370,-0.250
5035,0.385,-0.245
5036,0.405,-0.245
5037,0.425,-0.255
5038,0.430,-0.275
5039,0.430,-0.295
5040,0.435,-0.305
5041,0.445,-0.315
5042,0.430,-0.335
5043,0.410,-0.350
5044,0.400,-0.325
5045,0.390,-0.300
5046,0.365,-0.295
5047,0.340,-0.290
5048,0.300,-0.280
5049,0.265,-0.265
5050,0.230,-0.230
5051,0.190,-0.195
5052,0.140,-0.165
5053,0.095,-0.130
5054,0.070,-0.085
5055,0.045,-0.050
5056,0.025,-0.070
5057,0.000,-0.075
5058,-0.030,-0.060
5059,-0.055,-0.050
5060,-0.075,-0.060
5061,-0.090,-0.070
5062,-0.080,-0.070
5063,-0.075,-0.085
5064,-0.085,-0.115
5065,-0.090,-0.120
5066,-0.095,-0.100
5067,-0.100,-0.090
5068,-0.100,-0.095
5069,-0.100,-0.095
5070,-0.100,-0.075
5071,-0.100,-0.080
5072,-0.105,-0.100
5073,-0.120,-0.110
5074,-0.135,-0.105
5075,-0.130,-0.105
5076,-0.115,-0.115
5077,-0.110,-0.135
5078,-0.115,-0.155
5079,-0.115,-0.120
5080,-0.105,-0.065
5081,-0.105,-0.095
5082,-0.115,-0.135
5083,-0.110,-0.135
5084,-0.090,-0.120
5085,-0.100,-0.150
5086,-0.110,-0.180
5087,-0.105,-0.155
5088,-0.100,-0.130
5089,-0.105,-0.150
5090,-0.110,-0.170
5091,-0.105,-0.170
5092,-0.100,-0.170
5093,-0.100,-0.190
5094,-0.100,-0.205
5095,-0.085,-0.180
5096,-0.070,-0.160
5097,-0.085,-0.175
5098,-0.100,-0.190
5099,-0.095,-0.190
5100,-0.090,-0.190
5101,-0.100,-0.185
5102,-0.110,-0.180
5103,-0.110,-0.175
5104,-0.115,-0.170
5105,-0.140,-0.170
5106,-0.145,-0.170
5107,-0.135,-0.175
5108,-0.135,-0.175
5109,-0.145,-0.160
5110,-0.150,-0.160
5111,-0.155,-0.180
5112,-0.150,-0.150
5113,-0.130,-0.090
5114,-0.115,-0.070
5115,-0.105,-0.075
5116,-0.105,-0.065
5117,-0.115,-0.035
5118,-0.100,-0.050
5119,-0.065,-0.085
5120,-0.080,0.025
5121,-0.105,0.165
5122,-0.050,0.200
5123,0.015,0.225
5124,-0.015,0.230
5125,0.020,0.230
5126,-0.085,0.190
5127,-0.110,0.160
5128,-0.120,0.110
5129,-0.130,0.060
5130,-0.180,0.075
5131,-0.220,0.085
5132,-0.235,0.035
5133,-0.250,-0.010
5134,-0.255,-0.040
5135,-0.260,-0.075
5136,-0.250,-0.150
5137,-0.240,-0.210
5138,-0.250,-0.195
5139,-0.255,-0.185
5140,-0.240,-0.200
5141,-0.235,-0.205
5142,-0.250,-0.175
5143,-0.260,-0.185
5144,-0.265,-0.250
5145,-0.270,-0.260
5146,-0.265,-0.185
5147,-0.165,0.155
5148,0.015,0.755
5149,0.255,1.925
5150,0.530,3.540
5151,0.535,4.460
5152,0.355,4.940
5153,-0.320,5.010
5154,-1.250,4.850
5155,-1.630,3.260
5156,-1.770,1.070
5157,-1.715,0.125
5158,-1.590,-0.400
5159,-1.340,-0.505
5160,-1.065,-0.495
5161,-0.890,-0.390
5162,-0.730,-0.265
5163,-0.495,-0.280
5164,-0.250,-0.315
5165,-0.230,-0.315
5166,-0.225,-0.305
5167,-0.185,-0.300
5168,-0.150,-0.300
5169,-0.140,-0.340
5170,-0.130,-0.380
5171,-0.115,-0.350
5172,-0.100,-0.320
5173,-0.095,-0.315
5174,-0.090,-0.310
5175,-0.080,-0.280
5176,-0.070,-0.260
5177,-0.060,-0.275
5178,-0.050,-0.290
5179,-0.055,-0.290
5180,-0.060,-0.290
5181,-0.050,-0.270
5182,-0.035,-0.255
5183,-0.015,-0.240
5184,0.000,-0.230
5185,0.000,-0.230
5186,0.005,-0.230
5187,0.020,-0.230
5188,0.035,-0.215
5189,0.045,-0.185
5190,0.055,-0.175
5191,0.070,-0.185
5192,0.090,-0.185
5193,0.110,-0.175
5194,0.130,-0.170
5195,0.150,-0.175
5196,0.170,-0.170
5197,0.190,-0.150
5198,0.200,-0.140
5199,0.205,-0.140
5200,0.245,-0.130
5201,0.290,-0.115
5202,0.305,-0.125
5203,0.315,-0.145
5204,0.320,-0.150
5205,0.320,-0.155
5206,0.320,-0.160
5207,0.325,-0.160
5208,0.325,-0.175
5209,0.310,-0.200
5210,0.310,-0.205
5211,0.310,-0.210
5212,0.290,-0.215
5213,0.270,-0.220
5214,0.240,-0.195
5215,0.205,-0.170
5216,0.170,-0.160
5217,0.135,-0.150
5218,0.110,-0.135
5219,0.085,-0.120
5220,0.060,-0.130
5221,0.035,-0.140
5222,0.005,-0.135
5223,-0.020,-0.130
5224,-0.030,-0.135
5225,-0.040,-0.135
5226,-0.050,-0.120
5227,-0.060,-0.125
5228,-0.060,-0.160
5229,-0.065,-0.180
5230,-0.090,-0.185
5231,-0.095,-0.185
5232,-0.085,-0.170
5233,-0.085,-0.160
5234,-0.095,-0.165
5235,-0.100,-0.175
5236,-0.095,-0.185
5237,-0.090,-0.190
5238,-0.090,-0.195
5239,-0.090,-0.190
5240,-0.085,-0.165
5241,-0.080,-0.175
5242,-0.080,-0.195
5243,-0.070,-0.190
5244,-0.055,-0.175
5245,-0.050,-0.180
5246,-0.055,-0.195
5247,-0.060,-0.195
5248,-0.060,-0.185
5249,-0.055,-0.180
5250,-0.060,-0.180
5251,-0.040,-0.165
5252,-0.040,-0.150
5253,-0.035,-0.175
5254,-0.030,-0.200
5255,-0.035,-0.180
5256,-0.040,-0.160
5257,-0.045,-0.155
5258,-0.050,-0.150
5259,-0.050,-0.135
5260,-0.050,-0.120
5261,-0.045,-0.135
5262,-0.040,-0.150
5263,-0.050,-0.145
5264,-0.060,-0.140
5265,-0.060,-0.135
5266,-0.060,-0.130
5267,-0.065,-0.140
5268,-0.070,-0.150
5269,-0.075,-0.155
5270,-0.080,-0.160
5271,-0.065,-0.160
5272,-0.070,-0.160
5273,-0.090,-0.165
5274,-0.100,-0.170
5275,-0.100,-0.175
5276,-0.100,-0.175
5277,-0.100,-0.160
5278,-0.100,-0.160
5279,-0.105,-0.180
5280,-0.100,-0.170
5281,-0.085,-0.140
5282,-0.065,-0.120
5283,-0.045,-0.105
5284,-0.050,-0.065
5285,-0.065,-0.020
5286,-0.040,-0.010
5287,0.005,-0.015
5288,0.005,0.065
5289,-0.005,0.160
5290,0.020,0.175
5291,0.055,0.185
5292,0.015,0.205
5293,-0.030,0.220
5294,-0.050,0.165
5295,-0.070,0.110
5296,-0.090,0.055
5297,-0.110,0.010
5298,-0.140,0.015
5299,-0.170,0.020
5300,-0.185,0.000
5301,-0.200,-0.030
5302,-0.195,-0.090
5303,-0.190,-0.150
5304,-0.190,-0.210
5305,-0.190,-0.250
5306,-0.185,-0.245
5307,-0.180,-0.235
5308,-0.185,-0.220
5309,-0.190,-0.205
5310,-0.190,-0.190
5311,-0.190,-0.240
5312,-0.185,-0.370
5313,-0.135,-0.290
5314,-0.045,0.010
5315,0.110,0.730
5316,0.315,1.795
5317,0.425,3.105
5318,0.470,4.580
5319,-0.080,5.110
5320,-0.970,5.110
5321,-1.635,4.470
5322,-2.200,3.540
5323,-2.255,1.790
5324,-2.120,-0.260
5325,-1.915,-0.610
5326,-1.690,-0.485
5327,-1.260,-0.375
5328,-0.780,-0.265
5329,-0.505,-0.275
5330,-0.250,-0.305
5331,-0.135,-0.330
5332,-0.025,-0.355
5333,-0.025,-0.360
5334,-0.040,-0.370
5335,-0.015,-0.355
5336,0.010,-0.340
5337,0.030,-0.375
5338,0.050,-0.410
5339,0.065,-0.380
5340,0.080,-0.350
5341,0.085,-0.365
5342,0.090,-0.375
5343,0.100,-0.350
5344,0.115,-0.330
5345,0.135,-0.340
5346,0.150,-0.350
5347,0.160,-0.345
5348,0.175,-0.340
5349,0.190,-0.345
5350,0.205,-0.340
5351,0.225,-0.315
5352,0.245,-0.300
5353,0.260,-0.300
5354,0.280,-0.300
5355,0.315,-0.300
5356,0.340,-0.300
5357,0.360,-0.295
5358,0.390,-0.285
5359,0.425,-0.275
5360,0.455,-0.265
5361,0.480,-0.250
5362,0.515,-0.245
5363,0.555,-0.255
5364,0.595,-0.245
5365,0.630,-0.220
5366,0.665,-0.220
5367,0.700,-0.235
5368,0.735,-0.230
5369,0.770,-0.215
5370,0.785,-0.230
5371,0.795,-0.255
5372,0.815,-0.260
5373,0.835,-0.260
5374,0.840,-0.280
5375,0.840,-0.260
5376,0.815,-0.275
5377,0.800,-0.240
5378,0.760,-0.225
5379,0.720,-0.210
5380,0.670,-0.215
5381,0.620,-0.220
5382,0.550,-0.200
5383,0.480,-0.175
5384,0.415,-0.145
5385,0.350,-0.115
5386,0.285,-0.070
5387,0.230,-0.045
5388,0.195,-0.065
5389,0.165,-0.075
5390,0.140,-0.050
5391,0.110,-0.035
5392,0.080,-0.050
5393,0.060,-0.055
5394,0.050,-0.040
5395,0.035,-0.035
5396,0.020,-0.060
5397,0.010,-0.070
5398,0.015,-0.070
5399,0.020,-0.075
5400,0.020,-0.090
5401,0.015,-0.080
5402,0.005,-0.035
5403,0.000,-0.030
5404,0.005,-0.050
5405,0.010,-0.070
5406,0.005,-0.085
5407,0.000,-0.090
5408,-0.005,-0.095
5409,-0.010,-0.090
5410,-0.010,-0.075
5411,-0.010,-0.075
5412,-0.005,-0.085
5413,0.000,-0.095
5414,0.000,-0.105
5415,0.000,-0.110
5416,0.000,-0.105
5417,0.000,-0.130
5418,0.000,-0.160
5419,0.005,-0.140
5420,0.010,-0.120
5421,0.020,-0.130
5422,0.030,-0.140
5423,0.025,-0.140
5424,0.020,-0.145
5425,0.025,-0.180
5426,0.030,-0.205
5427,0.035,-0.165
5428,0.040,-0.135
5429,0.035,-0.160
5430,0.030,-0.180
5431,0.030,-0.185
5432,0.030,-0.190
5433,0.030,-0.200
5434,0.030,-0.210
5435,0.020,-0.200
5436,0.010,-0.190
5437,0.000,-0.190
5438,-0.010,-0.190
5439,-0.005,-0.190
5440,0.000,-0.190
5441,0.000,-0.190
5442,-0.005,-0.190
5443,-0.015,-0.195
5444,-0.020,-0.190
5445,-0.025,-0.170
5446,-0.025,-0.150
5447,-0.015,-0.130
5448,0.005,-0.105
5449,0.025,-0.080
5450,0.025,-0.075
5451,0.015,-0.085
5452,0.025,-0.045
5453,0.045,0.010
5454,0.055,0.090
5455,0.065,0.170
5456,0.085,0.195
5457,0.105,0.215
5458,0.085,0.205
5459,0.050,0.180
5460,0.020,0.165
5461,-0.010,0.150
5462,-0.020,0.080
5463,-0.030,0.020
5464,-0.075,0.020
5465,-0.110,0.015
5466,-0.125,-0.020
5467,-0.140,-0.065
5468,-0.135,-0.150
5469,-0.130,-0.220
5470,-0.130,-0.230
5471,-0.130,-0.240
5472,-0.135,-0.245
5473,-0.140,-0.250
5474,-0.140,-0.255
5475,-0.140,-0.265
5476,-0.135,-0.280
5477,-0.130,-0.325
5478,-0.140,-0.415
5479,-0.125,-0.385
5480,-0.070,-0.220
5481,0.075,0.290
5482,0.300,1.105
5483,0.465,2.450
5484,0.575,4.185
5485,0.250,4.925
5486,-0.350,5.060
5487,-1.150,4.830
5488,-2.045,4.410
5489,-2.285,2.625
5490,-2.260,0.305
5491,-1.995,-0.340
5492,-1.655,-0.475
5493,-1.270,-0.500
5494,-0.870,-0.500
5495,-0.605,-0.430
5496,-0.365,-0.350
5497,-0.190,-0.390
5498,-0.020,-0.445
5499,-0.010,-0.455
5500,-0.010,-0.450
5501,0.010,-0.495
5502,0.030,-0.520
5503,0.045,-0.475
5504,0.060,-0.430
5505,0.070,-0.450
5506,0.080,-0.470
5507,0.095,-0.450
5508,0.110,-0.430
5509,0.120,-0.440
5510,0.130,-0.450
5511,0.130,-0.445
5512,0.135,-0.440
5513,0.155,-0.430
5514,0.170,-0.415
5515,0.180,-0.400
5516,0.195,-0.390
5517,0.210,-0.390
5518,0.225,-0.390
5519,0.240,-0.395
5520,0.260,-0.390
5521,0.295,-0.365
5522,0.315,-0.345
5523,0.330,-0.335
5524,0.350,-0.330
5525,0.380,-0.330
5526,0.405,-0.330
5527,0.435,-0.335
5528,0.470,-0.330
5529,0.505,-0.310
5530,0.535,-0.300
5531,0.560,-0.300
5532,0.600,-0.300
5533,0.640,-0.295
5534,0.670,-0.300
5535,0.705,-0.315
5536,0.710,-0.320
5537,0.715,-0.320
5538,0.720,-0.325
5539,0.725,-0.335
5540,0.730,-0.335
5541,0.735,-0.325
5542,0.730,-0.350
5543,0.720,-0.380
5544,0.690,-0.375
5545,0.660,-0.370
5546,0.625,-0.335
5547,0.585,-0.300
5548,0.535,-0.280
5549,0.480,-0.260
5550,0.415,-0.240
5551,0.350,-0.215
5552,0.305,-0.190
5553,0.265,-0.165
5554,0.225,-0.125
5555,0.190,-0.100
5556,0.150,-0.110
5557,0.115,-0.120
5558,0.100,-0.110
5559,0.090,-0.110
5560,0.085,-0.135
5561,0.075,-0.150
5562,0.055,-0.140
5563,0.040,-0.135
5564,0.040,-0.145
5565,0.040,-0.145
5566,0.040,-0.130
5567,0.040,-0.140
5568,0.040,-0.175
5569,0.040,-0.185
5570,0.040,-0.165
5571,0.035,-0.160
5572,0.025,-0.155
5573,0.020,-0.150
5574,0.020,-0.145
5575,0.020,-0.160
5576,0.025,-0.185
5577,0.030,-0.190
5578,0.035,-0.195
5579,0.040,-0.185
5580,0.035,-0.165
5581,0.030,-0.175
5582,0.035,-0.195
5583,0.040,-0.200
5584,0.050,-0.190
5585,0.045,-0.210
5586,0.040,-0.230
5587,0.065,-0.215
5588,0.090,-0.200
5589,0.075,-0.220
5590,0.060,-0.240
5591,0.065,-0.205
5592,0.070,-0.185
5593,0.070,-0.220
5594,0.070,-0.250
5595,0.065,-0.240
5596,0.060,-0.230
5597,0.065,-0.230
5598,0.070,-0.230
5599,0.060,-0.225
5600,0.050,-0.225
5601,0.045,-0.245
5602,0.040,-0.260
5603,0.030,-0.255
5604,0.020,-0.245
5605,0.015,-0.230
5606,0.010,-0.220
5607,0.005,-0.225
5608,0.000,-0.230
5609,0.005,-0.225
5610,0.005,-0.230
5611,-0.005,-0.250
5612,-0.010,-0.250
5613,-0.010,-0.235
5614,-0.020,-0.235
5615,-0.035,-0.245
5616,-0.040,-0.225
5617,-0.035,-0.190
5618,-0.035,-0.215
5619,-0.045,-0.260
5620,-0.050,-0.230
5621,-0.045,-0.175
5622,-0.010,-0.170
5623,0.025,-0.170
5624,0.025,-0.145
5625,0.030,-0.170
5626,0.015,-0.110
5627,0.020,-0.110
5628,0.030,-0.045
5629,0.040,0.025
5630,0.070,0.105
5631,0.100,0.175
5632,0.090,0.135
5633,0.075,0.100
5634,0.040,0.120
5635,0.010,0.125
5636,-0.005,0.040
5637,-0.030,-0.020
5638,-0.075,-0.030
5639,-0.115,-0.040
5640,-0.135,-0.040
5641,-0.150,-0.045
5642,-0.140,-0.075
5643,-0.130,-0.130
5644,-0.120,-0.235
5645,-0.115,-0.290
5646,-0.140,-0.290
5647,-0.140,-0.290
5648,-0.120,-0.295
5649,-0.110,-0.280
5650,-0.115,-0.245
5651,-0.120,-0.245
5652,-0.115,-0.275
5653,-0.110,-0.345
5654,-0.110,-0.430
5655,0.000,-0.140
5656,0.160,0.315
5657,0.360,1.525
5658,0.575,2.990
5659,0.590,4.030
5660,0.550,4.960
5661,-0.440,5.110
5662,-1.600,5.110
5663,-1.950,3.660
5664,-2.200,2.025
5665,-1.990,0.675
5666,-1.745,-0.655
5667,-1.565,-0.605
5668,-1.380,-0.530
5669,-0.950,-0.420
5670,-0.535,-0.320
5671,-0.295,-0.335
5672,-0.080,-0.350
5673,-0.060,-0.375
5674,-0.040,-0.400
5675,-0.025,-0.390
5676,-0.010,-0.385
5677,0.010,-0.415
5678,0.035,-0.440
5679,0.055,-0.425
5680,0.070,-0.415
5681,0.090,-0.435
5682,0.100,-0.440
5683,0.095,-0.395
5684,0.095,-0.370
5685,0.115,-0.375
5686,0.135,-0.380
5687,0.155,-0.375
5688,0.165,-0.370
5689,0.155,-0.375
5690,0.155,-0.380
5691,0.165,-0.375
5692,0.175,-0.360
5693,0.185,-0.340
5694,0.205,-0.345
5695,0.230,-0.370
5696,0.245,-0.360
5697,0.255,-0.320
5698,0.275,-0.320
5699,0.295,-0.335
5700,0.300,-0.320
5701,0.305,-0.290
5702,0.325,-0.290
5703,0.345,-0.305
5704,0.380,-0.310
5705,0.415,-0.305
5706,0.435,-0.315
5707,0.455,-0.335
5708,0.465,-0.305
5709,0.480,-0.260
5710,0.490,-0.265
5711,0.500,-0.270
5712,0.515,-0.290
5713,0.530,-0.310
5714,0.520,-0.320
5715,0.510,-0.330
5716,0.500,-0.315
5717,0.490,-0.300
5718,0.490,-0.310
5719,0.485,-0.320
5720,0.455,-0.320
5721,0.415,-0.310
5722,0.365,-0.275
5723,0.325,-0.245
5724,0.305,-0.225
5725,0.275,-0.200
5726,0.230,-0.170
5727,0.185,-0.150
5728,0.145,-0.150
5729,0.115,-0.140
5730,0.090,-0.115
5731,0.070,-0.110
5732,0.045,-0.130
5733,0.025,-0.120
5734,0.010,-0.080
5735,0.000,-0.075
5736,-0.005,-0.100
5737,-0.015,-0.110
5738,-0.025,-0.115
5739,-0.035,-0.135
5740,-0.045,-0.160
5741,-0.050,-0.160
5742,-0.050,-0.145
5743,-0.050,-0.140
5744,-0.045,-0.135
5745,-0.045,-0.130
5746,-0.055,-0.125
5747,-0.060,-0.125
5748,-0.055,-0.135
5749,-0.050,-0.165
5750,-0.050,-0.140
5751,-0.055,-0.150
5752,-0.050,-0.100
5753,-0.055,-0.130
5754,-0.060,-0.160
5755,-0.055,-0.140
5756,-0.050,-0.125
5757,-0.040,-0.160
5758,-0.030,-0.190
5759,-0.035,-0.170
5760,-0.040,-0.150
5761,-0.040,-0.175
5762,-0.040,-0.185
5763,-0.030,-0.165
5764,-0.020,-0.165
5765,-0.015,-0.210
5766,-0.010,-0.230
5767,-0.020,-0.200
5768,-0.030,-0.180
5769,-0.035,-0.180
5770,-0.040,-0.185
5771,-0.035,-0.210
5772,-0.030,-0.215
5773,-0.035,-0.200
5774,-0.040,-0.200
5775,-0.045,-0.220
5776,-0.045,-0.220
5777,-0.035,-0.200
5778,-0.035,-0.200
5779,-0.045,-0.215
5780,-0.055,-0.210
5781,-0.065,-0.195
5782,-0.080,-0.210
5783,-0.095,-0.240
5784,-0.100,-0.225
5785,-0.105,-0.190
5786,-0.100,-0.185
5787,-0.085,-0.195
5788,-0.100,-0.200
5789,-0.125,-0.200
5790,-0.125,-0.215
5791,-0.115,-0.235
5792,-0.125,-0.205
5793,-0.140,-0.170
5794,-0.145,-0.160
5795,-0.150,-0.150
5796,-0.120,-0.140
5797,-0.090,-0.130
5798,-0.080,-0.125
5799,-0.070,-0.115
5800,-0.085,-0.085
5801,-0.095,-0.055
5802,-0.065,-0.015
5803,-0.035,0.045
5804,-0.015,0.145
5805,0.000,0.215
5806,-0.010,0.195
5807,-0.025,0.180
5808,-0.040,0.175
5809,-0.055,0.155
5810,-0.075,0.115
5811,-0.105,0.080
5812,-0.145,0.050
5813,-0.175,0.025
5814,-0.190,0.010
5815,-0.200,-0.015
5816,-0.205,-0.055
5817,-0.205,-0.090
5818,-0.195,-0.135
5819,-0.205,-0.170
5820,-0.230,-0.205
5821,-0.230,-0.220
5822,-0.215,-0.225
5823,-0.220,-0.235
5824,-0.235,-0.245
5825,-0.235,-0.245
5826,-0.225,-0.235
5827,-0.220,-0.255
5828,-0.225,-0.295
5829,-0.100,0.150
5830,0.055,0.665
5831,0.235,1.890
5832,0.410,3.175
5833,0.530,4.155
5834,0.640,5.110
5835,-0.245,5.110
5836,-1.100,5.015
5837,-1.485,3.430
5838,-1.820,1.870
5839,-1.690,0.470
5840,-1.555,-0.700
5841,-1.380,-0.630
5842,-1.195,-0.540
5843,-0.965,-0.380
5844,-0.730,-0.270
5845,-0.480,-0.330
5846,-0.285,-0.360
5847,-0.225,-0.320
5848,-0.180,-0.310
5849,-0.170,-0.370
5850,-0.155,-0.400
5851,-0.135,-0.370
5852,-0.110,-0.355
5853,-0.085,-0.370
5854,-0.070,-0.370
5855,-0.065,-0.335
5856,-0.055,-0.325
5857,-0.045,-0.340
5858,-0.040,-0.350
5859,-0.035,-0.345
5860,-0.030,-0.325
5861,-0.025,-0.300
5862,-0.015,-0.285
5863,-0.005,-0.275
5864,0.000,-0.275
5865,0.005,-0.285
5866,0.020,-0.290
5867,0.035,-0.295
5868,0.050,-0.270
5869,0.065,-0.230
5870,0.070,-0.225
5871,0.075,-0.235
5872,0.095,-0.230
5873,0.115,-0.215
5874,0.125,-0.210
5875,0.120,-0.210
5876,0.160,-0.190
5877,0.180,-0.160
5878,0.200,-0.175
5879,0.220,-0.190
5880,0.240,-0.160
5881,0.260,-0.130
5882,0.285,-0.165
5883,0.310,-0.190
5884,0.320,-0.170
5885,0.330,-0.150
5886,0.330,-0.175
5887,0.330,-0.190
5888,0.340,-0.180
5889,0.350,-0.175
5890,0.345,-0.200
5891,0.340,-0.225
5892,0.330,-0.240
5893,0.315,-0.245
5894,0.295,-0.230
5895,0.270,-0.215
5896,0.245,-0.200
5897,0.210,-0.190
5898,0.170,-0.185
5899,0.140,-0.180
5900,0.110,-0.175
5901,0.085,-0.155
5902,0.060,-0.130
5903,0.035,-0.130
5904,0.010,-0.150
5905,-0.010,-0.155
5906,-0.025,-0.145
5907,-0.030,-0.170
5908,-0.030,-0.210
5909,-0.045,-0.210
5910,-0.065,-0.195
5911,-0.070,-0.205
5912,-0.070,-0.225
5913,-0.070,-0.220
5914,-0.070,-0.205
5915,-0.070,-0.240
5916,-0.070,-0.285
5917,-0.070,-0.270
5918,-0.070,-0.250
5919,-0.070,-0.265
5920,-0.070,-0.280
5921,-0.070,-0.265
5922,-0.070,-0.250
5923,-0.065,-0.270
5924,-0.060,-0.290
5925,-0.050,-0.290
5926,-0.040,-0.290
5927,-0.055,-0.285
5928,-0.070,-0.280
5929,-0.065,-0.270
5930,-0.060,-0.260
5931,-0.055,-0.260
5932,-0.050,-0.260
5933,-0.045,-0.265
5934,-0.040,-0.270
5935,-0.040,-0.265
5936,-0.040,-0.260
5937,-0.045,-0.255
5938,-0.050,-0.245
5939,-0.050,-0.235
5940,-0.050,-0.245
5941,-0.045,-0.275
5942,-0.040,-0.280
5943,-0.040,-0.260
5944,-0.045,-0.250
5945,-0.055,-0.255
5946,-0.060,-0.240
5947,-0.055,-0.200
5948,-0.055,-0.235
5949,-0.065,-0.305
5950,-0.070,-0.305
5951,-0.070,-0.285
5952,-0.070,-0.275
5953,-0.075,-0.265
5954,-0.080,-0.260
5955,-0.080,-0.255
5956,-0.085,-0.260
5957,-0.095,-0.275
5958,-0.100,-0.275
5959,-0.090,-0.260
5960,-0.090,-0.280
5961,-0.090,-0.300
5962,-0.105,-0.280
5963,-0.120,-0.260
5964,-0.110,-0.270
5965,-0.100,-0.280
5966,-0.100,-0.280
5967,-0.100,-0.280
5968,-0.100,-0.265
5969,-0.095,-0.245
5970,-0.075,-0.210
5971,-0.055,-0.180
5972,-0.035,-0.170
5973,-0.020,-0.160
5974,-0.030,-0.160
5975,-0.030,-0.140
5976,0.000,-0.090
5977,0.020,-0.020
5978,0.030,0.085
5979,0.040,0.135
5980,0.045,0.110
5981,0.035,0.095
5982,0.005,0.085
5983,-0.015,0.060
5984,-0.030,0.020
5985,-0.055,-0.025
5986,-0.085,-0.070
5987,-0.115,-0.080
5988,-0.140,-0.060
5989,-0.150,-0.080
5990,-0.150,-0.125
5991,-0.140,-0.180
5992,-0.125,-0.235
5993,-0.125,-0.275
5994,-0.135,-0.310
5995,-0.140,-0.310
5996,-0.140,-0.295
5997,-0.140,-0.290
5998,-0.140,-0.285
5999,-0.140,-0.285
6000,-0.140,-0.280
6001,-0.120,-0.375
6002,-0.095,-0.430
6003,0.085,0.055
6004,0.265,0.640
6005,0.470,2.160
6006,0.635,3.585
6007,0.495,4.425
6008,0.165,5.110
6009,-0.985,5.110
6010,-1.915,4.755
6011,-2.115,3.230
6012,-2.200,1.720
6013,-1.985,0.265
6014,-1.775,-0.690
6015,-1.565,-0.585
6016,-1.260,-0.475
6017,-0.800,-0.345
6018,-0.430,-0.300
6019,-0.185,-0.370
6020,-0.035,-0.405
6021,0.000,-0.380
6022,0.025,-0.380
6023,0.035,-0.405
6024,0.045,-0.420
6025,0.060,-0.415
6026,0.075,-0.420
6027,0.090,-0.440
6028,0.110,-0.430
6029,0.130,-0.400
6030,0.140,-0.390
6031,0.145,-0.390
6032,0.155,-0.395
6033,0.165,-0.405
6034,0.175,-0.405
6035,0.185,-0.395
6036,0.210,-0.390
6037,0.235,-0.390
6038,0.240,-0.375
6039,0.240,-0.355
6040,0.265,-0.355
6041,0.295,-0.365
6042,0.320,-0.355
6043,0.340,-0.340
6044,0.360,-0.365
6045,0.380,-0.390
6046,0.410,-0.345
6047,0.440,-0.300
6048,0.470,-0.325
6049,0.505,-0.350
6050,0.540,-0.320
6051,0.575,-0.305
6052,0.610,-0.330
6053,0.645,-0.345
6054,0.675,-0.305
6055,0.710,-0.280
6056,0.750,-0.290
6057,0.785,-0.300
6058,0.805,-0.305
6059,0.825,-0.310
6060,0.845,-0.320
6061,0.860,-0.330
6062,0.860,-0.325
6063,0.860,-0.320
6064,0.855,-0.325
6065,0.845,-0.335
6066,0.830,-0.350
6067,0.790,-0.345
6068,0.735,-0.315
6069,0.675,-0.300
6070,0.620,-0.295
6071,0.555,-0.255
6072,0.480,-0.205
6073,0.420,-0.190
6074,0.365,-0.190
6075,0.315,-0.165
6076,0.270,-0.130
6077,0.220,-0.145
6078,0.170,-0.175
6079,0.140,-0.140
6080,0.115,-0.085
6081,0.090,-0.100
6082,0.065,-0.125
6083,0.055,-0.130
6084,0.040,-0.120
6085,0.035,-0.140
6086,0.030,-0.160
6087,0.025,-0.150
6088,0.020,-0.140
6089,0.020,-0.150
6090,0.020,-0.160
6091,0.005,-0.165
6092,-0.010,-0.170
6093,0.000,-0.160
6094,0.010,-0.150
6095,0.010,-0.165
6096,0.010,-0.180
6097,0.000,-0.165
6098,-0.010,-0.155
6099,0.000,-0.170
6100,0.010,-0.180
6101,0.015,-0.170
6102,0.020,-0.175
6103,0.015,-0.210
6104,0.015,-0.210
6105,0.030,-0.165
6106,0.040,-0.145
6107,0.035,-0.160
6108,0.030,-0.170
6109,0.035,-0.165
6110,0.045,-0.175
6111,0.055,-0.205
6112,0.065,-0.210
6113,0.075,-0.195
6114,0.070,-0.200
6115,0.055,-0.215
6116,0.055,-0.220
6117,0.065,-0.215
6118,0.070,-0.215
6119,0.075,-0.225
6120,0.075,-0.240
6121,0.065,-0.255
6122,0.060,-0.235
6123,0.060,-0.205
6124,0.060,-0.210
6125,0.060,-0.200
6126,0.055,-0.225
6127,0.050,-0.220
6128,0.045,-0.240
6129,0.040,-0.260
6130,0.025,-0.230
6131,0.010,-0.200
6132,0.010,-0.210
6133,0.010,-0.220
6134,0.010,-0.215
6135,0.010,-0.215
6136,0.005,-0.240
6137,0.000,-0.255
6138,-0.010,-0.230
6139,-0.020,-0.210
6140,-0.015,-0.215
6141,-0.010,-0.215
6142,-0.020,-0.185
6143,-0.025,-0.165
6144,-0.005,-0.145
6145,0.015,-0.130
6146,0.040,-0.115
6147,0.045,-0.100
6148,0.035,-0.080
6149,0.040,-0.035
6150,0.070,0.030
6151,0.095,0.105
6152,0.125,0.180
6153,0.140,0.180
6154,0.135,0.130
6155,0.100,0.145
6156,0.055,0.205
6157,0.030,0.165
6158,0.015,0.090
6159,-0.010,0.050
6160,-0.035,0.025
6161,-0.070,-0.010
6162,-0.105,-0.045
6163,-0.110,-0.050
6164,-0.115,-0.050
6165,-0.115,-0.130
6166,-0.105,-0.215
6167,-0.105,-0.225
6168,-0.110,-0.230
6169,-0.105,-0.250
6170,-0.100,-0.270
6171,-0.105,-0.250
6172,-0.110,-0.230
6173,-0.115,-0.250
6174,-0.120,-0.285
6175,-0.105,-0.375
6176,-0.055,-0.355
6177,0.125,0.095
6178,0.310,0.820
6179,0.515,2.295
6180,0.650,3.595
6181,0.610,4.515
6182,0.150,5.110
6183,-1.055,5.110
6184,-1.855,4.450
6185,-2.065,2.815
6186,-2.075,1.310
6187,-1.840,-0.040
6188,-1.630,-0.680
6189,-1.440,-0.590
6190,-1.130,-0.485
6191,-0.725,-0.360
6192,-0.415,-0.325
6193,-0.165,-0.355
6194,-0.055,-0.385
6195,-0.020,-0.420
6196,-0.005,-0.430
6197,0.005,-0.430
6198,0.025,-0.430
6199,0.045,-0.430
6200,0.055,-0.425
6201,0.065,-0.415
6202,0.075,-0.415
6203,0.085,-0.425
6204,0.090,-0.430
6205,0.095,-0.430
6206,0.110,-0.415
6207,0.125,-0.395
6208,0.135,-0.380
6209,0.150,-0.360
6210,0.165,-0.365
6211,0.180,-0.370
6212,0.200,-0.365
6213,0.220,-0.360
6214,0.235,-0.345
6215,0.250,-0.330
6216,0.265,-0.330
6217,0.285,-0.330
6218,0.315,-0.325
6219,0.345,-0.320
6220,0.365,-0.320
6221,0.385,-0.320
6222,0.410,-0.315
6223,0.435,-0.310
6224,0.450,-0.315
6225,0.475,-0.310
6226,0.520,-0.285
6227,0.555,-0.280
6228,0.575,-0.305
6229,0.600,-0.320
6230,0.635,-0.325
6231,0.660,-0.320
6232,0.685,-0.300
6233,0.705,-0.290
6234,0.715,-0.295
6235,0.720,-0.310
6236,0.725,-0.330
6237,0.730,-0.345
6238,0.735,-0.355
6239,0.715,-0.350
6240,0.680,-0.335
6241,0.645,-0.325
6242,0.610,-0.315
6243,0.560,-0.305
6244,0.510,-0.295
6245,0.445,-0.275
6246,0.380,-0.255
6247,0.330,-0.220
6248,0.285,-0.185
6249,0.235,-0.170
6250,0.280,-0.180
6251,0.165,-0.130
6252,0.150,-0.110
6253,0.130,-0.130
6254,0.110,-0.150
6255,0.090,-0.140
6256,0.070,-0.130
6257,0.060,-0.130
6258,0.050,-0.130
6259,0.045,-0.110
6260,0.040,-0.095
6261,0.030,-0.130
6262,0.020,-0.160
6263,0.015,-0.155
6264,0.010,-0.150
6265,0.010,-0.160
6266,0.010,-0.170
6267,0.010,-0.160
6268,0.010,-0.155
6269,0.005,-0.170
6270,0.000,-0.180
6271,0.005,-0.175
6272,0.010,-0.170
6273,0.010,-0.170
6274,0.010,-0.170
6275,0.010,-0.165
6276,0.010,-0.160
6277,0.010,-0.160
6278,0.010,-0.170
6279,0.005,-0.190
6280,0.010,-0.210
6281,0.030,-0.225
6282,0.040,-0.225
6283,0.035,-0.215
6284,0.030,-0.205
6285,0.025,-0.195
6286,0.020,-0.205
6287,0.025,-0.225
6288,0.030,-0.230
6289,0.035,-0.225
6290,0.040,-0.220
6291,0.035,-0.225
6292,0.020,-0.225
6293,0.010,-0.220
6294,0.015,-0.240
6295,0.020,-0.260
6296,0.000,-0.245
6297,-0.020,-0.230
6298,-0.010,-0.235
6299,0.000,-0.240
6300,-0.020,-0.220
6301,-0.040,-0.200
6302,-0.035,-0.220
6303,-0.030,-0.240
6304,-0.035,-0.230
6305,-0.040,-0.220
6306,-0.045,-0.230
6307,-0.050,-0.240
6308,-0.060,-0.230
6309,-0.075,-0.215
6310,-0.090,-0.200
6311,-0.100,-0.195
6312,-0.095,-0.215
6313,-0.090,-0.225
6314,-0.095,-0.210
6315,-0.105,-0.205
6316,-0.115,-0.215
6317,-0.120,-0.215
6318,-0.115,-0.200
6319,-0.110,-0.195
6320,-0.110,-0.205
6321,-0.110,-0.200
6322,-0.115,-0.180
6323,-0.110,-0.155
6324,-0.095,-0.130
6325,-0.080,-0.120
6326,-0.065,-0.115
6327,-0.060,-0.085
6328,-0.060,-0.055
6329,-0.040,-0.035
6330,-0.015,-0.015
6331,-0.020,0.080
6332,-0.035,0.185
6333,-0.005,0.205
6334,0.040,0.230
6335,0.010,0.245
6336,-0.020,0.260
6337,-0.065,0.190
6338,-0.110,0.125
6339,-0.110,0.075
6340,-0.115,0.030
6341,-0.160,0.030
6342,-0.200,0.030
6343,-0.210,0.015
6344,-0.220,-0.010
6345,-0.210,-0.050
6346,-0.200,-0.100
6347,-0.190,-0.170
6348,-0.180,-0.225
6349,-0.185,-0.240
6350,-0.195,-0.235
6351,-0.210,-0.195
6352,-0.220,-0.170
6353,-0.215,-0.180
6354,-0.210,-0.210
6355,-0.215,-0.265
6356,-0.210,-0.190
6357,-0.185,0.005
6358,-0.040,0.550
6359,0.190,1.355
6360,0.445,2.760
6361,0.720,4.520
6362,0.470,5.100
6363,-0.035,5.105
6364,-0.805,4.615
6365,-1.680,3.925
6366,-1.885,2.085
6367,-1.875,-0.105
6368,-1.745,-0.485
6369,-1.585,-0.440
6370,-1.265,-0.420
6371,-0.915,-0.405
6372,-0.690,-0.340
6373,-0.475,-0.265
6374,-0.310,-0.295
6375,-0.460,-0.260
6376,-0.155,-0.330
6377,-0.160,-0.320
6378,-0.130,-0.345
6379,-0.100,-0.370
6380,-0.085,-0.350
6381,-0.070,-0.335
6382,-0.055,-0.380
6383,-0.040,-0.410
6384,-0.035,-0.345
6385,-0.030,-0.290
6386,-0.020,-0.300
6387,-0.010,-0.310
6388,0.000,-0.310
6389,0.010,-0.315
6390,0.015,-0.335
6391,0.020,-0.340
6392,0.030,-0.305
6393,0.040,-0.275
6394,0.045,-0.260
6395,0.055,-0.250
6396,0.070,-0.255
6397,0.085,-0.260
6398,0.100,-0.260
6399,0.115,-0.250
6400,0.125,-0.230
6401,0.135,-0.215
6402,0.150,-0.200
6403,0.165,-0.190
6404,0.175,-0.190
6405,0.200,-0.190
6406,0.230,-0.190
6407,0.245,-0.195
6408,0.255,-0.205
6409,0.280,-0.175
6410,0.305,-0.130
6411,0.310,-0.135
6412,0.315,-0.155
6413,0.325,-0.150
6414,0.335,-0.135
6415,0.340,-0.160
6416,0.340,-0.195
6417,0.345,-0.175
6418,0.350,-0.150
6419,0.340,-0.160
6420,0.330,-0.170
6421,0.310,-0.170
6422,0.290,-0.170
6423,0.275,-0.160
6424,0.255,-0.150
6425,0.200,-0.145
6426,0.160,-0.135
6427,0.145,-0.105
6428,0.125,-0.075
6429,0.095,-0.050
6430,0.065,-0.030
6431,0.045,-0.040
6432,0.025,-0.050
6433,0.000,-0.060
6434,-0.020,-0.060
6435,-0.030,-0.030
6436,-0.040,-0.020
6437,-0.050,-0.050
6438,-0.060,-0.070
6439,-0.060,-0.065
6440,-0.065,-0.070
6441,-0.075,-0.095
6442,-0.080,-0.095
6443,-0.080,-0.065
6444,-0.085,-0.060
6445,-0.095,-0.080
6446,-0.095,-0.080
6447,-0.085,-0.065
6448,-0.080,-0.075
6449,-0.085,-0.095
6450,-0.095,-0.095
6451,-0.105,-0.085
6452,-0.105,-0.090
6453,-0.095,-0.105
6454,-0.090,-0.100
6455,-0.090,-0.085
6456,-0.085,-0.105
6457,-0.075,-0.135
6458,-0.070,-0.140
6459,-0.070,-0.140
6460,-0.075,-0.140
6461,-0.080,-0.140
6462,-0.080,-0.145
6463,-0.080,-0.150
6464,-0.075,-0.145
6465,-0.070,-0.140
6466,-0.080,-0.155
6467,-0.090,-0.170
6468,-0.090,-0.150
6469,-0.090,-0.130
6470,-0.100,-0.135
6471,-0.110,-0.145
6472,-0.095,-0.165
6473,-0.085,-0.180
6474,-0.100,-0.185
6475,-0.110,-0.180
6476,-0.110,-0.155
6477,-0.110,-0.140
6478,-0.115,-0.145
6479,-0.120,-0.150
6480,-0.115,-0.145
6481,-0.115,-0.150
6482,-0.125,-0.170
6483,-0.130,-0.175
6484,-0.135,-0.165
6485,-0.140,-0.160
6486,-0.140,-0.165
6487,-0.140,-0.170
6488,-0.145,-0.165
6489,-0.155,-0.175
6490,-0.165,-0.200
6491,-0.170,-0.210
6492,-0.165,-0.215
6493,-0.160,-0.200
6494,-0.160,-0.175
6495,-0.160,-0.180
6496,-0.165,-0.195
6497,-0.170,-0.200
6498,-0.165,-0.200
6499,-0.160,-0.185
6500,-0.160,-0.200
6501,-0.145,-0.130
6502,-0.120,-0.100
6503,-0.115,-0.090
6504,-0.110,-0.080
6505,-0.110,-0.070
6506,-0.110,-0.055
6507,-0.090,-0.005
6508,-0.065,0.050
6509,-0.030,0.130
6510,0.000,0.185
6511,-0.015,0.155
6512,-0.040,0.130
6513,-0.075,0.145
6514,-0.100,0.135
6515,-0.100,0.060
6516,-0.115,0.005
6517,-0.155,-0.015
6518,-0.185,-0.030
6519,-0.205,-0.035
6520,-0.220,-0.050
6521,-0.215,-0.075
6522,-0.210,-0.130
6523,-0.210,-0.220
6524,-0.215,-0.270
6525,-0.225,-0.300
6526,-0.225,-0.305
6527,-0.210,-0.295
6528,-0.205,-0.280
6529,-0.215,-0.265
6530,-0.210,-0.270
6531,-0.195,-0.285
6532,-0.190,-0.335
6533,-0.185,-0.405
6534,-0.050,-0.030
6535,0.110,0.460
6536,0.320,1.755
6537,0.535,3.200
6538,0.530,4.155
6539,0.495,5.050
6540,-0.510,5.110
6541,-1.580,5.110
6542,-1.810,3.420
6543,-2.015,1.715
6544,-1.850,0.480
6545,-1.675,-0.655
6546,-1.465,-0.590
6547,-1.245,-0.520
6548,-0.950,-0.405
6549,-0.660,-0.315
6550,-0.400,-0.350
6551,-0.190,-0.380
6552,-0.140,-0.380
6553,-0.095,-0.380
6554,-0.070,-0.385
6555,-0.045,-0.390
6556,-0.025,-0.410
6557,-0.005,-0.420
6558,0.010,-0.415
6559,0.020,-0.410
6560,0.025,-0.410
6561,0.030,-0.410
6562,0.040,-0.400
6563,0.060,-0.385
6564,0.080,-0.375
6565,0.095,-0.370
6566,0.105,-0.370
6567,0.120,-0.370
6568,0.140,-0.365
