'sample interval','ECG1','ECG2'
'0.004 sec','mV','mV'
0,-0.075,-0.125
1,-0.115,-0.130
2,-0.145,-0.125
3,-0.050,-0.135
4,0.050,-0.145
5,0.235,-0.125
6,0.435,-0.105
7,0.725,-0.080
8,0.990,-0.055
9,1.140,-0.055
10,1.180,-0.065
11,0.855,-0.120
12,0.525,-0.200
13,0.200,-0.325
14,-0.090,-0.440
15,-0.300,-0.515
16,-0.390,-0.545
17,-0.255,-0.490
18,-0.150,-0.395
19,-0.085,-0.255
20,-0.045,-0.145
21,-0.045,-0.080
22,-0.050,-0.045
23,-0.065,-0.040
24,-0.075,-0.035
25,-0.075,-0.035
26,-0.075,-0.035
27,-0.070,-0.040
28,-0.065,-0.045
29,-0.065,-0.045
30,-0.065,-0.045
31,-0.060,-0.045
32,-0.055,-0.045
33,-0.055,-0.040
34,-0.055,-0.035
35,-0.055,-0.035
36,-0.055,-0.035
37,-0.055,-0.030
38,-0.055,-0.025
39,-0.055,-0.025
40,-0.050,-0.025
41,-0.040,-0.025
42,-0.030,-0.020
43,-0.025,-0.015
44,-0.025,-0.010
45,-0.025,-0.005
46,-0.020,-0.005
47,-0.015,-0.005
48,-0.015,-0.005
49,-0.015,-0.005
50,-0.010,0.000
51,-0.005,0.005
52,0.000,0.010
53,0.005,0.015
54,0.010,0.020
55,0.015,0.025
56,0.015,0.030
57,0.020,0.035
58,0.035,0.040
59,0.045,0.045
60,0.055,0.055
61,0.065,0.065
62,0.075,0.070
63,0.090,0.080
64,0.100,0.090
65,0.110,0.095
66,0.120,0.100
67,0.130,0.110
68,0.140,0.120
69,0.150,0.130
70,0.160,0.140
71,0.165,0.145
72,0.170,0.150
73,0.180,0.155
74,0.190,0.160
75,0.205,0.165
76,0.220,0.170
77,0.225,0.175
78,0.225,0.175
79,0.225,0.175
80,0.225,0.170
81,0.215,0.160
82,0.200,0.150
83,0.185,0.135
84,0.165,0.115
85,0.140,0.095
86,0.115,0.075
87,0.085,0.050
88,0.055,0.025
89,0.030,0.000
90,0.005,-0.025
91,-0.015,-0.040
92,-0.035,-0.055
93,-0.050,-0.070
94,-0.065,-0.085
95,-0.080,-0.100
96,-0.095,-0.115
97,-0.105,-0.120
98,-0.115,-0.125
99,-0.120,-0.130
100,-0.125,-0.135
101,-0.130,-0.140
102,-0.135,-0.145
103,-0.140,-0.145
104,-0.145,-0.145
105,-0.145,-0.150
106,-0.145,-0.155
107,-0.140,-0.155
108,-0.135,-0.155
109,-0.135,-0.150
110,-0.135,-0.145
111,-0.135,-0.145
112,-0.135,-0.145
113,-0.130,-0.150
114,-0.125,-0.155
115,-0.130,-0.150
116,-0.135,-0.145
117,-0.140,-0.140
118,-0.145,-0.135
119,-0.140,-0.140
120,-0.135,-0.145
121,-0.130,-0.150
122,-0.125,-0.150
123,-0.125,-0.140
124,-0.125,-0.135
125,-0.125,-0.135
126,-0.125,-0.135
127,-0.125,-0.135
128,-0.120,-0.130
129,-0.115,-0.125
130,-0.115,-0.120
131,-0.115,-0.115
132,-0.115,-0.120
133,-0.115,-0.125
134,-0.120,-0.125
135,-0.125,-0.125
136,-0.120,-0.130
137,-0.115,-0.135
138,-0.120,-0.130
139,-0.125,-0.125
140,-0.125,-0.130
141,-0.125,-0.135
142,-0.125,-0.135
143,-0.125,-0.135
144,-0.125,-0.135
145,-0.125,-0.135
146,-0.130,-0.135
147,-0.135,-0.135
148,-0.135,-0.135
149,-0.135,-0.135
150,-0.140,-0.140
151,-0.145,-0.145
152,-0.140,-0.145
153,-0.135,-0.140
154,-0.130,-0.130
155,-0.125,-0.125
156,-0.130,-0.130
157,-0.135,-0.135
158,-0.140,-0.140
159,-0.145,-0.145
160,-0.145,-0.145
161,-0.145,-0.145
162,-0.145,-0.140
163,-0.145,-0.135
164,-0.145,-0.140
165,-0.145,-0.145
166,-0.145,-0.150
167,-0.145,-0.150
168,-0.145,-0.145
169,-0.140,-0.145
170,-0.135,-0.145
171,-0.135,-0.140
172,-0.135,-0.135
173,-0.140,-0.140
174,-0.145,-0.145
175,-0.140,-0.145
176,-0.135,-0.145
177,-0.130,-0.140
178,-0.125,-0.135
179,-0.125,-0.130
180,-0.125,-0.125
181,-0.115,-0.130
182,-0.105,-0.135
183,-0.095,-0.130
184,-0.085,-0.125
185,-0.080,-0.115
186,-0.075,-0.105
187,-0.075,-0.100
188,-0.065,-0.095
189,-0.045,-0.095
190,-0.035,-0.095
191,-0.035,-0.090
192,-0.035,-0.085
193,-0.030,-0.080
194,-0.025,-0.080
195,-0.030,-0.090
196,-0.035,-0.095
197,-0.040,-0.100
198,-0.050,-0.105
199,-0.060,-0.100
200,-0.065,-0.095
201,-0.070,-0.100
202,-0.095,-0.105
203,-0.120,-0.110
204,-0.125,-0.120
205,-0.130,-0.130
206,-0.135,-0.135
207,-0.140,-0.140
208,-0.145,-0.145
209,-0.145,-0.135
210,-0.150,-0.140
211,-0.155,-0.145
212,-0.155,-0.145
213,-0.155,-0.145
214,-0.160,-0.145
215,-0.165,-0.145
216,-0.160,-0.140
217,-0.155,-0.135
218,-0.150,-0.135
219,-0.145,-0.135
220,-0.150,-0.135
221,-0.155,-0.135
222,-0.150,-0.140
223,-0.145,-0.145
224,-0.150,-0.135
225,-0.155,-0.125
226,-0.155,-0.130
227,-0.155,-0.135
228,-0.145,-0.135
229,-0.135,-0.135
230,-0.140,-0.135
231,-0.140,-0.135
232,-0.130,-0.130
233,-0.125,-0.125
234,-0.120,-0.125
235,-0.135,-0.125
236,-0.170,-0.125
237,-0.155,-0.125
238,-0.110,-0.130
239,0.025,-0.130
240,0.195,-0.120
241,0.440,-0.095
242,0.710,-0.065
243,0.945,0.000
244,1.170,0.070
245,1.005,0.070
246,0.770,0.050
247,0.450,-0.080
248,0.125,-0.225
249,-0.190,-0.335
250,0.105,-0.235
251,-0.430,-0.495
252,-0.350,-0.545
253,-0.240,-0.445
254,-0.135,-0.345
255,-0.115,-0.230
256,-0.095,-0.120
257,-0.105,-0.085
258,-0.115,-0.055
259,-0.120,-0.055
260,-0.125,-0.055
261,-0.125,-0.055
262,-0.125,-0.055
263,-0.115,-0.055
264,-0.105,-0.055
265,-0.110,-0.055
266,-0.115,-0.055
267,-0.110,-0.055
268,-0.105,-0.055
269,-0.105,-0.055
270,-0.100,-0.055
271,-0.085,-0.050
272,-0.080,-0.045
273,-0.090,-0.045
274,-0.095,-0.045
275,-0.090,-0.045
276,-0.085,-0.045
277,-0.090,-0.040
278,-0.090,-0.035
279,-0.080,-0.030
280,-0.065,-0.025
281,-0.050,-0.025
282,-0.045,-0.025
283,-0.050,-0.025
284,-0.055,-0.025
285,-0.055,-0.020
286,-0.050,-0.015
287,-0.040,-0.010
288,-0.035,-0.005
289,-0.035,-0.005
290,-0.030,-0.005
291,-0.020,0.000
292,-0.010,0.010
293,-0.005,0.015
294,0.005,0.025
295,0.015,0.035
296,0.020,0.040
297,0.025,0.045
298,0.035,0.050
299,0.045,0.055
300,0.050,0.060
301,0.055,0.065
302,0.070,0.080
303,0.085,0.095
304,0.090,0.100
305,0.095,0.105
306,0.105,0.110
307,0.115,0.115
308,0.125,0.120
309,0.135,0.125
310,0.135,0.130
311,0.135,0.135
312,0.145,0.140
313,0.150,0.140
314,0.140,0.130
315,0.135,0.125
316,0.135,0.120
317,0.130,0.110
318,0.120,0.100
319,0.095,0.085
320,0.060,0.065
321,0.040,0.045
322,0.030,0.025
323,0.010,0.005
324,-0.010,-0.010
325,-0.030,-0.025
326,-0.050,-0.040
327,-0.065,-0.055
328,-0.080,-0.070
329,-0.090,-0.085
330,-0.100,-0.100
331,-0.115,-0.105
332,-0.130,-0.110
333,-0.135,-0.115
334,-0.145,-0.115
335,-0.150,-0.120
336,-0.155,-0.125
337,-0.150,-0.125
338,-0.145,-0.125
339,-0.145,-0.130
340,-0.145,-0.135
341,-0.145,-0.130
342,-0.145,-0.125
343,-0.140,-0.125
344,-0.135,-0.125
345,-0.130,-0.130
346,-0.125,-0.135
347,-0.135,-0.135
348,-0.145,-0.135
349,-0.140,-0.125
350,-0.135,-0.115
351,-0.130,-0.120
352,-0.125,-0.125
353,-0.125,-0.125
354,-0.125,-0.125
355,-0.130,-0.120
356,-0.130,-0.115
357,-0.120,-0.115
358,-0.115,-0.115
359,-0.110,-0.115
360,-0.105,-0.115
361,-0.110,-0.115
362,-0.115,-0.115
363,-0.120,-0.115
364,-0.125,-0.115
365,-0.120,-0.110
366,-0.115,-0.105
367,-0.120,-0.105
368,-0.125,-0.105
369,-0.125,-0.110
370,-0.125,-0.115
371,-0.125,-0.115
372,-0.125,-0.115
373,-0.130,-0.110
374,-0.135,-0.105
375,-0.135,-0.105
376,-0.125,-0.110
377,-0.125,-0.115
378,-0.130,-0.115
379,-0.135,-0.115
380,-0.130,-0.115
381,-0.125,-0.115
382,-0.140,-0.115
383,-0.155,-0.115
384,-0.145,-0.115
385,-0.135,-0.115
386,-0.140,-0.120
387,-0.145,-0.125
388,-0.145,-0.125
389,-0.145,-0.125
390,-0.145,-0.125
391,-0.145,-0.125
392,-0.145,-0.125
393,-0.145,-0.125
394,-0.140,-0.130
395,-0.135,-0.135
396,-0.135,-0.130
397,-0.140,-0.125
398,-0.150,-0.125
399,-0.155,-0.125
400,-0.150,-0.125
401,-0.145,-0.125
402,-0.140,-0.130
403,-0.135,-0.135
404,-0.130,-0.130
405,-0.120,-0.125
406,-0.110,-0.125
407,-0.110,-0.125
408,-0.120,-0.125
409,-0.120,-0.125
410,-0.110,-0.120
411,-0.095,-0.115
412,-0.080,-0.110
413,-0.080,-0.105
414,-0.090,-0.100
415,-0.095,-0.095
416,-0.090,-0.095
417,-0.060,-0.095
418,-0.035,-0.095
419,-0.030,-0.085
420,-0.025,-0.075
421,-0.025,-0.075
422,-0.025,-0.075
423,-0.030,-0.080
424,-0.035,-0.085
425,-0.035,-0.090
426,-0.035,-0.095
427,-0.055,-0.090
428,-0.075,-0.085
429,-0.075,-0.090
430,-0.080,-0.095
431,-0.100,-0.105
432,-0.115,-0.115
433,-0.120,-0.115
434,-0.125,-0.115
435,-0.130,-0.120
436,-0.135,-0.125
437,-0.135,-0.130
438,-0.140,-0.135
439,-0.150,-0.140
440,-0.150,-0.145
441,-0.140,-0.145
442,-0.135,-0.145
443,-0.140,-0.140
444,-0.145,-0.135
445,-0.145,-0.135
446,-0.145,-0.135
447,-0.150,-0.135
448,-0.155,-0.135
449,-0.150,-0.140
450,-0.145,-0.145
451,-0.150,-0.140
452,-0.155,-0.135
453,-0.150,-0.135
454,-0.145,-0.135
455,-0.140,-0.135
456,-0.135,-0.135
457,-0.140,-0.140
458,-0.145,-0.145
459,-0.145,-0.135
460,-0.140,-0.135
461,-0.135,-0.135
462,-0.140,-0.130
463,-0.145,-0.125
464,-0.140,-0.125
465,-0.135,-0.125
466,-0.150,-0.130
467,-0.160,-0.135
468,-0.125,-0.130
469,-0.050,-0.125
470,0.150,-0.120
471,0.370,-0.110
472,0.640,-0.080
473,0.880,-0.035
474,1.065,0.040
475,1.110,0.075
476,0.915,0.050
477,0.665,-0.020
478,0.335,-0.155
479,0.010,-0.270
480,-0.320,-0.375
481,-0.460,-0.450
482,-0.430,-0.500
483,-0.340,-0.485
484,-0.200,-0.405
485,-0.125,-0.305
486,-0.090,-0.185
487,-0.075,-0.120
488,-0.080,-0.080
489,-0.085,-0.060
490,-0.090,-0.050
491,-0.100,-0.045
492,-0.110,-0.050
493,-0.115,-0.055
494,-0.120,-0.060
495,-0.120,-0.065
496,-0.110,-0.065
497,-0.100,-0.065
498,-0.090,-0.060
499,-0.085,-0.055
500,-0.085,-0.055
501,-0.090,-0.050
502,-0.085,-0.045
503,-0.075,-0.050
504,-0.065,-0.055
505,-0.070,-0.050
506,-0.075,-0.045
507,-0.070,-0.040
508,-0.065,-0.035
509,-0.075,-0.035
510,-0.085,-0.035
511,-0.075,-0.035
512,-0.065,-0.035
513,-0.055,-0.030
514,-0.045,-0.025
515,-0.040,-0.025
516,-0.035,-0.025
517,-0.030,-0.020
518,-0.025,-0.015
519,-0.015,-0.015
520,-0.005,-0.015
521,0.000,-0.010
522,0.005,-0.005
523,0.005,0.000
524,0.005,0.005
525,0.010,0.005
526,0.015,0.010
527,0.020,0.020
528,0.035,0.030
529,0.050,0.040
530,0.065,0.050
531,0.080,0.060
532,0.100,0.070
533,0.120,0.080
534,0.125,0.085
535,0.125,0.085
536,0.125,0.090
537,0.130,0.100
538,0.140,0.105
539,0.150,0.110
540,0.150,0.115
541,0.140,0.120
542,0.145,0.125
543,0.155,0.125
544,0.160,0.120
545,0.165,0.115
546,0.155,0.110
547,0.145,0.105
548,0.135,0.090
549,0.125,0.075
550,0.095,0.055
551,0.075,0.035
552,0.055,0.020
553,0.030,0.000
554,0.010,-0.020
555,-0.010,-0.035
556,-0.045,-0.055
557,-0.065,-0.070
558,-0.070,-0.090
559,-0.075,-0.105
560,-0.085,-0.115
561,-0.100,-0.125
562,-0.115,-0.125
563,-0.125,-0.125
564,-0.120,-0.130
565,-0.120,-0.135
566,-0.130,-0.140
567,-0.135,-0.145
568,-0.130,-0.145
569,-0.125,-0.145
570,-0.125,-0.140
571,-0.125,-0.135
572,-0.130,-0.140
573,-0.135,-0.145
574,-0.135,-0.145
575,-0.130,-0.145
576,-0.120,-0.145
577,-0.115,-0.145
578,-0.120,-0.145
579,-0.125,-0.145
580,-0.120,-0.145
581,-0.115,-0.145
582,-0.110,-0.145
583,-0.105,-0.145
584,-0.105,-0.135
585,-0.105,-0.135
586,-0.105,-0.135
587,-0.105,-0.135
588,-0.105,-0.135
589,-0.100,-0.135
590,-0.095,-0.135
591,-0.095,-0.135
592,-0.095,-0.135
593,-0.090,-0.135
594,-0.085,-0.135
595,-0.085,-0.135
596,-0.085,-0.135
597,-0.085,-0.135
598,-0.085,-0.135
599,-0.080,-0.130
600,-0.075,-0.125
601,-0.085,-0.125
602,-0.095,-0.125
603,-0.095,-0.130
604,-0.095,-0.135
605,-0.095,-0.135
606,-0.095,-0.135
607,-0.095,-0.130
608,-0.095,-0.125
609,-0.095,-0.125
610,-0.095,-0.125
611,-0.100,-0.130
612,-0.105,-0.135
613,-0.105,-0.135
614,-0.105,-0.135
615,-0.100,-0.135
616,-0.095,-0.135
617,-0.100,-0.135
618,-0.105,-0.135
619,-0.105,-0.135
620,-0.105,-0.135
621,-0.105,-0.135
622,-0.105,-0.135
623,-0.105,-0.135
624,-0.105,-0.135
625,-0.105,-0.135
626,-0.095,-0.140
627,-0.095,-0.145
628,-0.100,-0.145
629,-0.105,-0.145
630,-0.105,-0.140
631,-0.105,-0.135
632,-0.110,-0.135
633,-0.115,-0.135
634,-0.105,-0.140
635,-0.095,-0.145
636,-0.085,-0.145
637,-0.075,-0.145
638,-0.070,-0.135
639,-0.060,-0.125
640,-0.045,-0.120
641,-0.035,-0.115
642,-0.035,-0.110
643,-0.035,-0.105
644,-0.030,-0.105
645,-0.020,-0.105
646,-0.005,-0.100
647,0.005,-0.095
648,0.000,-0.090
649,-0.005,-0.090
650,-0.005,-0.100
651,-0.005,-0.105
652,-0.005,-0.105
653,-0.005,-0.105
654,-0.010,-0.105
655,-0.015,-0.105
656,-0.020,-0.105
657,-0.040,-0.105
658,-0.060,-0.110
659,-0.080,-0.115
660,-0.100,-0.120
661,-0.105,-0.130
662,-0.105,-0.140
663,-0.115,-0.145
664,-0.130,-0.145
665,-0.135,-0.150
666,-0.135,-0.160
667,-0.130,-0.165
668,-0.125,-0.165
669,-0.125,-0.165
670,-0.125,-0.165
671,-0.130,-0.165
672,-0.135,-0.165
673,-0.135,-0.160
674,-0.135,-0.155
675,-0.135,-0.160
676,-0.135,-0.165
677,-0.130,-0.160
678,-0.125,-0.155
679,-0.130,-0.160
680,-0.135,-0.165
681,-0.135,-0.165
682,-0.135,-0.165
683,-0.130,-0.165
684,-0.125,-0.165
685,-0.120,-0.160
686,-0.115,-0.155
687,-0.110,-0.155
688,-0.105,-0.155
689,-0.105,-0.160
690,-0.105,-0.165
691,-0.105,-0.160
692,-0.120,-0.155
693,-0.145,-0.150
694,-0.140,-0.150
695,-0.105,-0.160
696,0.005,-0.165
697,0.155,-0.160
698,0.415,-0.140
699,0.715,-0.120
700,0.975,-0.095
701,1.220,-0.070
702,1.120,-0.090
703,0.940,-0.120
704,0.630,-0.205
705,0.305,-0.295
706,-0.025,-0.385
707,-0.350,-0.470
708,-0.340,-0.500
709,-0.305,-0.535
710,-0.200,-0.395
711,-0.095,-0.260
712,-0.080,-0.175
713,-0.065,-0.095
714,-0.075,-0.080
715,-0.085,-0.065
716,-0.090,-0.070
717,-0.095,-0.075
718,-0.090,-0.075
719,-0.085,-0.075
720,-0.085,-0.080
721,-0.085,-0.085
722,-0.085,-0.080
723,-0.085,-0.075
724,-0.080,-0.075
725,-0.075,-0.075
726,-0.070,-0.070
727,-0.065,-0.065
728,-0.070,-0.065
729,-0.075,-0.065
730,-0.070,-0.065
731,-0.065,-0.065
732,-0.060,-0.060
733,-0.055,-0.055
734,-0.055,-0.055
735,-0.050,-0.055
736,-0.040,-0.055
737,-0.035,-0.055
738,-0.035,-0.055
739,-0.035,-0.055
740,-0.030,-0.050
741,-0.025,-0.045
742,-0.025,-0.040
743,-0.020,-0.035
744,-0.010,-0.030
745,-0.005,-0.025
746,0.000,-0.025
747,0.015,-0.020
748,0.030,-0.010
749,0.035,-0.005
750,0.035,-0.005
751,0.050,0.015
752,0.055,0.025
753,0.065,0.030
754,0.075,0.035
755,0.090,0.050
756,0.105,0.065
757,0.110,0.075
758,0.115,0.085
759,0.130,0.090
760,0.145,0.095
761,0.160,0.105
762,0.175,0.115
763,0.185,0.125
764,0.195,0.135
765,0.205,0.135
766,0.215,0.135
767,0.215,0.135
768,0.215,0.135
769,0.215,0.135
770,0.215,0.135
771,0.215,0.130
772,0.205,0.120
773,0.180,0.110
774,0.155,0.095
775,0.125,0.065
776,0.100,0.050
777,0.075,0.035
778,0.050,0.010
779,0.025,-0.015
780,0.000,-0.035
781,-0.025,-0.055
782,-0.050,-0.075
783,-0.070,-0.090
784,-0.090,-0.105
785,-0.110,-0.120
786,-0.115,-0.125
787,-0.120,-0.130
788,-0.135,-0.135
789,-0.150,-0.140
790,-0.155,-0.150
791,-0.160,-0.160
792,-0.165,-0.170
793,-0.165,-0.175
794,-0.160,-0.170
795,-0.155,-0.165
796,-0.155,-0.165
797,-0.155,-0.165
798,-0.160,-0.170
799,-0.165,-0.175
800,-0.165,-0.170
801,-0.165,-0.165
802,-0.165,-0.165
803,-0.165,-0.165
804,-0.170,-0.165
805,-0.175,-0.165
806,-0.170,-0.170
807,-0.165,-0.175
808,-0.165,-0.170
809,-0.165,-0.165
810,-0.160,-0.160
811,-0.155,-0.155
812,-0.155,-0.160
813,-0.155,-0.165
814,-0.155,-0.160
815,-0.155,-0.155
816,-0.150,-0.155
817,-0.145,-0.155
818,-0.140,-0.155
819,-0.135,-0.155
820,-0.140,-0.150
821,-0.145,-0.145
822,-0.145,-0.145
823,-0.145,-0.145
824,-0.140,-0.150
825,-0.135,-0.150
826,-0.135,-0.140
827,-0.135,-0.135
828,-0.130,-0.135
829,-0.125,-0.135
830,-0.125,-0.135
831,-0.125,-0.135
832,-0.130,-0.140
833,-0.135,-0.145
834,-0.135,-0.135
835,-0.140,-0.135
836,-0.145,-0.135
837,-0.145,-0.140
838,-0.145,-0.145
839,-0.145,-0.150
840,-0.145,-0.155
841,-0.145,-0.150
842,-0.145,-0.145
843,-0.145,-0.145
844,-0.145,-0.145
845,-0.145,-0.145
846,-0.145,-0.145
847,-0.150,-0.150
848,-0.155,-0.155
849,-0.155,-0.150
850,-0.155,-0.145
851,-0.155,-0.150
852,-0.155,-0.155
853,-0.155,-0.155
854,-0.155,-0.155
855,-0.155,-0.155
856,-0.155,-0.155
857,-0.155,-0.155
858,-0.155,-0.155
859,-0.150,-0.155
860,-0.145,-0.155
861,-0.150,-0.155
862,-0.155,-0.155
863,-0.155,-0.155
864,-0.155,-0.155
865,-0.155,-0.155
866,-0.155,-0.155
867,-0.160,-0.160
868,-0.165,-0.165
869,-0.160,-0.160
870,-0.155,-0.155
871,-0.150,-0.155
872,-0.140,-0.155
873,-0.130,-0.155
874,-0.125,-0.155
875,-0.125,-0.155
876,-0.110,-0.135
877,-0.105,-0.125
878,-0.095,-0.130
879,-0.085,-0.135
880,-0.085,-0.125
881,-0.085,-0.115
882,-0.075,-0.110
883,-0.065,-0.105
884,-0.060,-0.105
885,-0.055,-0.105
886,-0.050,-0.105
887,-0.045,-0.105
888,-0.045,-0.105
889,-0.045,-0.105
890,-0.045,-0.105
891,-0.045,-0.105
892,-0.055,-0.110
893,-0.065,-0.115
894,-0.075,-0.115
895,-0.085,-0.115
896,-0.100,-0.120
897,-0.115,-0.125
898,-0.135,-0.125
899,-0.150,-0.130
900,-0.160,-0.140
901,-0.165,-0.150
902,-0.160,-0.160
903,-0.155,-0.165
904,-0.160,-0.165
905,-0.165,-0.165
906,-0.165,-0.160
907,-0.165,-0.155
908,-0.165,-0.155
909,-0.165,-0.155
910,-0.165,-0.160
911,-0.165,-0.165
912,-0.165,-0.160
913,-0.165,-0.155
914,-0.165,-0.155
915,-0.165,-0.155
916,-0.170,-0.155
917,-0.170,-0.155
918,-0.165,-0.155
919,-0.160,-0.150
920,-0.155,-0.145
921,-0.155,-0.150
922,-0.155,-0.155
923,-0.155,-0.150
924,-0.155,-0.145
925,-0.150,-0.145
926,-0.145,-0.145
927,-0.140,-0.145
928,-0.140,-0.145
929,-0.165,-0.140
930,-0.185,-0.135
931,-0.180,-0.140
932,-0.125,-0.145
933,0.025,-0.150
934,0.220,-0.145
935,0.485,-0.120
936,0.760,-0.100
937,1.040,-0.085
938,1.135,-0.085
939,1.025,-0.105
940,0.800,-0.165
941,0.470,-0.255
942,0.145,-0.345
943,-0.185,-0.440
944,-0.310,-0.490
945,-0.330,-0.525
946,-0.265,-0.440
947,-0.155,-0.305
948,-0.115,-0.195
949,-0.100,-0.100
950,-0.100,-0.060
951,-0.110,-0.040
952,-0.115,-0.035
953,-0.115,-0.040
954,-0.115,-0.050
955,-0.120,-0.060
956,-0.125,-0.065
957,-0.125,-0.060
958,-0.125,-0.055
959,-0.115,-0.055
960,-0.120,-0.050
961,-0.125,-0.045
962,-0.120,-0.050
963,-0.115,-0.055
964,-0.110,-0.050
965,-0.105,-0.045
966,-0.100,-0.040
967,-0.095,-0.035
968,-0.090,-0.035
969,-0.085,-0.035
970,-0.085,-0.030
971,-0.085,-0.025
972,-0.080,-0.025
973,-0.075,-0.025
974,-0.070,-0.025
975,-0.065,-0.025
976,-0.065,-0.020
977,-0.065,-0.015
978,-0.060,-0.010
979,-0.055,-0.005
980,-0.050,0.000
981,-0.040,0.005
982,-0.030,0.005
983,-0.025,0.010
984,-0.020,0.020
985,-0.010,0.025
986,0.000,0.025
987,0.005,0.030
988,0.010,0.040
989,0.020,0.050
990,0.030,0.060
991,0.040,0.070
992,0.050,0.080
993,0.060,0.090
994,0.070,0.100
995,0.085,0.110
996,0.100,0.120
997,0.115,0.130
998,0.130,0.140
999,0.140,0.145
1000,0.135,0.145
1001,0.165,0.160
1002,0.175,0.165
1003,0.180,0.170
1004,0.185,0.175
1005,0.195,0.180
1006,0.205,0.185
1007,0.200,0.175
1008,0.195,0.165
1009,0.190,0.165
1010,0.185,0.165
1011,0.175,0.150
1012,0.160,0.135
1013,0.135,0.120
1014,0.105,0.095
1015,0.075,0.065
1016,0.050,0.040
1017,0.020,0.020
1018,-0.005,0.000
1019,-0.030,-0.020
1020,-0.050,-0.040
1021,-0.065,-0.055
1022,-0.085,-0.070
1023,-0.105,-0.085
1024,-0.120,-0.100
1025,-0.135,-0.110
1026,-0.145,-0.115
1027,-0.145,-0.120
1028,-0.145,-0.125
1029,-0.145,-0.125
1030,-0.145,-0.125
1031,-0.150,-0.130
1032,-0.155,-0.135
1033,-0.160,-0.140
1034,-0.165,-0.145
1035,-0.160,-0.145
1036,-0.155,-0.145
1037,-0.155,-0.145
1038,-0.155,-0.145
1039,-0.155,-0.140
1040,-0.155,-0.135
1041,-0.155,-0.135
1042,-0.155,-0.135
1043,-0.155,-0.135
1044,-0.150,-0.135
1045,-0.145,-0.135
1046,-0.145,-0.135
1047,-0.145,-0.135
1048,-0.140,-0.135
1049,-0.135,-0.135
1050,-0.135,-0.130
1051,-0.135,-0.125
1052,-0.135,-0.125
1053,-0.135,-0.125
1054,-0.135,-0.125
1055,-0.135,-0.125
1056,-0.135,-0.120
1057,-0.135,-0.115
1058,-0.130,-0.120
1059,-0.125,-0.125
1060,-0.120,-0.120
1061,-0.115,-0.115
1062,-0.120,-0.115
1063,-0.125,-0.115
1064,-0.125,-0.120
1065,-0.125,-0.125
1066,-0.125,-0.125
1067,-0.125,-0.125
1068,-0.125,-0.120
1069,-0.125,-0.115
1070,-0.125,-0.115
1071,-0.125,-0.115
1072,-0.130,-0.120
1073,-0.135,-0.125
1074,-0.130,-0.120
1075,-0.125,-0.115
1076,-0.125,-0.115
1077,-0.125,-0.115
1078,-0.130,-0.120
1079,-0.135,-0.125
1080,-0.130,-0.125
1081,-0.125,-0.125
1082,-0.130,-0.130
1083,-0.135,-0.135
1084,-0.135,-0.125
1085,-0.140,-0.125
1086,-0.145,-0.125
1087,-0.145,-0.125
1088,-0.145,-0.125
1089,-0.140,-0.130
1090,-0.135,-0.135
1091,-0.135,-0.135
1092,-0.135,-0.135
1093,-0.140,-0.130
1094,-0.145,-0.125
1095,-0.140,-0.130
1096,-0.135,-0.135
1097,-0.135,-0.135
1098,-0.135,-0.135
1099,-0.135,-0.135
1100,-0.135,-0.135
1101,-0.135,-0.130
1102,-0.135,-0.125
1103,-0.140,-0.130
1104,-0.145,-0.135
1105,-0.140,-0.135
1106,-0.135,-0.135
1107,-0.135,-0.130
1108,-0.135,-0.125
1109,-0.135,-0.125
1110,-0.135,-0.125
1111,-0.130,-0.125
1112,-0.125,-0.125
1113,-0.120,-0.125
1114,-0.115,-0.125
1115,-0.110,-0.125
1116,-0.105,-0.125
1117,-0.100,-0.120
1118,-0.095,-0.115
1119,-0.090,-0.110
1120,-0.075,-0.105
1121,-0.060,-0.100
1122,-0.055,-0.095
1123,-0.055,-0.090
1124,-0.050,-0.085
1125,-0.055,-0.085
1126,-0.020,-0.075
1127,-0.005,-0.075
1128,-0.005,-0.070
1129,-0.005,-0.065
1130,-0.010,-0.070
1131,-0.015,-0.075
1132,-0.015,-0.075
1133,-0.015,-0.075
1134,-0.030,-0.075
1135,-0.045,-0.075
1136,-0.055,-0.085
1137,-0.065,-0.095
1138,-0.080,-0.095
1139,-0.095,-0.095
1140,-0.105,-0.100
1141,-0.115,-0.105
1142,-0.120,-0.115
1143,-0.125,-0.125
1144,-0.130,-0.130
1145,-0.135,-0.135
1146,-0.130,-0.130
1147,-0.130,-0.125
1148,-0.140,-0.130
1149,-0.145,-0.135
1150,-0.145,-0.130
1151,-0.145,-0.125
1152,-0.140,-0.130
1153,-0.135,-0.135
1154,-0.135,-0.130
1155,-0.135,-0.125
1156,-0.135,-0.130
1157,-0.135,-0.135
1158,-0.135,-0.130
1159,-0.135,-0.125
1160,-0.135,-0.125
1161,-0.135,-0.125
1162,-0.130,-0.125
1163,-0.125,-0.125
1164,-0.130,-0.120
1165,-0.135,-0.115
1166,-0.130,-0.120
1167,-0.120,-0.125
1168,-0.115,-0.125
1169,-0.110,-0.120
1170,-0.105,-0.115
1171,-0.130,-0.110
1172,-0.155,-0.105
1173,-0.125,-0.110
1174,-0.075,-0.115
1175,0.065,-0.115
1176,0.230,-0.110
1177,0.490,-0.085
1178,0.750,-0.060
1179,0.995,-0.040
1180,1.125,-0.030
1181,0.985,-0.050
1182,0.780,-0.100
1183,0.450,-0.210
1184,0.125,-0.315
1185,-0.205,-0.425
1186,-0.370,-0.500
1187,-0.335,-0.535
1188,-0.265,-0.495
1189,-0.165,-0.365
1190,-0.105,-0.245
1191,-0.085,-0.125
1192,-0.075,-0.060
1193,-0.080,-0.030
1194,-0.090,-0.015
1195,-0.100,-0.020
1196,-0.105,-0.025
1197,-0.100,-0.030
1198,-0.095,-0.035
1199,-0.095,-0.030
1200,-0.095,-0.025
1201,-0.090,-0.025
1202,-0.085,-0.025
1203,-0.080,-0.025
1204,-0.075,-0.025
1205,-0.075,-0.020
1206,-0.075,-0.015
1207,-0.075,-0.015
1208,-0.075,-0.015
1209,-0.065,-0.005
1210,-0.070,-0.005
1211,-0.075,-0.005
1212,-0.070,-0.005
1213,-0.065,-0.005
1214,-0.055,-0.005
1215,-0.045,-0.005
1216,-0.040,0.000
1217,-0.035,0.005
1218,-0.030,0.010
1219,-0.025,0.015
1220,-0.025,0.020
1221,-0.025,0.025
1222,-0.020,0.025
1223,-0.015,0.025
1224,-0.005,0.035
1225,0.005,0.045
1226,0.005,0.050
1227,0.005,0.055
1228,0.015,0.060
1229,0.025,0.065
1230,0.030,0.070
1231,0.040,0.080
1232,0.055,0.090
1233,0.070,0.100
1234,0.085,0.110
1235,0.095,0.115
1236,0.095,0.120
1237,0.105,0.130
1238,0.120,0.140
1239,0.130,0.155
1240,0.140,0.170
1241,0.145,0.175
1242,0.150,0.175
1243,0.165,0.175
1244,0.180,0.180
1245,0.190,0.185
1246,0.200,0.185
1247,0.205,0.190
1248,0.210,0.200
1249,0.215,0.205
1250,0.215,0.205
1251,0.200,0.180
1252,0.185,0.165
1253,0.170,0.155
1254,0.155,0.145
1255,0.130,0.125
1256,0.105,0.105
1257,0.080,0.085
1258,0.055,0.065
1259,0.035,0.045
1260,0.010,0.025
1261,-0.015,0.000
1262,-0.035,-0.015
1263,-0.050,-0.030
1264,-0.070,-0.050
1265,-0.085,-0.065
1266,-0.095,-0.075
1267,-0.105,-0.085
1268,-0.115,-0.095
1269,-0.125,-0.105
1270,-0.135,-0.115
1271,-0.135,-0.110
1272,-0.140,-0.105
1273,-0.155,-0.110
1274,-0.165,-0.115
1275,-0.160,-0.120
1276,-0.155,-0.125
1277,-0.150,-0.125
1278,-0.145,-0.125
1279,-0.145,-0.120
1280,-0.145,-0.115
1281,-0.140,-0.115
1282,-0.135,-0.115
1283,-0.140,-0.120
1284,-0.145,-0.125
1285,-0.145,-0.125
1286,-0.145,-0.125
1287,-0.140,-0.125
1288,-0.135,-0.125
1289,-0.135,-0.120
1290,-0.135,-0.115
1291,-0.135,-0.115
1292,-0.135,-0.115
1293,-0.135,-0.115
1294,-0.135,-0.115
1295,-0.135,-0.115
1296,-0.135,-0.110
1297,-0.135,-0.105
1298,-0.130,-0.105
1299,-0.125,-0.105
1300,-0.125,-0.105
1301,-0.125,-0.105
1302,-0.120,-0.105
1303,-0.115,-0.105
1304,-0.125,-0.100
1305,-0.135,-0.095
1306,-0.135,-0.095
1307,-0.135,-0.095
1308,-0.130,-0.100
1309,-0.125,-0.105
1310,-0.130,-0.105
1311,-0.135,-0.105
1312,-0.135,-0.105
1313,-0.135,-0.105
1314,-0.130,-0.105
1315,-0.125,-0.105
1316,-0.130,-0.105
1317,-0.135,-0.105
1318,-0.130,-0.105
1319,-0.125,-0.105
1320,-0.130,-0.105
1321,-0.135,-0.105
1322,-0.140,-0.110
1323,-0.145,-0.115
1324,-0.150,-0.115
1325,-0.150,-0.115
1326,-0.140,-0.115
1327,-0.135,-0.115
1328,-0.135,-0.110
1329,-0.135,-0.105
1330,-0.140,-0.110
1331,-0.145,-0.115
1332,-0.145,-0.115
1333,-0.145,-0.115
1334,-0.135,-0.115
1335,-0.140,-0.115
1336,-0.145,-0.115
1337,-0.145,-0.115
1338,-0.145,-0.115
1339,-0.150,-0.120
1340,-0.155,-0.125
1341,-0.150,-0.120
1342,-0.145,-0.115
1343,-0.145,-0.115
1344,-0.145,-0.115
1345,-0.140,-0.115
1346,-0.135,-0.115
1347,-0.135,-0.115
1348,-0.135,-0.115
1349,-0.135,-0.115
1350,-0.135,-0.115
1351,-0.135,-0.115
1352,-0.135,-0.115
1353,-0.130,-0.115
1354,-0.125,-0.115
1355,-0.110,-0.115
1356,-0.105,-0.110
1357,-0.100,-0.100
1358,-0.090,-0.095
1359,-0.080,-0.090
1360,-0.075,-0.085
1361,-0.070,-0.085
1362,-0.065,-0.085
1363,-0.065,-0.080
1364,-0.055,-0.075
1365,-0.030,-0.070
1366,-0.025,-0.065
1367,-0.030,-0.060
1368,-0.035,-0.055
1369,-0.030,-0.060
1370,-0.025,-0.065
1371,-0.025,-0.065
1372,-0.025,-0.065
1373,-0.030,-0.070
1374,-0.045,-0.075
1375,-0.035,-0.075
1376,-0.085,-0.080
1377,-0.105,-0.085
1378,-0.120,-0.090
1379,-0.135,-0.095
1380,-0.130,-0.105
1381,-0.125,-0.115
1382,-0.135,-0.115
1383,-0.145,-0.115
1384,-0.150,-0.115
1385,-0.155,-0.115
1386,-0.155,-0.120
1387,-0.155,-0.125
1388,-0.145,-0.120
1389,-0.135,-0.115
1390,-0.140,-0.115
1391,-0.145,-0.115
1392,-0.150,-0.115
1393,-0.155,-0.115
1394,-0.145,-0.120
1395,-0.135,-0.125
1396,-0.140,-0.125
1397,-0.145,-0.125
1398,-0.150,-0.120
1399,-0.155,-0.115
1400,-0.155,-0.120
1401,-0.155,-0.125
1402,-0.150,-0.120
1403,-0.145,-0.115
1404,-0.145,-0.115
1405,-0.140,-0.115
1406,-0.130,-0.115
1407,-0.125,-0.115
1408,-0.120,-0.110
1409,-0.115,-0.105
1410,-0.120,-0.110
1411,-0.155,-0.115
1412,-0.190,-0.110
1413,-0.130,-0.105
1414,-0.050,-0.110
1415,0.135,-0.105
1416,0.330,-0.090
1417,0.610,-0.050
1418,0.890,-0.015
1419,1.055,0.045
1420,1.190,0.105
1421,0.865,0.060
1422,0.535,0.000
1423,0.210,-0.145
1424,-0.100,-0.280
1425,-0.325,-0.385
1426,-0.485,-0.465
1427,-0.370,-0.485
1428,-0.265,-0.475
1429,-0.185,-0.360
1430,-0.120,-0.245
1431,-0.100,-0.150
1432,-0.085,-0.080
1433,-0.095,-0.055
1434,-0.105,-0.035
1435,-0.105,-0.040
1436,-0.105,-0.045
1437,-0.105,-0.045
1438,-0.105,-0.045
1439,-0.100,-0.045
1440,-0.095,-0.045
1441,-0.100,-0.040
1442,-0.105,-0.035
1443,-0.100,-0.035
1444,-0.095,-0.035
1445,-0.095,-0.035
1446,-0.095,-0.035
1447,-0.095,-0.035
1448,-0.085,-0.035
1449,-0.070,-0.030
1450,-0.065,-0.025
1451,-0.060,-0.025
1452,-0.060,-0.025
1453,-0.070,-0.020
1454,-0.075,-0.015
1455,-0.070,-0.015
1456,-0.065,-0.015
1457,-0.065,-0.015
1458,-0.060,-0.015
1459,-0.045,-0.005
1460,-0.040,0.000
1461,-0.035,0.005
1462,-0.035,0.005
1463,-0.035,0.005
1464,-0.025,0.005
1465,-0.015,0.005
1466,0.000,0.015
1467,0.015,0.025
1468,0.010,0.025
1469,0.005,0.025
1470,0.015,0.030
1471,0.025,0.035
1472,0.030,0.045
1473,0.040,0.055
1474,0.055,0.060
1475,0.065,0.065
1476,0.075,0.075
1477,0.085,0.085
1478,0.095,0.095
1479,0.105,0.105
1480,0.105,0.110
1481,0.110,0.120
1482,0.125,0.130
1483,0.135,0.135
1484,0.140,0.140
1485,0.145,0.145
1486,0.145,0.145
1487,0.150,0.145
1488,0.160,0.145
1489,0.165,0.145
1490,0.165,0.145
1491,0.155,0.145
1492,0.140,0.140
1493,0.125,0.130
1494,0.110,0.120
1495,0.095,0.095
1496,0.080,0.070
1497,0.055,0.055
1498,0.030,0.040
1499,0.010,0.020
1500,0.025,0.035
1501,-0.035,-0.020
1502,-0.055,-0.035
1503,-0.070,-0.055
1504,-0.085,-0.075
1505,-0.100,-0.080
1506,-0.115,-0.085
1507,-0.125,-0.095
1508,-0.135,-0.105
1509,-0.130,-0.110
1510,-0.125,-0.115
1511,-0.135,-0.115
1512,-0.145,-0.115
1513,-0.135,-0.120
1514,-0.125,-0.125
1515,-0.135,-0.125
1516,-0.145,-0.125
1517,-0.135,-0.125
1518,-0.125,-0.125
1519,-0.130,-0.130
1520,-0.135,-0.135
1521,-0.130,-0.120
1522,-0.130,-0.115
1523,-0.140,-0.115
1524,-0.140,-0.115
1525,-0.130,-0.120
1526,-0.125,-0.125
1527,-0.120,-0.120
1528,-0.115,-0.115
1529,-0.115,-0.115
1530,-0.110,-0.115
1531,-0.100,-0.110
1532,-0.095,-0.105
1533,-0.100,-0.110
1534,-0.110,-0.115
1535,-0.120,-0.115
1536,-0.125,-0.115
1537,-0.120,-0.110
1538,-0.115,-0.105
1539,-0.120,-0.105
1540,-0.120,-0.105
1541,-0.110,-0.105
1542,-0.105,-0.110
1543,-0.105,-0.115
1544,-0.105,-0.110
1545,-0.105,-0.105
1546,-0.105,-0.105
1547,-0.105,-0.105
1548,-0.110,-0.110
1549,-0.115,-0.115
1550,-0.110,-0.110
1551,-0.105,-0.105
1552,-0.110,-0.105
1553,-0.115,-0.105
1554,-0.125,-0.105
1555,-0.135,-0.105
1556,-0.130,-0.110
1557,-0.125,-0.115
1558,-0.125,-0.120
1559,-0.125,-0.125
1560,-0.125,-0.120
1561,-0.125,-0.115
1562,-0.130,-0.115
1563,-0.130,-0.115
1564,-0.115,-0.120
1565,-0.105,-0.125
1566,-0.110,-0.125
1567,-0.115,-0.125
1568,-0.115,-0.125
1569,-0.120,-0.125
1570,-0.140,-0.125
1571,-0.145,-0.125
1572,-0.140,-0.125
1573,-0.130,-0.125
1574,-0.120,-0.125
1575,-0.120,-0.125
1576,-0.130,-0.125
1577,-0.130,-0.125
1578,-0.120,-0.120
1579,-0.115,-0.115
1580,-0.120,-0.120
1581,-0.125,-0.125
1582,-0.120,-0.125
1583,-0.115,-0.125
1584,-0.115,-0.125
1585,-0.110,-0.125
1586,-0.105,-0.125
1587,-0.095,-0.120
1588,-0.085,-0.115
1589,-0.080,-0.110
1590,-0.075,-0.105
1591,-0.070,-0.100
1592,-0.065,-0.095
1593,-0.060,-0.090
1594,-0.050,-0.085
1595,-0.025,-0.085
1596,-0.005,-0.085
1597,-0.010,-0.080
1598,-0.015,-0.075
1599,-0.020,-0.070
1600,-0.025,-0.065
1601,-0.025,-0.070
1602,-0.025,-0.075
1603,-0.020,-0.080
1604,-0.020,-0.085
1605,-0.035,-0.085
1606,-0.045,-0.085
1607,-0.050,-0.090
1608,-0.065,-0.095
1609,-0.095,-0.095
1610,-0.105,-0.100
1611,-0.100,-0.115
1612,-0.105,-0.125
1613,-0.120,-0.130
1614,-0.125,-0.135
1615,-0.130,-0.135
1616,-0.140,-0.135
1617,-0.150,-0.135
1618,-0.155,-0.135
1619,-0.150,-0.135
1620,-0.145,-0.135
1621,-0.140,-0.135
1622,-0.135,-0.135
1623,-0.135,-0.135
1624,-0.130,-0.135
1625,-0.135,-0.135
1626,-0.130,-0.135
1627,-0.145,-0.135
1628,-0.145,-0.135
1629,-0.145,-0.135
1630,-0.135,-0.135
1631,-0.125,-0.135
1632,-0.130,-0.135
1633,-0.135,-0.135
1634,-0.130,-0.135
1635,-0.125,-0.135
1636,-0.120,-0.135
1637,-0.115,-0.135
1638,-0.110,-0.130
1639,-0.105,-0.125
1640,-0.105,-0.125
1641,-0.115,-0.125
1642,-0.145,-0.125
1643,-0.140,-0.125
1644,-0.080,-0.130
1645,0.045,-0.130
1646,0.240,-0.115
1647,0.465,-0.090
1648,0.720,-0.060
1649,0.950,-0.005
1650,1.155,0.065
1651,1.105,0.080
1652,0.885,0.055
1653,0.590,-0.045
1654,0.265,-0.190
1655,-0.065,-0.305
1656,-0.390,-0.405
1657,-0.430,-0.470
1658,-0.360,-0.520
1659,-0.255,-0.460
1660,-0.135,-0.365
1661,-0.095,-0.250
1662,-0.070,-0.130
1663,-0.070,-0.090
1664,-0.080,-0.060
1665,-0.085,-0.055
1666,-0.085,-0.055
1667,-0.080,-0.055
1668,-0.075,-0.055
1669,-0.075,-0.060
1670,-0.075,-0.065
1671,-0.070,-0.065
1672,-0.065,-0.065
1673,-0.070,-0.065
1674,-0.075,-0.065
1675,-0.075,-0.065
1676,-0.075,-0.065
1677,-0.070,-0.055
1678,-0.065,-0.045
1679,-0.065,-0.045
1680,-0.065,-0.045
1681,-0.060,-0.045
1682,-0.050,-0.045
1683,-0.035,-0.045
1684,-0.025,-0.045
1685,-0.025,-0.040
1686,-0.025,-0.035
1687,-0.025,-0.035
1688,-0.025,-0.035
1689,-0.025,-0.030
1690,-0.020,-0.025
1691,-0.010,-0.025
1692,-0.005,-0.025
1693,-0.005,-0.020
1694,-0.005,-0.015
1695,-0.010,-0.010
1696,-0.005,-0.005
1697,0.010,-0.005
1698,0.020,-0.005
1699,0.030,0.000
1700,0.045,0.005
1701,0.060,0.010
1702,0.065,0.020
1703,0.070,0.030
1704,0.075,0.040
1705,0.080,0.050
1706,0.090,0.055
1707,0.100,0.060
1708,0.110,0.070
1709,0.125,0.085
1710,0.130,0.095
1711,0.135,0.105
1712,0.150,0.105
1713,0.165,0.105
1714,0.175,0.110
1715,0.185,0.115
1716,0.185,0.125
1717,0.185,0.135
1718,0.190,0.130
1719,0.195,0.125
1720,0.190,0.120
1721,0.185,0.115
1722,0.180,0.105
1723,0.170,0.095
1724,0.155,0.085
1725,0.135,0.070
1726,0.105,0.050
1727,0.080,0.030
1728,0.065,0.010
1729,0.050,-0.010
1730,0.025,-0.025
1731,0.010,-0.040
1732,-0.005,-0.055
1733,-0.020,-0.070
1734,-0.035,-0.085
1735,-0.050,-0.100
1736,-0.065,-0.110
1737,-0.075,-0.115
1738,-0.080,-0.120
1739,-0.085,-0.125
1740,-0.085,-0.130
1741,-0.085,-0.135
1742,-0.090,-0.135
1743,-0.095,-0.135
1744,-0.100,-0.135
1745,-0.105,-0.135
1746,-0.105,-0.140
1747,-0.105,-0.145
1748,-0.100,-0.145
1749,-0.095,-0.145
1750,-0.095,-0.145
1751,-0.090,-0.140
1752,-0.095,-0.135
1753,-0.095,-0.140
1754,-0.095,-0.145
1755,-0.090,-0.140
1756,-0.085,-0.135
1757,-0.080,-0.135
1758,-0.075,-0.135
1759,-0.080,-0.135
1760,-0.085,-0.135
1761,-0.080,-0.140
1762,-0.075,-0.145
1763,-0.070,-0.135
1764,-0.065,-0.125
1765,-0.065,-0.125
1766,-0.065,-0.125
1767,-0.065,-0.125
1768,-0.065,-0.125
1769,-0.060,-0.125
1770,-0.055,-0.125
1771,-0.055,-0.125
1772,-0.055,-0.125
1773,-0.055,-0.125
1774,-0.055,-0.125
1775,-0.055,-0.120
1776,-0.055,-0.115
1777,-0.060,-0.120
1778,-0.065,-0.125
1779,-0.060,-0.120
1780,-0.055,-0.115
1781,-0.050,-0.120
1782,-0.045,-0.125
1783,-0.050,-0.120
1784,-0.055,-0.115
1785,-0.060,-0.120
1786,-0.065,-0.125
1787,-0.065,-0.120
1788,-0.065,-0.115
1789,-0.065,-0.115
1790,-0.065,-0.115
1791,-0.070,-0.115
1792,-0.070,-0.120
1793,-0.065,-0.125
1794,-0.070,-0.125
1795,-0.075,-0.125
1796,-0.070,-0.120
1797,-0.065,-0.115
1798,-0.065,-0.120
1799,-0.065,-0.125
1800,-0.065,-0.125
1801,-0.065,-0.125
1802,-0.065,-0.125
1803,-0.065,-0.125
1804,-0.065,-0.125
1805,-0.065,-0.125
1806,-0.070,-0.125
1807,-0.075,-0.125
1808,-0.075,-0.130
1809,-0.075,-0.135
1810,-0.070,-0.130
1811,-0.065,-0.125
1812,-0.065,-0.125
1813,-0.065,-0.125
1814,-0.060,-0.125
1815,-0.055,-0.125
1816,-0.050,-0.125
1817,-0.040,-0.125
1818,-0.030,-0.120
1819,-0.025,-0.115
1820,-0.025,-0.110
1821,-0.020,-0.105
1822,-0.010,-0.100
1823,-0.005,-0.095
1824,0.000,-0.095
1825,0.015,-0.090
1826,0.030,-0.080
1827,0.035,-0.075
1828,0.040,-0.075
1829,0.045,-0.075
1830,0.040,-0.075
1831,0.035,-0.075
1832,0.035,-0.080
1833,0.035,-0.085
1834,0.025,-0.085
1835,0.010,-0.085
1836,-0.005,-0.085
1837,-0.005,-0.090
1838,-0.005,-0.095
1839,-0.025,-0.095
1840,-0.045,-0.095
1841,-0.050,-0.105
1842,-0.055,-0.115
1843,-0.060,-0.120
1844,-0.065,-0.125
1845,-0.070,-0.130
1846,-0.075,-0.135
1847,-0.075,-0.135
1848,-0.075,-0.135
1849,-0.075,-0.135
1850,-0.075,-0.135
1851,-0.085,-0.135
1852,-0.095,-0.135
1853,-0.090,-0.135
1854,-0.085,-0.135
1855,-0.085,-0.135
1856,-0.085,-0.135
1857,-0.080,-0.135
1858,-0.075,-0.135
1859,-0.075,-0.135
1860,-0.075,-0.135
1861,-0.075,-0.135
1862,-0.075,-0.135
1863,-0.080,-0.135
1864,-0.080,-0.135
1865,-0.070,-0.130
1866,-0.065,-0.125
1867,-0.070,-0.125
1868,-0.075,-0.125
1869,-0.070,-0.125
1870,-0.065,-0.125
1871,-0.060,-0.125
1872,-0.070,-0.125
1873,-0.090,-0.120
1874,-0.085,-0.115
1875,-0.095,-0.115
1876,0.085,-0.130
1877,0.245,-0.135
1878,0.540,-0.110
1879,0.825,-0.085
1880,1.085,-0.060
1881,1.280,-0.035
1882,1.090,-0.055
1883,0.875,-0.090
1884,0.550,-0.190
1885,0.220,-0.285
1886,-0.105,-0.375
1887,-0.330,-0.450
1888,-0.275,-0.475
1889,-0.205,-0.455
1890,-0.100,-0.325
1891,-0.030,-0.210
1892,-0.015,-0.115
1893,-0.005,-0.050
1894,-0.015,-0.035
1895,-0.025,-0.025
1896,-0.030,-0.030
1897,-0.035,-0.035
1898,-0.040,-0.035
1899,-0.045,-0.035
1900,-0.040,-0.040
1901,-0.035,-0.045
1902,-0.035,-0.040
1903,-0.035,-0.035
1904,-0.030,-0.035
1905,-0.025,-0.035
1906,-0.020,-0.035
1907,-0.015,-0.035
1908,-0.015,-0.030
1909,-0.015,-0.025
1910,-0.010,-0.025
1911,-0.005,-0.025
1912,0.000,-0.020
1913,0.005,-0.015
1914,0.000,-0.015
1915,0.000,-0.015
1916,0.010,-0.015
1917,0.020,-0.015
1918,0.025,-0.015
1919,0.025,-0.005
1920,0.025,0.005
1921,0.035,0.005
1922,0.045,0.005
1923,0.050,0.005
1924,0.055,0.005
1925,0.060,0.010
1926,0.065,0.015
1927,0.075,0.025
1928,0.085,0.035
1929,0.085,0.040
1930,0.085,0.045
1931,0.105,0.045
1932,0.115,0.050
1933,0.120,0.065
1934,0.130,0.075
1935,0.145,0.085
1936,0.155,0.095
1937,0.165,0.100
1938,0.180,0.110
1939,0.195,0.120
1940,0.210,0.130
1941,0.220,0.140
1942,0.230,0.150
1943,0.240,0.160
1944,0.245,0.165
1945,0.245,0.170
1946,0.250,0.175
1947,0.260,0.175
1948,0.265,0.175
1949,0.270,0.175
1950,0.275,0.175
1951,0.275,0.175
1952,0.275,0.170
1953,0.270,0.160
1954,0.245,0.145
1955,0.220,0.130
1956,0.195,0.110
1957,0.170,0.090
1958,0.140,0.070
1959,0.105,0.045
1960,0.065,0.020
1961,0.025,-0.005
1962,0.015,-0.020
1963,0.005,-0.035
1964,-0.010,-0.055
1965,-0.025,-0.075
1966,-0.040,-0.085
1967,-0.055,-0.095
1968,-0.060,-0.105
1969,-0.065,-0.115
1970,-0.075,-0.120
1971,-0.085,-0.125
1972,-0.090,-0.130
1973,-0.095,-0.135
1974,-0.095,-0.135
1975,-0.095,-0.135
1976,-0.105,-0.135
1977,-0.115,-0.135
1978,-0.110,-0.135
1979,-0.105,-0.135
1980,-0.100,-0.140
1981,-0.095,-0.145
1982,-0.100,-0.140
1983,-0.100,-0.135
1984,-0.090,-0.135
1985,-0.085,-0.135
1986,-0.090,-0.135
1987,-0.095,-0.135
1988,-0.100,-0.135
1989,-0.105,-0.135
1990,-0.100,-0.135
1991,-0.095,-0.135
1992,-0.100,-0.135
1993,-0.105,-0.135
1994,-0.100,-0.135
1995,-0.095,-0.135
1996,-0.090,-0.130
1997,-0.085,-0.125
1998,-0.085,-0.125
1999,-0.085,-0.125
2000,-0.085,-0.125
2001,-0.075,-0.120
2002,-0.075,-0.115
2003,-0.080,-0.115
2004,-0.085,-0.115
2005,-0.075,-0.115
2006,-0.065,-0.115
2007,-0.075,-0.115
2008,-0.085,-0.115
2009,-0.080,-0.110
2010,-0.075,-0.105
2011,-0.075,-0.110
2012,-0.075,-0.115
2013,-0.075,-0.110
2014,-0.075,-0.105
2015,-0.075,-0.110
2016,-0.075,-0.115
2017,-0.080,-0.120
2018,-0.085,-0.125
2019,-0.090,-0.125
2020,-0.095,-0.125
2021,-0.090,-0.120
2022,-0.085,-0.115
2023,-0.090,-0.115
2024,-0.095,-0.115
2025,-0.095,-0.120
2026,-0.095,-0.125
2027,-0.100,-0.130
2028,-0.105,-0.135
2029,-0.105,-0.130
2030,-0.105,-0.125
2031,-0.100,-0.125
2032,-0.095,-0.125
2033,-0.100,-0.130
2034,-0.105,-0.135
2035,-0.105,-0.135
2036,-0.105,-0.135
2037,-0.105,-0.130
2038,-0.105,-0.125
2039,-0.110,-0.125
2040,-0.115,-0.125
2041,-0.115,-0.130
2042,-0.110,-0.135
2043,-0.105,-0.135
2044,-0.105,-0.135
2045,-0.105,-0.135
2046,-0.100,-0.130
2047,-0.095,-0.125
2048,-0.100,-0.125
2049,-0.105,-0.125
2050,-0.100,-0.130
2051,-0.095,-0.135
2052,-0.095,-0.135
2053,-0.095,-0.135
2054,-0.095,-0.130
2055,-0.095,-0.125
2056,-0.075,-0.125
2057,-0.065,-0.125
2058,-0.065,-0.120
2059,-0.060,-0.115
2060,-0.045,-0.110
2061,-0.035,-0.105
2062,-0.035,-0.100
2063,-0.035,-0.095
2064,-0.030,-0.090
2065,-0.020,-0.085
2066,-0.005,-0.085
2067,0.005,-0.085
2068,0.005,-0.080
2069,0.005,-0.075
2070,0.000,-0.075
2071,-0.005,-0.075
2072,-0.005,-0.080
2073,-0.005,-0.090
2074,-0.010,-0.100
2075,-0.020,-0.105
2076,-0.030,-0.100
2077,-0.040,-0.095
2078,-0.050,-0.100
2079,-0.065,-0.105
2080,-0.080,-0.105
2081,-0.090,-0.110
2082,-0.100,-0.120
2083,-0.105,-0.125
2084,-0.105,-0.135
2085,-0.115,-0.135
2086,-0.125,-0.135
2087,-0.125,-0.140
2088,-0.125,-0.145
2089,-0.120,-0.145
2090,-0.115,-0.145
2091,-0.115,-0.140
2092,-0.115,-0.135
2093,-0.120,-0.135
2094,-0.125,-0.135
2095,-0.125,-0.140
2096,-0.125,-0.145
2097,-0.125,-0.145
2098,-0.125,-0.145
2099,-0.125,-0.145
2100,-0.125,-0.145
2101,-0.125,-0.140
2102,-0.125,-0.135
2103,-0.125,-0.135
2104,-0.125,-0.135
2105,-0.110,-0.135
2106,-0.105,-0.135
2107,-0.110,-0.130
2108,-0.115,-0.125
2109,-0.110,-0.125
2110,-0.105,-0.125
2111,-0.105,-0.125
2112,-0.125,-0.125
2113,-0.155,-0.125
2114,-0.140,-0.125
2115,-0.095,-0.130
2116,0.040,-0.135
2117,0.210,-0.130
2118,0.485,-0.105
2119,0.780,-0.080
2120,1.020,-0.075
2121,1.250,-0.070
2122,1.080,-0.085
2123,0.860,-0.110
2124,0.535,-0.210
2125,0.845,-0.115
2126,-0.120,-0.400
2127,-0.435,-0.485
2128,-0.335,-0.490
2129,-0.240,-0.485
2130,-0.150,-0.345
2131,-0.075,-0.215
2132,-0.070,-0.120
2133,-0.065,-0.045
2134,-0.080,-0.030
2135,-0.095,-0.015
2136,-0.095,-0.025
2137,-0.095,-0.035
2138,-0.090,-0.040
2139,-0.085,-0.045
2140,-0.085,-0.040
2141,-0.085,-0.035
2142,-0.085,-0.035
2143,-0.085,-0.035
2144,-0.080,-0.035
2145,-0.075,-0.035
2146,-0.075,-0.035
2147,-0.075,-0.035
2148,-0.075,-0.030
2149,-0.075,-0.025
2150,-0.070,-0.025
2151,-0.065,-0.025
2152,-0.060,-0.025
2153,-0.055,-0.025
2154,-0.050,-0.020
2155,-0.045,-0.015
2156,-0.040,-0.015
2157,-0.035,-0.015
2158,-0.030,-0.010
2159,-0.025,-0.005
2160,-0.025,-0.005
2161,-0.025,-0.005
2162,-0.020,0.000
2163,-0.015,0.010
2164,-0.010,0.020
2165,-0.005,0.025
2166,-0.005,0.025
2167,0.010,0.025
2168,0.025,0.025
2169,0.030,0.035
2170,0.035,0.045
2171,0.050,0.055
2172,0.065,0.065
2173,0.070,0.075
2174,0.075,0.085
2175,0.085,0.085
2176,0.095,0.085
2177,0.105,0.100
2178,0.115,0.115
2179,0.125,0.130
2180,0.135,0.145
2181,0.145,0.150
2182,0.160,0.155
2183,0.175,0.160
2184,0.185,0.165
2185,0.195,0.170
2186,0.205,0.175
2187,0.210,0.180
2188,0.215,0.185
2189,0.220,0.185
2190,0.225,0.185
2191,0.225,0.185
2192,0.220,0.180
2193,0.210,0.170
2194,0.195,0.160
2195,0.175,0.140
2196,0.155,0.125
2197,0.135,0.105
2198,0.110,0.080
2199,0.085,0.055
2200,0.055,0.030
2201,0.025,0.010
2202,0.005,-0.010
2203,-0.010,-0.030
2204,-0.035,-0.045
2205,-0.060,-0.060
2206,-0.075,-0.075
2207,-0.090,-0.090
2208,-0.100,-0.095
2209,-0.115,-0.105
2210,-0.125,-0.115
2211,-0.135,-0.125
2212,-0.135,-0.125
2213,-0.135,-0.125
2214,-0.135,-0.130
2215,-0.135,-0.135
2216,-0.135,-0.135
2217,-0.135,-0.135
2218,-0.135,-0.135
2219,-0.135,-0.135
2220,-0.135,-0.135
2221,-0.135,-0.135
2222,-0.135,-0.140
2223,-0.135,-0.145
2224,-0.135,-0.140
2225,-0.135,-0.135
2226,-0.140,-0.135
2227,-0.145,-0.135
2228,-0.140,-0.135
2229,-0.135,-0.135
2230,-0.135,-0.135
2231,-0.135,-0.135
2232,-0.130,-0.130
2233,-0.125,-0.125
2234,-0.125,-0.125
2235,-0.125,-0.125
2236,-0.125,-0.125
2237,-0.125,-0.125
2238,-0.125,-0.125
2239,-0.125,-0.125
2240,-0.125,-0.120
2241,-0.125,-0.115
2242,-0.130,-0.115
2243,-0.135,-0.115
2244,-0.130,-0.115
2245,-0.125,-0.115
2246,-0.120,-0.115
2247,-0.115,-0.115
2248,-0.115,-0.115
2249,-0.115,-0.115
2250,-0.115,-0.115
2251,-0.120,-0.115
2252,-0.125,-0.115
2253,-0.125,-0.115
2254,-0.125,-0.115
2255,-0.120,-0.115
2256,-0.115,-0.115
2257,-0.125,-0.120
2258,-0.135,-0.125
2259,-0.130,-0.125
2260,-0.125,-0.125
2261,-0.125,-0.125
2262,-0.125,-0.125
2263,-0.130,-0.125
2264,-0.135,-0.125
2265,-0.130,-0.125
2266,-0.125,-0.125
2267,-0.130,-0.130
2268,-0.135,-0.135
2269,-0.140,-0.135
2270,-0.145,-0.135
2271,-0.130,-0.130
2272,-0.130,-0.125
2273,-0.140,-0.125
2274,-0.145,-0.125
2275,-0.140,-0.130
2276,-0.135,-0.135
2277,-0.135,-0.135
2278,-0.135,-0.135
2279,-0.135,-0.130
2280,-0.135,-0.125
2281,-0.135,-0.125
2282,-0.135,-0.125
2283,-0.135,-0.130
2284,-0.135,-0.135
2285,-0.135,-0.135
2286,-0.135,-0.135
2287,-0.135,-0.130
2288,-0.135,-0.125
2289,-0.140,-0.130
2290,-0.145,-0.135
2291,-0.140,-0.135
2292,-0.130,-0.135
2293,-0.125,-0.135
2294,-0.125,-0.130
2295,-0.125,-0.125
2296,-0.110,-0.125
2297,-0.095,-0.125
2298,-0.095,-0.120
2299,-0.095,-0.115
2300,-0.090,-0.110
2301,-0.085,-0.105
2302,-0.075,-0.100
2303,-0.065,-0.095
2304,-0.065,-0.090
2305,-0.065,-0.085
2306,-0.055,-0.085
2307,-0.040,-0.085
2308,-0.025,-0.085
2309,-0.015,-0.085
2310,-0.010,-0.075
2311,-0.005,-0.065
2312,-0.015,-0.070
2313,-0.025,-0.075
2314,-0.020,-0.080
2315,-0.020,-0.085
2316,-0.035,-0.090
2317,-0.050,-0.095
2318,-0.060,-0.090
2319,-0.075,-0.090
2320,-0.095,-0.100
2321,-0.110,-0.105
2322,-0.120,-0.105
2323,-0.125,-0.110
2324,-0.130,-0.120
2325,-0.135,-0.125
2326,-0.140,-0.125
2327,-0.145,-0.125
2328,-0.145,-0.130
2329,-0.145,-0.135
2330,-0.150,-0.135
2331,-0.155,-0.135
2332,-0.160,-0.135
2333,-0.165,-0.135
2334,-0.155,-0.135
2335,-0.160,-0.135
2336,-0.165,-0.135
2337,-0.165,-0.140
2338,-0.165,-0.145
2339,-0.155,-0.145
2340,-0.145,-0.145
2341,-0.150,-0.140
2342,-0.155,-0.135
2343,-0.150,-0.130
2344,-0.145,-0.125
2345,-0.150,-0.130
2346,-0.155,-0.135
2347,-0.150,-0.135
2348,-0.145,-0.135
2349,-0.145,-0.135
2350,-0.145,-0.135
2351,-0.145,-0.130
2352,-0.145,-0.125
2353,-0.140,-0.125
2354,-0.140,-0.125
2355,-0.155,-0.130
2356,-0.165,-0.135
2357,-0.160,-0.130
2358,-0.085,-0.125
2359,0.045,-0.130
2360,0.245,-0.120
2361,0.490,-0.090
2362,0.765,-0.060
2363,1.050,-0.035
2364,1.065,-0.030
2365,0.960,-0.040
2366,0.685,-0.120
2367,0.360,-0.225
2368,0.030,-0.340
2369,-0.295,-0.465
2370,-0.360,-0.520
2371,-0.380,-0.570
2372,-0.280,-0.480
2373,-0.165,-0.375
2374,-0.130,-0.240
2375,-0.155,-0.365
2376,-0.100,-0.075
2377,-0.105,-0.045
2378,-0.115,-0.045
2379,-0.125,-0.045
2380,-0.120,-0.045
2381,-0.115,-0.045
2382,-0.120,-0.045
2383,-0.125,-0.045
2384,-0.120,-0.045
2385,-0.115,-0.045
2386,-0.115,-0.045
2387,-0.115,-0.045
2388,-0.110,-0.040
2389,-0.105,-0.035
2390,-0.100,-0.030
2391,-0.095,-0.025
2392,-0.090,-0.030
2393,-0.085,-0.035
2394,-0.090,-0.035
2395,-0.095,-0.035
2396,-0.090,-0.020
2397,-0.085,-0.015
2398,-0.085,-0.020
2399,-0.080,-0.020
2400,-0.070,-0.010
2401,-0.065,-0.005
2402,-0.065,-0.005
2403,-0.065,-0.005
2404,-0.065,0.000
2405,-0.055,0.005
2406,-0.035,0.010
2407,-0.025,0.015
2408,-0.025,0.015
2409,-0.025,0.015
2410,-0.025,0.020
2411,-0.020,0.025
2412,-0.010,0.030
2413,0.000,0.040
2414,0.010,0.050
2415,0.020,0.055
2416,0.030,0.060
2417,0.040,0.065
2418,0.045,0.065
2419,0.060,0.085
2420,0.075,0.105
2421,0.095,0.110
2422,0.115,0.115
2423,0.120,0.125
2424,0.125,0.135
2425,0.130,0.140
2426,0.135,0.145
2427,0.150,0.150
2428,0.165,0.155
2429,0.165,0.160
2430,0.165,0.165
2431,0.175,0.165
2432,0.185,0.165
2433,0.185,0.160
2434,0.185,0.155
2435,0.185,0.155
2436,0.180,0.150
2437,0.160,0.135
2438,0.135,0.115
2439,0.110,0.095
2440,0.080,0.075
2441,0.050,0.055
2442,0.025,0.035
2443,0.005,0.015
2444,-0.025,-0.010
2445,-0.060,-0.035
2446,-0.080,-0.055
2447,-0.090,-0.070
2448,-0.110,-0.080
2449,-0.130,-0.090
2450,-0.135,-0.095
2451,-0.140,-0.100
2452,-0.145,-0.110
2453,-0.150,-0.120
2454,-0.155,-0.125
2455,-0.160,-0.130
2456,-0.165,-0.135
2457,-0.165,-0.135
2458,-0.165,-0.135
2459,-0.165,-0.135
2460,-0.175,-0.135
2461,-0.185,-0.135
2462,-0.175,-0.140
2463,-0.165,-0.145
2464,-0.170,-0.145
2465,-0.175,-0.145
2466,-0.170,-0.140
2467,-0.165,-0.135
2468,-0.160,-0.135
2469,-0.155,-0.135
2470,-0.165,-0.135
2471,-0.175,-0.135
2472,-0.175,-0.140
2473,-0.175,-0.145
2474,-0.175,-0.140
2475,-0.175,-0.135
2476,-0.175,-0.135
2477,-0.175,-0.135
2478,-0.165,-0.135
2479,-0.155,-0.135
2480,-0.160,-0.135
2481,-0.160,-0.135
2482,-0.145,-0.130
2483,-0.135,-0.125
2484,-0.140,-0.125
2485,-0.150,-0.125
2486,-0.160,-0.125
2487,-0.160,-0.125
2488,-0.150,-0.130
2489,-0.145,-0.135
2490,-0.150,-0.130
2491,-0.155,-0.125
2492,-0.155,-0.125
2493,-0.155,-0.125
2494,-0.150,-0.125
2495,-0.145,-0.125
2496,-0.145,-0.125
2497,-0.145,-0.125
2498,-0.145,-0.125
2499,-0.145,-0.125
2500,-0.145,-0.125
2501,-0.145,-0.130
2502,-0.145,-0.135
2503,-0.150,-0.135
2504,-0.155,-0.135
2505,-0.160,-0.135
2506,-0.165,-0.135
2507,-0.160,-0.135
2508,-0.155,-0.135
2509,-0.160,-0.135
2510,-0.165,-0.135
2511,-0.165,-0.140
2512,-0.165,-0.145
2513,-0.165,-0.145
2514,-0.165,-0.145
2515,-0.165,-0.140
2516,-0.165,-0.135
2517,-0.170,-0.140
2518,-0.175,-0.145
2519,-0.170,-0.140
2520,-0.165,-0.135
2521,-0.160,-0.140
2522,-0.155,-0.145
2523,-0.160,-0.140
2524,-0.165,-0.135
2525,-0.160,-0.140
2526,-0.155,-0.145
2527,-0.155,-0.145
2528,-0.155,-0.145
2529,-0.160,-0.140
2530,-0.165,-0.135
2531,-0.160,-0.135
2532,-0.150,-0.135
2533,-0.140,-0.140
2534,-0.135,-0.145
2535,-0.130,-0.140
2536,-0.125,-0.135
2537,-0.125,-0.130
2538,-0.120,-0.125
2539,-0.110,-0.120
2540,-0.105,-0.115
2541,-0.105,-0.115
2542,-0.095,-0.110
2543,-0.085,-0.105
2544,-0.070,-0.105
2545,-0.055,-0.105
2546,-0.050,-0.090
2547,-0.045,-0.075
2548,-0.045,-0.085
2549,-0.045,-0.095
2550,-0.050,-0.100
2551,-0.055,-0.105
2552,-0.055,-0.105
2553,-0.060,-0.105
2554,-0.080,-0.100
2555,-0.095,-0.095
2556,-0.105,-0.100
2557,-0.120,-0.105
2558,-0.135,-0.115
2559,-0.145,-0.125
2560,-0.140,-0.130
2561,-0.135,-0.135
2562,-0.145,-0.140
2563,-0.155,-0.145
2564,-0.160,-0.145
2565,-0.170,-0.145
2566,-0.180,-0.150
2567,-0.175,-0.155
2568,-0.155,-0.155
2569,-0.150,-0.155
2570,-0.160,-0.150
2571,-0.165,-0.150
2572,-0.170,-0.160
2573,-0.175,-0.165
2574,-0.170,-0.165
2575,-0.165,-0.165
2576,-0.165,-0.160
2577,-0.165,-0.155
2578,-0.165,-0.155
2579,-0.165,-0.155
2580,-0.165,-0.155
2581,-0.165,-0.155
2582,-0.160,-0.155
2583,-0.155,-0.155
2584,-0.165,-0.145
2585,-0.165,-0.145
2586,-0.165,-0.145
2587,-0.155,-0.145
2588,-0.145,-0.145
2589,-0.145,-0.145
2590,-0.145,-0.145
2591,-0.170,-0.145
2592,-0.190,-0.145
2593,-0.155,-0.140
2594,-0.085,-0.135
2595,0.075,-0.140
2596,0.270,-0.135
2597,0.540,-0.095
2598,0.790,-0.040
2599,1.015,0.035
2600,1.090,0.085
2601,0.915,0.080
2602,0.675,0.015
2603,0.345,-0.135
2604,0.020,-0.265
2605,-0.310,-0.380
2606,-0.455,-0.460
2607,-0.430,-0.510
2608,-0.345,-0.495
2609,-0.225,-0.415
2610,-0.155,-0.315
2611,-0.120,-0.205
2612,-0.105,-0.135
2613,-0.110,-0.090
2614,-0.115,-0.075
2615,-0.120,-0.075
2616,-0.125,-0.075
2617,-0.125,-0.075
2618,-0.125,-0.075
2619,-0.130,-0.080
2620,-0.135,-0.085
2621,-0.130,-0.085
2622,-0.125,-0.085
2623,-0.120,-0.080
2624,-0.115,-0.075
2625,-0.115,-0.075
2626,-0.105,-0.075
2627,-0.105,-0.075
2628,-0.110,-0.075
2629,-0.115,-0.075
2630,-0.100,-0.070
2631,-0.085,-0.065
2632,-0.095,-0.065
2633,-0.105,-0.065
2634,-0.105,-0.065
2635,-0.105,-0.065
2636,-0.080,-0.060
2637,-0.065,-0.055
2638,-0.065,-0.050
2639,-0.065,-0.045
2640,-0.060,-0.045
2641,-0.055,-0.045
2642,-0.055,-0.040
2643,-0.055,-0.035
2644,-0.045,-0.035
2645,-0.035,-0.035
2646,-0.035,-0.030
2647,-0.030,-0.025
2648,-0.020,-0.020
2649,-0.015,-0.015
2650,-0.015,-0.010
2651,-0.010,-0.005
2652,0.000,0.000
2653,0.020,0.010
2654,0.045,0.020
2655,0.055,0.025
2656,0.055,0.030
2657,0.055,0.040
2658,0.060,0.050
2659,0.065,0.055
2660,0.070,0.060
2661,0.085,0.070
2662,0.100,0.080
2663,0.105,0.085
2664,0.110,0.085
2665,0.115,0.085
2666,0.115,0.090
2667,0.115,0.090
2668,0.115,0.085
2669,0.125,0.090
2670,0.135,0.095
2671,0.125,0.085
2672,0.115,0.075
2673,0.095,0.060
2674,0.075,0.045
2675,0.045,0.025
2676,0.025,0.005
2677,0.015,-0.010
2678,0.000,-0.025
2679,-0.030,-0.040
2680,-0.055,-0.060
2681,-0.060,-0.080
2682,-0.070,-0.095
2683,-0.090,-0.105
2684,-0.105,-0.115
2685,-0.115,-0.120
2686,-0.125,-0.125
2687,-0.130,-0.135
2688,-0.140,-0.145
2689,-0.150,-0.150
2690,-0.155,-0.155
2691,-0.155,-0.155
2692,-0.155,-0.155
2693,-0.150,-0.160
2694,-0.150,-0.165
2695,-0.160,-0.165
2696,-0.165,-0.165
2697,-0.165,-0.165
2698,-0.155,-0.165
2699,-0.140,-0.165
2700,-0.140,-0.165
2701,-0.150,-0.160
2702,-0.155,-0.155
2703,-0.155,-0.160
2704,-0.150,-0.165
2705,-0.140,-0.165
2706,-0.135,-0.165
2707,-0.135,-0.160
2708,-0.130,-0.155
2709,-0.115,-0.145
2710,-0.125,-0.150
2711,-0.135,-0.155
2712,-0.130,-0.155
2713,-0.125,-0.155
2714,-0.135,-0.150
2715,-0.145,-0.145
2716,-0.140,-0.140
2717,-0.135,-0.135
2718,-0.130,-0.140
2719,-0.125,-0.145
2720,-0.125,-0.145
2721,-0.125,-0.145
2722,-0.130,-0.145
2723,-0.135,-0.145
2724,-0.135,-0.140
2725,-0.135,-0.135
2726,-0.135,-0.140
2727,-0.135,-0.145
2728,-0.145,-0.150
2729,-0.155,-0.155
2730,-0.150,-0.150
2731,-0.145,-0.145
2732,-0.150,-0.145
2733,-0.155,-0.145
2734,-0.150,-0.145
2735,-0.145,-0.145
2736,-0.150,-0.145
2737,-0.155,-0.150
2738,-0.155,-0.160
2739,-0.155,-0.160
2740,-0.155,-0.150
2741,-0.155,-0.145
2742,-0.150,-0.150
2743,-0.150,-0.155
2744,-0.160,-0.155
2745,-0.165,-0.155
2746,-0.170,-0.155
2747,-0.170,-0.155
2748,-0.160,-0.155
2749,-0.155,-0.155
2750,-0.155,-0.155
2751,-0.170,-0.155
2752,-0.175,-0.155
2753,-0.165,-0.155
2754,-0.155,-0.155
2755,-0.160,-0.155
2756,-0.165,-0.155
2757,-0.165,-0.155
2758,-0.165,-0.155
2759,-0.160,-0.155
2760,-0.155,-0.155
2761,-0.160,-0.160
2762,-0.165,-0.165
2763,-0.150,-0.160
2764,-0.135,-0.155
2765,-0.130,-0.145
2766,-0.125,-0.135
2767,-0.125,-0.130
2768,-0.125,-0.125
2769,-0.120,-0.125
2770,-0.115,-0.125
2771,-0.100,-0.120
2772,-0.090,-0.115
2773,-0.080,-0.110
2774,-0.070,-0.105
2775,-0.060,-0.105
2776,-0.055,-0.105
2777,-0.050,-0.100
2778,-0.045,-0.095
2779,-0.040,-0.100
2780,-0.035,-0.105
2781,-0.040,-0.110
2782,-0.060,-0.115
2783,-0.080,-0.115
2784,-0.085,-0.115
2785,-0.090,-0.120
2786,-0.105,-0.125
2787,-0.120,-0.125
2788,-0.135,-0.130
2789,-0.150,-0.140
2790,-0.155,-0.145
2791,-0.160,-0.150
2792,-0.170,-0.160
2793,-0.175,-0.165
2794,-0.165,-0.165
2795,-0.155,-0.165
2796,-0.155,-0.165
2797,-0.155,-0.165
2798,-0.160,-0.165
2799,-0.165,-0.165
2800,-0.165,-0.165
2801,-0.165,-0.165
2802,-0.165,-0.160
2803,-0.165,-0.155
2804,-0.165,-0.160
2805,-0.165,-0.165
2806,-0.165,-0.160
2807,-0.165,-0.155
2808,-0.165,-0.160
2809,-0.165,-0.165
2810,-0.155,-0.160
2811,-0.145,-0.155
2812,-0.140,-0.155
2813,-0.135,-0.155
2814,-0.135,-0.155
2815,-0.135,-0.155
2816,-0.130,-0.155
2817,-0.125,-0.155
2818,-0.125,-0.150
2819,-0.145,-0.145
2820,-0.180,-0.145
2821,-0.175,-0.145
2822,-0.145,-0.150
2823,-0.015,-0.155
2824,0.155,-0.155
2825,0.425,-0.130
2826,0.720,-0.095
2827,0.960,-0.030
2828,1.185,0.035
2829,1.065,0.030
2830,0.890,0.010
2831,0.575,-0.105
2832,0.250,-0.230
2833,-0.080,-0.325
2834,-0.405,-0.425
2835,-0.400,-0.475
2836,-0.390,-0.525
2837,-0.265,-0.445
2838,-0.155,-0.365
2839,-0.120,-0.255
2840,-0.085,-0.150
2841,-0.090,-0.110
2842,-0.095,-0.075
2843,-0.095,-0.075
2844,-0.095,-0.075
2845,-0.095,-0.080
2846,-0.095,-0.085
2847,-0.100,-0.085
2848,-0.105,-0.085
2849,-0.100,-0.080
2850,-0.095,-0.075
2851,-0.100,-0.075
2852,-0.105,-0.075
2853,-0.105,-0.075
2854,-0.105,-0.075
2855,-0.090,-0.075
2856,-0.080,-0.075
2857,-0.070,-0.070
2858,-0.065,-0.065
2859,-0.060,-0.065
2860,-0.055,-0.065
2861,-0.055,-0.065
2862,-0.055,-0.065
2863,-0.055,-0.060
2864,-0.055,-0.055
2865,-0.050,-0.050
2866,-0.045,-0.045
2867,-0.050,-0.045
2868,-0.050,-0.045
2869,-0.040,-0.045
2870,-0.035,-0.045
2871,-0.030,-0.040
2872,-0.025,-0.035
2873,-0.020,-0.030
2874,-0.005,-0.025
2875,-0.015,-0.025
2876,0.015,-0.020
2877,0.015,-0.015
2878,0.020,-0.005
2879,0.025,0.005
2880,0.040,0.015
2881,0.055,0.025
2882,0.055,0.025
2883,0.055,0.025
2884,0.065,0.035
2885,0.075,0.045
2886,0.090,0.055
2887,0.105,0.065
2888,0.115,0.075
2889,0.125,0.085
2890,0.135,0.085
2891,0.145,0.090
2892,0.150,0.105
2893,0.155,0.115
2894,0.155,0.115
2895,0.155,0.115
2896,0.160,0.120
2897,0.165,0.120
2898,0.160,0.110
2899,0.150,0.100
2900,0.140,0.090
2901,0.130,0.085
2902,0.120,0.080
2903,0.105,0.065
2904,0.090,0.050
2905,0.075,0.035
2906,0.055,0.015
2907,0.030,-0.005
2908,0.010,-0.020
2909,-0.010,-0.040
2910,-0.030,-0.060
2911,-0.050,-0.075
2912,-0.070,-0.090
2913,-0.080,-0.100
2914,-0.090,-0.110
2915,-0.105,-0.115
2916,-0.120,-0.120
2917,-0.125,-0.135
2918,-0.125,-0.145
2919,-0.130,-0.145
2920,-0.135,-0.145
2921,-0.140,-0.145
2922,-0.145,-0.145
2923,-0.140,-0.150
2924,-0.135,-0.155
2925,-0.140,-0.155
2926,-0.145,-0.155
2927,-0.145,-0.150
2928,-0.145,-0.145
2929,-0.140,-0.145
2930,-0.135,-0.145
2931,-0.140,-0.145
2932,-0.145,-0.145
2933,-0.140,-0.150
2934,-0.135,-0.155
2935,-0.135,-0.150
2936,-0.135,-0.145
2937,-0.130,-0.145
2938,-0.125,-0.145
2939,-0.125,-0.145
2940,-0.125,-0.145
2941,-0.125,-0.145
2942,-0.125,-0.145
2943,-0.125,-0.145
2944,-0.125,-0.145
2945,-0.120,-0.140
2946,-0.120,-0.135
2947,-0.130,-0.135
2948,-0.130,-0.135
2949,-0.120,-0.140
2950,-0.115,-0.145
2951,-0.120,-0.140
2952,-0.125,-0.135
2953,-0.120,-0.130
2954,-0.115,-0.125
2955,-0.110,-0.125
2956,-0.105,-0.125
2957,-0.110,-0.130
2958,-0.115,-0.135
2959,-0.105,-0.135
2960,-0.105,-0.130
2961,-0.105,-0.125
2962,-0.110,-0.125
2963,-0.115,-0.125
2964,-0.115,-0.130
2965,-0.115,-0.135
2966,-0.115,-0.130
2967,-0.115,-0.125
2968,-0.115,-0.125
2969,-0.115,-0.125
2970,-0.115,-0.125
2971,-0.115,-0.125
2972,-0.120,-0.130
2973,-0.125,-0.135
2974,-0.125,-0.130
2975,-0.125,-0.125
2976,-0.125,-0.125
2977,-0.125,-0.125
2978,-0.125,-0.130
2979,-0.125,-0.135
2980,-0.125,-0.135
2981,-0.125,-0.135
2982,-0.125,-0.130
2983,-0.125,-0.125
2984,-0.120,-0.125
2985,-0.115,-0.125
2986,-0.120,-0.125
2987,-0.125,-0.125
2988,-0.130,-0.130
2989,-0.135,-0.135
2990,-0.130,-0.130
2991,-0.125,-0.125
2992,-0.130,-0.125
2993,-0.135,-0.125
2994,-0.130,-0.130
2995,-0.125,-0.135
2996,-0.125,-0.130
2997,-0.125,-0.125
2998,-0.120,-0.125
2999,-0.110,-0.125
3000,-0.115,-0.125
3001,-0.095,-0.125
3002,-0.095,-0.125
3003,-0.080,-0.120
3004,-0.065,-0.115
3005,-0.060,-0.105
3006,-0.055,-0.095
3007,-0.060,-0.090
3008,-0.065,-0.085
3009,-0.055,-0.085
3010,-0.045,-0.085
3011,-0.035,-0.080
3012,-0.025,-0.075
3013,-0.020,-0.075
3014,-0.015,-0.075
3015,-0.015,-0.080
3016,-0.015,-0.085
3017,-0.020,-0.090
3018,-0.025,-0.095
3019,-0.035,-0.095
3020,-0.045,-0.095
3021,-0.050,-0.095
3022,-0.065,-0.095
3023,-0.090,-0.095
3024,-0.105,-0.100
3025,-0.110,-0.110
3026,-0.115,-0.120
3027,-0.120,-0.130
3028,-0.125,-0.135
3029,-0.130,-0.135
3030,-0.135,-0.135
3031,-0.130,-0.135
3032,-0.125,-0.135
3033,-0.130,-0.135
3034,-0.135,-0.135
3035,-0.135,-0.135
3036,-0.135,-0.135
3037,-0.135,-0.135
3038,-0.140,-0.135
3039,-0.150,-0.135
3040,-0.155,-0.135
3041,-0.150,-0.135
3042,-0.140,-0.135
3043,-0.135,-0.135
3044,-0.135,-0.130
3045,-0.135,-0.125
3046,-0.130,-0.130
3047,-0.125,-0.135
3048,-0.125,-0.135
3049,-0.125,-0.135
3050,-0.125,-0.130
3051,-0.125,-0.125
3052,-0.120,-0.125
3053,-0.115,-0.125
3054,-0.125,-0.125
3055,-0.140,-0.125
3056,-0.175,-0.125
3057,-0.165,-0.125
3058,-0.080,-0.135
3059,0.065,-0.140
3060,0.290,-0.120
3061,0.545,-0.105
3062,0.845,-0.095
3063,1.070,-0.085
3064,1.225,-0.080
3065,1.120,-0.100
3066,0.790,-0.145
3067,0.465,-0.220
3068,0.135,-0.320
3069,-0.135,-0.405
3070,-0.370,-0.485
3071,-0.355,-0.475
3072,-0.225,-0.415
3073,-0.140,-0.295
3074,-0.080,-0.160
3075,-0.065,-0.085
3076,-0.065,-0.025
3077,-0.070,-0.015
3078,-0.080,-0.020
3079,-0.085,-0.025
3080,-0.090,-0.030
3081,-0.095,-0.035
3082,-0.095,-0.040
3083,-0.095,-0.045
3084,-0.085,-0.035
3085,-0.095,-0.035
3086,-0.105,-0.035
3087,-0.095,-0.035
3088,-0.085,-0.035
3089,-0.080,-0.035
3090,-0.075,-0.035
3091,-0.070,-0.030
3092,-0.065,-0.025
3093,-0.065,-0.020
3094,-0.065,-0.015
3095,-0.060,-0.015
3096,-0.055,-0.015
3097,-0.055,-0.015
3098,-0.055,-0.015
3099,-0.050,-0.010
3100,-0.045,-0.005
3101,-0.040,0.000
3102,-0.035,0.005
3103,-0.035,0.005
3104,-0.035,0.005
3105,-0.020,0.005
3106,-0.010,0.010
3107,0.000,0.020
3108,0.005,0.025
3109,0.010,0.030
3110,0.015,0.035
3111,0.020,0.040
3112,0.030,0.045
3113,0.040,0.050
3114,0.050,0.060
3115,0.060,0.070
3116,0.065,0.080
3117,0.070,0.090
3118,0.080,0.095
3119,0.090,0.100
3120,0.105,0.110
3121,0.120,0.120
3122,0.140,0.135
3123,0.160,0.150
3124,0.170,0.160
3125,0.165,0.155
3126,0.190,0.180
3127,0.195,0.185
3128,0.200,0.185
3129,0.205,0.185
3130,0.220,0.195
3131,0.235,0.205
3132,0.230,0.205
3133,0.225,0.205
3134,0.230,0.200
3135,0.235,0.195
3136,0.225,0.185
3137,0.215,0.175
3138,0.200,0.160
3139,0.180,0.140
3140,0.155,0.120
3141,0.130,0.100
3142,0.100,0.080
3143,0.075,0.055
3144,0.045,0.030
3145,0.020,0.010
3146,-0.005,-0.015
3147,-0.025,-0.030
3148,-0.045,-0.045
3149,-0.060,-0.060
3150,-0.075,-0.070
3151,-0.090,-0.080
3152,-0.100,-0.095
3153,-0.105,-0.105
3154,-0.110,-0.110
3155,-0.115,-0.115
3156,-0.120,-0.115
3157,-0.125,-0.115
3158,-0.130,-0.120
3159,-0.135,-0.125
3160,-0.130,-0.130
3161,-0.125,-0.135
3162,-0.125,-0.135
3163,-0.125,-0.135
3164,-0.130,-0.130
3165,-0.135,-0.125
3166,-0.135,-0.125
3167,-0.130,-0.125
3168,-0.125,-0.125
3169,-0.120,-0.125
3170,-0.115,-0.125
3171,-0.115,-0.125
3172,-0.115,-0.125
3173,-0.115,-0.125
3174,-0.115,-0.125
3175,-0.120,-0.120
3176,-0.125,-0.115
3177,-0.115,-0.115
3178,-0.105,-0.115
3179,-0.110,-0.115
3180,-0.115,-0.115
3181,-0.115,-0.110
3182,-0.115,-0.105
3183,-0.110,-0.110
3184,-0.105,-0.115
3185,-0.100,-0.110
3186,-0.095,-0.105
3187,-0.095,-0.100
3188,-0.095,-0.095
3189,-0.095,-0.100
3190,-0.095,-0.105
3191,-0.095,-0.105
3192,-0.095,-0.105
3193,-0.095,-0.105
3194,-0.095,-0.105
3195,-0.095,-0.100
3196,-0.095,-0.095
3197,-0.100,-0.100
3198,-0.105,-0.105
3199,-0.100,-0.110
3200,-0.095,-0.115
3201,-0.095,-0.110
3202,-0.095,-0.105
3203,-0.100,-0.105
3204,-0.105,-0.105
3205,-0.105,-0.110
3206,-0.105,-0.115
3207,-0.110,-0.115
3208,-0.115,-0.115
3209,-0.105,-0.115
3210,-0.110,-0.110
3211,-0.115,-0.105
3212,-0.115,-0.110
3213,-0.115,-0.115
3214,-0.115,-0.120
3215,-0.115,-0.125
3216,-0.115,-0.120
3217,-0.115,-0.115
3218,-0.115,-0.115
3219,-0.115,-0.115
3220,-0.115,-0.115
3221,-0.115,-0.115
3222,-0.115,-0.115
3223,-0.115,-0.115
3224,-0.115,-0.115
3225,-0.115,-0.115
3226,-0.115,-0.115
3227,-0.115,-0.115
3228,-0.120,-0.115
3229,-0.125,-0.115
3230,-0.120,-0.115
3231,-0.115,-0.115
3232,-0.115,-0.115
3233,-0.115,-0.115
3234,-0.115,-0.115
3235,-0.110,-0.115
3236,-0.095,-0.115
3237,-0.085,-0.115
3238,-0.080,-0.110
3239,-0.075,-0.100
3240,-0.070,-0.090
3241,-0.065,-0.085
3242,-0.060,-0.085
3243,-0.055,-0.080
3244,-0.055,-0.070
3245,-0.040,-0.065
3246,-0.020,-0.065
3247,-0.010,-0.065
3248,0.000,-0.065
3249,0.005,-0.065
3250,0.005,-0.065
3251,-0.005,-0.065
3252,-0.015,-0.065
3253,-0.010,-0.070
3254,-0.005,-0.075
3255,-0.020,-0.075
3256,-0.035,-0.075
3257,-0.050,-0.080
3258,-0.065,-0.085
3259,-0.080,-0.085
3260,-0.095,-0.085
3261,-0.100,-0.095
3262,-0.105,-0.105
3263,-0.110,-0.110
3264,-0.115,-0.115
3265,-0.120,-0.120
3266,-0.125,-0.125
3267,-0.125,-0.125
3268,-0.125,-0.125
3269,-0.125,-0.125
3270,-0.125,-0.125
3271,-0.125,-0.120
3272,-0.130,-0.115
3273,-0.140,-0.120
3274,-0.145,-0.125
3275,-0.145,-0.125
3276,-0.140,-0.125
3277,-0.130,-0.125
3278,-0.125,-0.125
3279,-0.125,-0.125
3280,-0.125,-0.125
3281,-0.125,-0.125
3282,-0.125,-0.125
3283,-0.125,-0.125
3284,-0.125,-0.125
3285,-0.125,-0.120
3286,-0.120,-0.115
3287,-0.110,-0.110
3288,-0.105,-0.105
3289,-0.110,-0.105
3290,-0.115,-0.105
3291,-0.110,-0.110
3292,-0.130,-0.110
3293,-0.155,-0.105
3294,-0.100,-0.110
3295,-0.035,-0.115
3296,0.145,-0.105
3297,0.340,-0.095
3298,0.625,-0.075
3299,0.895,-0.055
3300,1.095,-0.055
3301,1.190,-0.060
3302,0.885,-0.090
3303,0.570,-0.145
3304,0.245,-0.260
3305,-0.060,-0.375
3306,-0.305,-0.470
3307,-0.420,-0.525
3308,-0.285,-0.495
3309,-0.180,-0.415
3310,-0.105,-0.255
3311,-0.065,-0.135
3312,-0.065,-0.065
3313,-0.070,-0.025
3314,-0.080,-0.020
3315,-0.085,-0.015
3316,-0.085,-0.020
3317,-0.085,-0.025
3318,-0.085,-0.025
3319,-0.085,-0.025
3320,-0.085,-0.025
3321,-0.085,-0.025
3322,-0.080,-0.025
3323,-0.075,-0.025
3324,-0.075,-0.020
3325,-0.070,-0.015
3326,-0.060,-0.010
3327,-0.055,-0.005
3328,-0.055,-0.010
3329,-0.055,-0.015
3330,-0.055,-0.010
3331,-0.055,-0.005
3332,-0.050,0.000
3333,-0.045,0.005
3334,-0.045,0.005
3335,-0.040,0.005
3336,-0.035,0.005
3337,-0.030,0.010
3338,-0.025,0.015
3339,-0.020,0.015
3340,-0.015,0.015
3341,-0.010,0.020
3342,-0.005,0.025
3343,0.000,0.030
3344,0.005,0.035
3345,0.010,0.040
3346,0.015,0.045
3347,0.020,0.050
3348,0.030,0.055
3349,0.045,0.060
3350,0.055,0.065
3351,0.055,0.075
3352,0.060,0.085
3353,0.075,0.095
3354,0.085,0.105
3355,0.100,0.110
3356,0.110,0.120
3357,0.125,0.130
3358,0.140,0.140
3359,0.150,0.150
3360,0.160,0.160
3361,0.170,0.170
3362,0.180,0.175
3363,0.190,0.175
3364,0.200,0.180
3365,0.210,0.190
3366,0.215,0.195
3367,0.215,0.200
3368,0.215,0.205
3369,0.220,0.205
3370,0.225,0.205
3371,0.225,0.200
3372,0.225,0.195
3373,0.220,0.190
3374,0.205,0.175
3375,0.215,0.185
3376,0.150,0.135
3377,0.115,0.115
3378,0.090,0.085
3379,0.065,0.055
3380,0.045,0.035
3381,0.025,0.015
3382,0.000,-0.005
3383,-0.025,-0.025
3384,-0.040,-0.040
3385,-0.055,-0.055
3386,-0.065,-0.070
3387,-0.075,-0.085
3388,-0.085,-0.090
3389,-0.095,-0.095
3390,-0.105,-0.100
3391,-0.115,-0.105
3392,-0.115,-0.110
3393,-0.115,-0.115
3394,-0.120,-0.120
3395,-0.125,-0.125
3396,-0.125,-0.125
3397,-0.125,-0.125
3398,-0.130,-0.130
3399,-0.135,-0.135
3400,-0.130,-0.135
3401,-0.125,-0.135
3402,-0.125,-0.130
3403,-0.125,-0.125
3404,-0.125,-0.125
3405,-0.125,-0.125
3406,-0.125,-0.125
3407,-0.125,-0.125
3408,-0.125,-0.125
3409,-0.125,-0.125
3410,-0.120,-0.130
3411,-0.115,-0.130
3412,-0.115,-0.120
3413,-0.115,-0.115
3414,-0.120,-0.115
3415,-0.125,-0.115
3416,-0.125,-0.115
3417,-0.115,-0.115
3418,-0.105,-0.115
3419,-0.105,-0.115
3420,-0.105,-0.115
3421,-0.110,-0.115
3422,-0.115,-0.115
3423,-0.115,-0.110
3424,-0.115,-0.105
3425,-0.110,-0.105
3426,-0.105,-0.105
3427,-0.105,-0.105
3428,-0.105,-0.105
3429,-0.110,-0.110
3430,-0.115,-0.115
3431,-0.115,-0.110
3432,-0.115,-0.105
3433,-0.115,-0.110
3434,-0.115,-0.115
3435,-0.115,-0.110
3436,-0.115,-0.105
3437,-0.120,-0.110
3438,-0.125,-0.115
3439,-0.125,-0.115
3440,-0.125,-0.115
3441,-0.130,-0.115
3442,-0.135,-0.115
3443,-0.130,-0.115
3444,-0.130,-0.115
3445,-0.140,-0.115
3446,-0.145,-0.115
3447,-0.140,-0.120
3448,-0.135,-0.125
3449,-0.135,-0.125
3450,-0.135,-0.125
3451,-0.135,-0.120
3452,-0.135,-0.115
3453,-0.135,-0.120
3454,-0.135,-0.125
3455,-0.135,-0.130
3456,-0.135,-0.135
3457,-0.140,-0.130
3458,-0.145,-0.125
3459,-0.135,-0.125
3460,-0.145,-0.125
3461,-0.155,-0.125
3462,-0.145,-0.130
3463,-0.135,-0.135
3464,-0.140,-0.130
3465,-0.145,-0.125
3466,-0.135,-0.125
3467,-0.125,-0.125
3468,-0.125,-0.125
3469,-0.125,-0.125
3470,-0.125,-0.125
3471,-0.125,-0.125
3472,-0.120,-0.130
3473,-0.115,-0.135
3474,-0.105,-0.125
3475,-0.095,-0.115
3476,-0.095,-0.110
3477,-0.095,-0.105
3478,-0.085,-0.100
3479,-0.075,-0.095
3480,-0.075,-0.090
3481,-0.065,-0.085
3482,-0.045,-0.085
3483,-0.035,-0.085
3484,-0.030,-0.080
3485,-0.025,-0.075
3486,-0.025,-0.070
3487,-0.025,-0.070
3488,-0.025,-0.080
3489,-0.025,-0.085
3490,-0.025,-0.085
3491,-0.035,-0.085
3492,-0.050,-0.085
3493,-0.065,-0.085
3494,-0.080,-0.090
3495,-0.095,-0.095
3496,-0.110,-0.100
3497,-0.115,-0.105
3498,-0.115,-0.110
3499,-0.120,-0.115
3500,-0.115,-0.115
3501,-0.135,-0.130
3502,-0.135,-0.135
3503,-0.135,-0.135
3504,-0.135,-0.135
3505,-0.140,-0.135
3506,-0.145,-0.135
3507,-0.150,-0.135
3508,-0.155,-0.135
3509,-0.155,-0.135
3510,-0.155,-0.135
3511,-0.150,-0.140
3512,-0.145,-0.145
3513,-0.145,-0.140
3514,-0.145,-0.135
3515,-0.145,-0.135
3516,-0.145,-0.135
3517,-0.145,-0.135
3518,-0.145,-0.135
3519,-0.145,-0.135
3520,-0.145,-0.135
3521,-0.140,-0.135
3522,-0.135,-0.135
3523,-0.130,-0.130
3524,-0.125,-0.125
3525,-0.130,-0.125
3526,-0.135,-0.125
3527,-0.135,-0.125
3528,-0.145,-0.125
3529,-0.165,-0.125
3530,-0.110,-0.125
3531,-0.010,-0.130
3532,0.165,-0.120
3533,0.370,-0.100
3534,0.635,-0.070
3535,0.920,-0.035
3536,1.060,0.005
3537,1.170,0.050
3538,0.895,0.000
3539,0.570,-0.070
3540,0.240,-0.205
3541,-0.085,-0.350
3542,-0.300,-0.440
3543,-0.505,-0.525
3544,-0.370,-0.515
3545,-0.240,-0.495
3546,-0.165,-0.370
3547,-0.095,-0.245
3548,-0.090,-0.155
3549,-0.085,-0.075
3550,-0.095,-0.065
3551,-0.105,-0.055
3552,-0.110,-0.055
3553,-0.115,-0.055
3554,-0.115,-0.055
3555,-0.115,-0.055
3556,-0.110,-0.060
3557,-0.105,-0.065
3558,-0.105,-0.060
3559,-0.105,-0.055
3560,-0.095,-0.055
3561,-0.085,-0.055
3562,-0.085,-0.050
3563,-0.085,-0.045
3564,-0.085,-0.045
3565,-0.085,-0.045
3566,-0.080,-0.045
3567,-0.075,-0.040
3568,-0.075,-0.030
3569,-0.075,-0.025
3570,-0.080,-0.030
3571,-0.080,-0.035
3572,-0.070,-0.030
3573,-0.065,-0.025
3574,-0.060,-0.025
3575,-0.050,-0.020
3576,-0.040,-0.010
3577,-0.035,-0.005
3578,-0.030,-0.010
3579,-0.025,-0.015
3580,-0.020,-0.010
3581,-0.015,-0.005
3582,-0.015,-0.005
3583,-0.010,0.000
3584,0.005,0.015
3585,0.010,0.020
3586,0.015,0.025
3587,0.020,0.025
3588,0.025,0.025
3589,0.040,0.035
3590,0.055,0.045
3591,0.070,0.055
3592,0.085,0.065
3593,0.090,0.075
3594,0.095,0.085
3595,0.105,0.090
3596,0.115,0.095
3597,0.130,0.100
3598,0.145,0.105
3599,0.155,0.115
3600,0.165,0.125
3601,0.165,0.130
3602,0.170,0.135
3603,0.185,0.140
3604,0.195,0.145
3605,0.190,0.140
3606,0.185,0.135
3607,0.185,0.135
3608,0.185,0.130
3609,0.180,0.120
3610,0.160,0.110
3611,0.135,0.095
3612,0.115,0.075
3613,0.095,0.060
3614,0.065,0.045
3615,0.035,0.020
3616,0.010,0.000
3617,-0.020,-0.020
3618,-0.035,-0.040
3619,-0.050,-0.060
3620,-0.060,-0.075
3621,-0.070,-0.090
3622,-0.085,-0.100
3623,-0.100,-0.110
3624,-0.110,-0.115
3625,-0.105,-0.115
3626,-0.125,-0.135
3627,-0.125,-0.145
3628,-0.135,-0.145
3629,-0.145,-0.145
3630,-0.145,-0.145
3631,-0.145,-0.145
3632,-0.150,-0.145
3633,-0.155,-0.145
3634,-0.145,-0.150
3635,-0.135,-0.155
3636,-0.135,-0.150
3637,-0.135,-0.145
3638,-0.130,-0.145
3639,-0.125,-0.145
3640,-0.130,-0.140
3641,-0.135,-0.135
3642,-0.125,-0.140
3643,-0.115,-0.145
3644,-0.120,-0.145
3645,-0.125,-0.145
3646,-0.120,-0.140
3647,-0.120,-0.135
3648,-0.130,-0.135
3649,-0.135,-0.135
3650,-0.130,-0.140
3651,-0.120,-0.145
3652,-0.110,-0.140
3653,-0.105,-0.130
3654,-0.105,-0.120
3655,-0.105,-0.115
3656,-0.100,-0.120
3657,-0.095,-0.125
3658,-0.095,-0.130
3659,-0.095,-0.135
3660,-0.095,-0.135
3661,-0.100,-0.135
3662,-0.110,-0.130
3663,-0.120,-0.125
3664,-0.130,-0.125
3665,-0.125,-0.125
3666,-0.110,-0.130
3667,-0.110,-0.135
3668,-0.115,-0.135
3669,-0.115,-0.130
3670,-0.115,-0.125
3671,-0.105,-0.130
3672,-0.095,-0.135
3673,-0.105,-0.135
3674,-0.115,-0.135
3675,-0.120,-0.135
3676,-0.125,-0.135
3677,-0.125,-0.135
3678,-0.125,-0.135
3679,-0.125,-0.135
3680,-0.125,-0.135
3681,-0.130,-0.140
3682,-0.135,-0.145
3683,-0.130,-0.150
3684,-0.125,-0.155
3685,-0.125,-0.150
3686,-0.125,-0.145
3687,-0.130,-0.145
3688,-0.135,-0.145
3689,-0.135,-0.145
3690,-0.135,-0.145
3691,-0.130,-0.150
3692,-0.125,-0.155
3693,-0.125,-0.150
3694,-0.125,-0.145
3695,-0.130,-0.140
3696,-0.135,-0.135
3697,-0.130,-0.140
3698,-0.120,-0.145
3699,-0.110,-0.145
3700,-0.100,-0.145
3701,-0.090,-0.140
3702,-0.085,-0.135
3703,-0.080,-0.130
3704,-0.075,-0.125
3705,-0.080,-0.120
3706,-0.080,-0.115
3707,-0.070,-0.115
3708,-0.065,-0.115
3709,-0.055,-0.105
3710,-0.030,-0.100
3711,-0.005,-0.095
3712,-0.015,-0.095
3713,-0.025,-0.095
3714,-0.015,-0.095
3715,-0.005,-0.095
3716,-0.005,-0.100
3717,-0.005,-0.105
3718,-0.015,-0.100
3719,-0.025,-0.095
3720,-0.040,-0.100
3721,-0.055,-0.105
3722,-0.070,-0.110
3723,-0.085,-0.115
3724,-0.090,-0.120
3725,-0.095,-0.125
3726,-0.105,-0.130
3727,-0.115,-0.135
3728,-0.125,-0.140
3729,-0.135,-0.145
3730,-0.130,-0.150
3731,-0.125,-0.155
3732,-0.130,-0.155
3733,-0.135,-0.155
3734,-0.135,-0.155
3735,-0.135,-0.155
3736,-0.135,-0.155
3737,-0.135,-0.155
3738,-0.135,-0.155
3739,-0.135,-0.155
3740,-0.130,-0.155
3741,-0.125,-0.155
3742,-0.120,-0.155
3743,-0.120,-0.155
3744,-0.130,-0.150
3745,-0.130,-0.145
3746,-0.120,-0.150
3747,-0.115,-0.155
3748,-0.120,-0.150
3749,-0.125,-0.145
3750,-0.125,-0.145
3751,-0.105,-0.145
3752,-0.095,-0.145
3753,-0.095,-0.145
3754,-0.095,-0.145
3755,-0.105,-0.145
3756,-0.115,-0.145
3757,-0.150,-0.140
3758,-0.160,-0.135
3759,-0.080,-0.140
3760,0.030,-0.145
3761,0.235,-0.135
3762,0.465,-0.115
3763,0.750,-0.070
3764,0.990,-0.015
3765,1.140,0.060
3766,1.120,0.085
3767,0.800,0.015
3768,0.480,-0.085
3769,0.150,-0.240
3770,-0.135,-0.360
3771,-0.375,-0.445
3772,-0.435,-0.490
3773,-0.310,-0.505
3774,-0.210,-0.450
3775,-0.130,-0.335
3776,-0.085,-0.235
3777,-0.065,-0.145
3778,-0.065,-0.095
3779,-0.080,-0.065
3780,-0.085,-0.055
3781,-0.085,-0.060
3782,-0.085,-0.065
3783,-0.080,-0.070
3784,-0.075,-0.075
3785,-0.075,-0.075
3786,-0.075,-0.075
3787,-0.075,-0.070
3788,-0.075,-0.065
3789,-0.070,-0.065
3790,-0.065,-0.065
3791,-0.065,-0.065
3792,-0.060,-0.065
3793,-0.055,-0.065
3794,-0.050,-0.060
3795,-0.045,-0.055
3796,-0.040,-0.050
3797,-0.035,-0.045
3798,-0.030,-0.045
3799,-0.025,-0.045
3800,-0.025,-0.045
3801,-0.025,-0.045
3802,-0.025,-0.040
3803,-0.025,-0.035
3804,-0.025,-0.030
3805,-0.025,-0.025
3806,-0.020,-0.020
3807,-0.010,-0.015
3808,0.005,-0.020
3809,0.015,-0.025
3810,0.025,-0.015
3811,0.035,-0.005
3812,0.040,0.000
3813,0.045,0.005
3814,0.045,0.010
3815,0.050,0.015
3816,0.060,0.020
3817,0.075,0.030
3818,0.095,0.040
3819,0.105,0.050
3820,0.105,0.060
3821,0.110,0.070
3822,0.120,0.080
3823,0.125,0.085
3824,0.130,0.090
3825,0.145,0.095
3826,0.160,0.100
3827,0.170,0.110
3828,0.180,0.120
3829,0.185,0.125
3830,0.180,0.125
3831,0.180,0.125
3832,0.190,0.125
3833,0.195,0.125
3834,0.195,0.125
3835,0.180,0.115
3836,0.165,0.105
3837,0.160,0.095
3838,0.155,0.085
3839,0.135,0.070
3840,0.115,0.055
3841,0.100,0.035
3842,0.080,0.015
3843,0.055,-0.005
3844,0.030,-0.025
3845,0.005,-0.040
3846,-0.015,-0.060
3847,-0.025,-0.080
3848,-0.040,-0.095
3849,-0.055,-0.100
3850,-0.070,-0.105
3851,-0.085,-0.110
3852,-0.095,-0.115
3853,-0.090,-0.125
3854,-0.085,-0.135
3855,-0.100,-0.140
3856,-0.105,-0.145
3857,-0.100,-0.140
3858,-0.095,-0.135
3859,-0.100,-0.135
3860,-0.105,-0.135
3861,-0.105,-0.140
3862,-0.100,-0.145
3863,-0.090,-0.145
3864,-0.085,-0.145
3865,-0.085,-0.140
3866,-0.085,-0.135
3867,-0.090,-0.135
3868,-0.095,-0.135
3869,-0.100,-0.135
3870,-0.100,-0.135
3871,-0.090,-0.140
3872,-0.085,-0.145
3873,-0.085,-0.140
3874,-0.085,-0.135
3875,-0.085,-0.135
3876,-0.075,-0.130
3877,-0.065,-0.125
3878,-0.070,-0.130
3879,-0.075,-0.135
3880,-0.075,-0.125
3881,-0.075,-0.115
3882,-0.070,-0.115
3883,-0.065,-0.115
3884,-0.070,-0.120
3885,-0.075,-0.125
3886,-0.075,-0.125
3887,-0.075,-0.125
3888,-0.075,-0.120
3889,-0.075,-0.115
3890,-0.075,-0.115
3891,-0.075,-0.115
3892,-0.085,-0.115
3893,-0.095,-0.115
3894,-0.085,-0.115
3895,-0.075,-0.115
3896,-0.070,-0.115
3897,-0.070,-0.115
3898,-0.085,-0.115
3899,-0.095,-0.115
3900,-0.090,-0.120
3901,-0.085,-0.125
3902,-0.085,-0.125
3903,-0.085,-0.125
3904,-0.080,-0.125
3905,-0.075,-0.125
3906,-0.075,-0.125
3907,-0.080,-0.125
3908,-0.090,-0.120
3909,-0.095,-0.115
3910,-0.095,-0.120
3911,-0.095,-0.125
3912,-0.095,-0.125
3913,-0.095,-0.125
3914,-0.090,-0.125
3915,-0.090,-0.125
3916,-0.100,-0.130
3917,-0.100,-0.135
3918,-0.095,-0.135
3919,-0.095,-0.130
3920,-0.095,-0.125
3921,-0.085,-0.130
3922,-0.075,-0.135
3923,-0.080,-0.130
3924,-0.085,-0.125
3925,-0.070,-0.125
3926,-0.055,-0.125
3927,-0.055,-0.115
3928,-0.055,-0.105
3929,-0.050,-0.100
3930,-0.045,-0.095
3931,-0.045,-0.095
3932,-0.045,-0.095
3933,-0.035,-0.095
3934,-0.020,-0.095
3935,0.000,-0.090
3936,0.015,-0.085
3937,0.015,-0.080
3938,0.010,-0.075
3939,0.000,-0.080
3940,-0.005,-0.085
3941,0.000,-0.090
3942,-0.005,-0.095
3943,-0.025,-0.095
3944,-0.040,-0.095
3945,-0.050,-0.095
3946,-0.060,-0.100
3947,-0.070,-0.110
3948,-0.075,-0.115
3949,-0.080,-0.120
3950,-0.085,-0.125
3951,-0.090,-0.130
3952,-0.095,-0.135
3953,-0.100,-0.135
3954,-0.105,-0.135
3955,-0.100,-0.140
3956,-0.095,-0.145
3957,-0.100,-0.145
3958,-0.105,-0.145
3959,-0.105,-0.145
3960,-0.105,-0.140
3961,-0.105,-0.135
3962,-0.110,-0.140
3963,-0.115,-0.145
3964,-0.110,-0.145
3965,-0.105,-0.145
3966,-0.100,-0.140
3967,-0.095,-0.135
3968,-0.100,-0.140
3969,-0.105,-0.145
3970,-0.100,-0.140
3971,-0.095,-0.135
3972,-0.095,-0.140
3973,-0.095,-0.145
3974,-0.090,-0.140
3975,-0.085,-0.135
3976,-0.085,-0.135
3977,-0.085,-0.135
3978,-0.085,-0.135
3979,-0.085,-0.135
3980,-0.085,-0.130
3981,-0.095,-0.125
3982,-0.120,-0.125
3983,-0.080,-0.125
3984,0.015,-0.130
3985,0.195,-0.125
3986,0.425,-0.105
3987,0.710,-0.070
3988,1.015,-0.030
3989,1.145,0.010
3990,1.200,0.055
3991,0.965,0.000
3992,0.640,-0.085
3993,0.310,-0.205
3994,-0.015,-0.335
3995,-0.210,-0.425
3996,-0.375,-0.505
3997,-0.270,-0.470
3998,-0.135,-0.420
3999,-0.085,-0.295
4000,-0.125,-0.415
4001,-0.035,-0.115
4002,-0.035,-0.065
4003,-0.045,-0.060
4004,-0.055,-0.055
4005,-0.055,-0.060
4006,-0.055,-0.065
4007,-0.055,-0.065
4008,-0.055,-0.065
4009,-0.055,-0.065
4010,-0.055,-0.065
4011,-0.050,-0.065
4012,-0.045,-0.065
4013,-0.040,-0.060
4014,-0.035,-0.055
4015,-0.030,-0.055
4016,-0.025,-0.055
4017,-0.025,-0.055
4018,-0.025,-0.055
4019,-0.020,-0.050
4020,-0.015,-0.045
4021,-0.010,-0.045
4022,-0.005,-0.045
4023,-0.010,-0.045
4024,-0.015,-0.045
4025,-0.015,-0.040
4026,-0.010,-0.035
4027,0.000,-0.035
4028,0.005,-0.035
4029,0.010,-0.030
4030,0.015,-0.025
4031,0.020,-0.025
4032,0.025,-0.025
4033,0.025,-0.020
4034,0.025,-0.015
4035,0.030,-0.015
4036,0.040,-0.010
4037,0.050,0.000
4038,0.055,0.005
4039,0.060,0.010
4040,0.070,0.015
4041,0.080,0.020
4042,0.095,0.035
4043,0.105,0.045
4044,0.115,0.055
4045,0.125,0.065
4046,0.130,0.070
4047,0.135,0.075
4048,0.150,0.085
4049,0.165,0.095
4050,0.170,0.100
4051,0.175,0.105
4052,0.180,0.115
4053,0.185,0.125
4054,0.195,0.130
4055,0.205,0.135
4056,0.200,0.140
4057,0.195,0.145
4058,0.205,0.135
4059,0.215,0.125
4060,0.210,0.125
4061,0.205,0.125
4062,0.195,0.115
4063,0.175,0.095
4064,0.150,0.075
4065,0.125,0.055
4066,0.100,0.030
4067,0.075,0.010
4068,0.055,-0.005
4069,0.030,-0.025
4070,0.005,-0.045
4071,-0.015,-0.065
4072,-0.030,-0.080
4073,-0.040,-0.095
4074,-0.050,-0.110
4075,-0.060,-0.115
4076,-0.070,-0.115
4077,-0.075,-0.120
4078,-0.080,-0.130
4079,-0.085,-0.135
4080,-0.090,-0.135
4081,-0.095,-0.135
4082,-0.100,-0.140
4083,-0.105,-0.145
4084,-0.105,-0.135
4085,-0.110,-0.140
4086,-0.115,-0.145
4087,-0.110,-0.150
4088,-0.105,-0.155
4089,-0.105,-0.150
4090,-0.105,-0.145
4091,-0.105,-0.145
4092,-0.105,-0.145
4093,-0.100,-0.145
4094,-0.095,-0.145
4095,-0.095,-0.145
4096,-0.095,-0.145
4097,-0.095,-0.140
4098,-0.095,-0.135
4099,-0.095,-0.140
4100,-0.095,-0.145
4101,-0.095,-0.140
4102,-0.095,-0.135
4103,-0.095,-0.140
4104,-0.095,-0.145
4105,-0.090,-0.145
4106,-0.085,-0.145
4107,-0.085,-0.140
4108,-0.085,-0.135
4109,-0.080,-0.135
4110,-0.075,-0.135
4111,-0.075,-0.135
4112,-0.075,-0.135
4113,-0.080,-0.135
4114,-0.085,-0.135
4115,-0.080,-0.130
4116,-0.075,-0.125
4117,-0.080,-0.130
4118,-0.085,-0.135
4119,-0.085,-0.135
4120,-0.085,-0.135
4121,-0.085,-0.135
4122,-0.085,-0.135
4123,-0.080,-0.130
4124,-0.075,-0.125
4125,-0.075,-0.125
4126,-0.085,-0.135
4127,-0.085,-0.135
4128,-0.085,-0.135
4129,-0.085,-0.135
4130,-0.085,-0.130
4131,-0.085,-0.125
4132,-0.095,-0.125
4133,-0.105,-0.125
4134,-0.100,-0.130
4135,-0.095,-0.135
4136,-0.095,-0.135
4137,-0.095,-0.135
4138,-0.095,-0.130
4139,-0.095,-0.125
4140,-0.090,-0.130
4141,-0.085,-0.135
4142,-0.090,-0.135
4143,-0.095,-0.135
4144,-0.095,-0.135
4145,-0.095,-0.135
4146,-0.095,-0.130
4147,-0.095,-0.125
4148,-0.100,-0.125
4149,-0.105,-0.125
4150,-0.100,-0.130
4151,-0.095,-0.135
4152,-0.090,-0.135
4153,-0.080,-0.130
4154,-0.070,-0.120
4155,-0.065,-0.115
4156,-0.060,-0.115
4157,-0.055,-0.115
4158,-0.050,-0.115
4159,-0.045,-0.110
4160,-0.040,-0.100
4161,-0.030,-0.095
4162,-0.020,-0.090
4163,-0.015,-0.085
4164,-0.015,-0.085
4165,-0.010,-0.085
4166,0.000,-0.085
4167,0.000,-0.090
4168,-0.005,-0.095
4169,0.000,-0.095
4170,0.005,-0.095
4171,0.000,-0.095
4172,-0.005,-0.095
4173,-0.015,-0.100
4174,-0.025,-0.105
4175,-0.045,-0.105
4176,-0.065,-0.105
4177,-0.075,-0.110
4178,-0.085,-0.115
4179,-0.100,-0.125
4180,-0.115,-0.135
4181,-0.115,-0.140
4182,-0.115,-0.145
4183,-0.120,-0.145
4184,-0.125,-0.145
4185,-0.120,-0.145
4186,-0.115,-0.145
4187,-0.115,-0.145
4188,-0.115,-0.145
4189,-0.120,-0.145
4190,-0.125,-0.145
4191,-0.125,-0.145
4192,-0.125,-0.145
4193,-0.125,-0.140
4194,-0.125,-0.135
4195,-0.130,-0.135
4196,-0.135,-0.135
4197,-0.130,-0.140
4198,-0.125,-0.145
4199,-0.120,-0.145
4200,-0.115,-0.145
4201,-0.110,-0.140
4202,-0.105,-0.135
4203,-0.105,-0.135
4204,-0.105,-0.135
4205,-0.105,-0.135
4206,-0.105,-0.135
4207,-0.100,-0.135
4208,-0.115,-0.135
4209,-0.145,-0.125
4210,-0.140,-0.130
4211,-0.130,-0.135
4212,0.030,-0.140
4213,0.200,-0.145
4214,0.475,-0.125
4215,0.745,-0.105
4216,1.020,-0.095
4217,1.230,-0.085
4218,1.150,-0.100
4219,1.005,-0.135
4220,0.680,-0.220
4221,0.350,-0.305
4222,0.025,-0.390
4223,-0.215,-0.455
4224,-0.275,-0.490
4225,-0.275,-0.470
4226,-0.170,-0.355
4227,-0.095,-0.240
4228,-0.070,-0.125
4229,-0.055,-0.060
4230,-0.060,-0.035
4231,-0.065,-0.025
4232,-0.070,-0.030
4233,-0.075,-0.035
4234,-0.075,-0.040
4235,-0.075,-0.045
4236,-0.080,-0.045
4237,-0.085,-0.045
4238,-0.080,-0.045
4239,-0.075,-0.045
4240,-0.075,-0.040
4241,-0.075,-0.035
4242,-0.080,-0.035
4243,-0.080,-0.035
4244,-0.070,-0.030
4245,-0.065,-0.025
4246,-0.060,-0.030
4247,-0.055,-0.035
4248,-0.050,-0.030
4249,-0.045,-0.025
4250,-0.045,-0.025
4251,-0.035,-0.010
4252,-0.035,-0.005
4253,-0.030,-0.010
4254,-0.025,-0.015
4255,-0.015,-0.005
4256,-0.005,0.005
4257,-0.010,0.005
4258,-0.015,0.005
4259,-0.005,0.005
4260,0.005,0.005
4261,0.010,0.010
4262,0.015,0.015
4263,0.025,0.025
4264,0.035,0.035
4265,0.045,0.045
4266,0.055,0.055
4267,0.060,0.060
4268,0.065,0.065
4269,0.075,0.070
4270,0.085,0.075
4271,0.100,0.090
4272,0.110,0.100
4273,0.120,0.110
4274,0.130,0.120
4275,0.140,0.130
4276,0.150,0.140
4277,0.165,0.150
4278,0.185,0.160
4279,0.200,0.170
4280,0.205,0.175
4281,0.210,0.170
4282,0.220,0.175
4283,0.230,0.190
4284,0.235,0.195
4285,0.240,0.195
4286,0.245,0.195
4287,0.240,0.195
4288,0.235,0.195
4289,0.230,0.190
4290,0.220,0.175
4291,0.210,0.160
4292,0.180,0.135
4293,0.155,0.115
4294,0.135,0.095
4295,0.115,0.075
4296,0.085,0.050
4297,0.055,0.025
4298,0.030,0.000
4299,0.005,-0.025
4300,-0.025,-0.045
4301,-0.045,-0.065
4302,-0.060,-0.075
4303,-0.075,-0.085
4304,-0.090,-0.095
4305,-0.105,-0.105
4306,-0.115,-0.115
4307,-0.125,-0.125
4308,-0.125,-0.130
4309,-0.125,-0.135
4310,-0.125,-0.135
4311,-0.125,-0.135
4312,-0.125,-0.135
4313,-0.125,-0.135
4314,-0.130,-0.135
4315,-0.135,-0.135
4316,-0.135,-0.140
4317,-0.135,-0.145
4318,-0.130,-0.140
4319,-0.125,-0.135
4320,-0.130,-0.135
4321,-0.135,-0.135
4322,-0.130,-0.135
4323,-0.125,-0.135
4324,-0.120,-0.140
4325,-0.115,-0.145
4326,-0.115,-0.140
4327,-0.115,-0.135
4328,-0.115,-0.135
4329,-0.115,-0.135
4330,-0.115,-0.135
4331,-0.115,-0.135
4332,-0.115,-0.135
4333,-0.115,-0.135
4334,-0.105,-0.125
4335,-0.110,-0.125
4336,-0.115,-0.125
4337,-0.110,-0.125
4338,-0.105,-0.125
4339,-0.100,-0.125
4340,-0.095,-0.125
4341,-0.095,-0.120
4342,-0.095,-0.115
4343,-0.100,-0.120
4344,-0.105,-0.125
4345,-0.100,-0.120
4346,-0.095,-0.115
4347,-0.100,-0.120
4348,-0.105,-0.125
4349,-0.105,-0.125
4350,-0.105,-0.125
4351,-0.105,-0.125
4352,-0.105,-0.125
4353,-0.110,-0.125
4354,-0.115,-0.125
4355,-0.110,-0.130
4356,-0.105,-0.135
4357,-0.105,-0.130
4358,-0.105,-0.125
4359,-0.110,-0.125
4360,-0.115,-0.125
4361,-0.115,-0.130
4362,-0.115,-0.135
4363,-0.115,-0.140
4364,-0.115,-0.145
4365,-0.115,-0.140
4366,-0.115,-0.135
4367,-0.120,-0.135
4368,-0.125,-0.135
4369,-0.125,-0.135
4370,-0.125,-0.135
4371,-0.125,-0.140
4372,-0.125,-0.145
4373,-0.125,-0.140
4374,-0.125,-0.135
4375,-0.125,-0.135
4376,-0.125,-0.135
4377,-0.125,-0.135
4378,-0.120,-0.135
4379,-0.115,-0.135
4380,-0.120,-0.130
4381,-0.125,-0.125
4382,-0.120,-0.130
4383,-0.115,-0.135
4384,-0.110,-0.135
4385,-0.105,-0.135
4386,-0.095,-0.130
4387,-0.085,-0.125
4388,-0.070,-0.120
4389,-0.055,-0.115
4390,-0.050,-0.110
4391,-0.045,-0.105
4392,-0.050,-0.100
4393,-0.050,-0.095
4394,-0.035,-0.095
4395,-0.025,-0.095
4396,-0.020,-0.090
4397,-0.015,-0.085
4398,-0.015,-0.085
4399,-0.015,-0.085
4400,-0.015,-0.090
4401,-0.015,-0.095
4402,-0.020,-0.100
4403,-0.030,-0.105
4404,-0.040,-0.100
4405,-0.050,-0.100
4406,-0.060,-0.110
4407,-0.080,-0.115
4408,-0.100,-0.115
4409,-0.105,-0.115
4410,-0.110,-0.120
4411,-0.115,-0.125
4412,-0.115,-0.130
4413,-0.120,-0.135
4414,-0.130,-0.140
4415,-0.135,-0.145
4416,-0.135,-0.145
4417,-0.135,-0.150
4418,-0.135,-0.155
4419,-0.135,-0.150
4420,-0.135,-0.145
4421,-0.135,-0.145
4422,-0.135,-0.145
4423,-0.135,-0.145
4424,-0.135,-0.145
4425,-0.135,-0.150
4426,-0.135,-0.155
4427,-0.135,-0.150
4428,-0.135,-0.145
4429,-0.130,-0.145
4430,-0.125,-0.145
4431,-0.130,-0.145
4432,-0.135,-0.145
4433,-0.135,-0.145
4434,-0.135,-0.145
4435,-0.125,-0.140
4436,-0.115,-0.135
4437,-0.115,-0.135
4438,-0.115,-0.135
4439,-0.110,-0.140
4440,-0.110,-0.145
4441,-0.120,-0.145
4442,-0.130,-0.140
4443,-0.145,-0.130
4444,-0.100,-0.130
4445,-0.005,-0.140
4446,0.155,-0.135
4447,0.340,-0.115
4448,0.615,-0.095
4449,0.915,-0.080
4450,1.075,-0.075
4451,1.190,-0.075
4452,0.945,-0.125
4453,0.620,-0.185
4454,0.290,-0.300
4455,-0.035,-0.425
4456,-0.230,-0.500
4457,-0.415,-0.570
4458,-0.300,-0.505
4459,-0.165,-0.425
4460,-0.115,-0.275
4461,-0.065,-0.135
4462,-0.075,-0.090
4463,-0.085,-0.045
4464,-0.085,-0.045
4465,-0.085,-0.045
4466,-0.090,-0.050
4467,-0.095,-0.055
4468,-0.095,-0.050
4469,-0.095,-0.045
4470,-0.095,-0.050
4471,-0.095,-0.055
4472,-0.090,-0.055
4473,-0.085,-0.055
4474,-0.080,-0.050
4475,-0.075,-0.045
4476,-0.075,-0.045
4477,-0.075,-0.045
4478,-0.075,-0.040
4479,-0.075,-0.035
4480,-0.070,-0.035
4481,-0.065,-0.035
4482,-0.060,-0.035
4483,-0.055,-0.035
4484,-0.055,-0.030
4485,-0.050,-0.025
4486,-0.040,-0.020
4487,-0.035,-0.015
4488,-0.035,-0.015
4489,-0.035,-0.015
4490,-0.030,-0.010
4491,-0.025,-0.005
4492,-0.025,0.000
4493,-0.025,0.005
4494,-0.020,0.010
4495,-0.010,0.015
4496,0.000,0.015
4497,0.010,0.025
4498,0.020,0.040
4499,0.030,0.045
4500,0.025,0.045
4501,0.050,0.055
4502,0.055,0.065
4503,0.065,0.075
4504,0.075,0.085
4505,0.090,0.095
4506,0.105,0.105
4507,0.110,0.110
4508,0.115,0.115
4509,0.125,0.125
4510,0.135,0.135
4511,0.150,0.140
4512,0.165,0.145
4513,0.175,0.155
4514,0.185,0.165
4515,0.190,0.170
4516,0.195,0.175
4517,0.200,0.175
4518,0.205,0.175
4519,0.210,0.170
4520,0.215,0.165
4521,0.210,0.165
4522,0.200,0.160
4523,0.185,0.150
4524,0.165,0.135
4525,0.145,0.115
4526,0.120,0.090
4527,0.095,0.065
4528,0.070,0.045
4529,0.045,0.025
4530,0.020,0.005
4531,-0.005,-0.015
4532,-0.030,-0.040
4533,-0.050,-0.060
4534,-0.065,-0.080
4535,-0.080,-0.100
4536,-0.095,-0.105
4537,-0.110,-0.110
4538,-0.120,-0.115
4539,-0.130,-0.120
4540,-0.135,-0.130
4541,-0.140,-0.140
4542,-0.145,-0.150
4543,-0.145,-0.155
4544,-0.145,-0.155
4545,-0.145,-0.155
4546,-0.145,-0.155
4547,-0.145,-0.155
4548,-0.145,-0.155
4549,-0.145,-0.155
4550,-0.145,-0.160
4551,-0.145,-0.165
4552,-0.145,-0.160
4553,-0.145,-0.155
4554,-0.145,-0.155
4555,-0.145,-0.155
4556,-0.150,-0.155
4557,-0.155,-0.155
4558,-0.150,-0.155
4559,-0.145,-0.155
4560,-0.140,-0.150
4561,-0.135,-0.145
4562,-0.135,-0.145
4563,-0.135,-0.145
4564,-0.140,-0.145
4565,-0.145,-0.145
4566,-0.140,-0.145
4567,-0.135,-0.145
4568,-0.135,-0.145
4569,-0.135,-0.145
4570,-0.135,-0.145
4571,-0.135,-0.145
4572,-0.135,-0.140
4573,-0.135,-0.135
4574,-0.130,-0.135
4575,-0.125,-0.135
4576,-0.125,-0.135
4577,-0.125,-0.135
4578,-0.125,-0.135
4579,-0.125,-0.135
4580,-0.130,-0.135
4581,-0.135,-0.135
4582,-0.135,-0.140
4583,-0.135,-0.145
4584,-0.135,-0.145
4585,-0.140,-0.145
4586,-0.145,-0.145
4587,-0.145,-0.145
4588,-0.145,-0.145
4589,-0.140,-0.150
4590,-0.135,-0.155
4591,-0.140,-0.150
4592,-0.145,-0.145
4593,-0.145,-0.145
4594,-0.145,-0.145
4595,-0.150,-0.150
4596,-0.155,-0.155
4597,-0.155,-0.155
4598,-0.155,-0.155
4599,-0.150,-0.155
4600,-0.145,-0.155
4601,-0.150,-0.155
4602,-0.155,-0.155
4603,-0.155,-0.155
4604,-0.155,-0.155
4605,-0.155,-0.160
4606,-0.155,-0.165
4607,-0.160,-0.160
4608,-0.165,-0.155
4609,-0.160,-0.155
4610,-0.155,-0.155
4611,-0.155,-0.160
4612,-0.155,-0.165
4613,-0.150,-0.160
4614,-0.145,-0.155
4615,-0.145,-0.155
4616,-0.145,-0.155
4617,-0.150,-0.160
4618,-0.150,-0.165
4619,-0.140,-0.160
4620,-0.130,-0.155
4621,-0.120,-0.155
4622,-0.115,-0.150
4623,-0.110,-0.140
4624,-0.105,-0.135
4625,-0.105,-0.135
4626,-0.090,-0.125
4627,-0.085,-0.115
4628,-0.075,-0.115
4629,-0.065,-0.115
4630,-0.050,-0.110
4631,-0.035,-0.105
4632,-0.040,-0.105
4633,-0.045,-0.105
4634,-0.050,-0.110
4635,-0.055,-0.115
4636,-0.050,-0.120
4637,-0.045,-0.125
4638,-0.055,-0.120
4639,-0.065,-0.115
4640,-0.075,-0.120
4641,-0.090,-0.125
4642,-0.110,-0.135
4643,-0.125,-0.145
4644,-0.135,-0.145
4645,-0.145,-0.145
4646,-0.145,-0.150
4647,-0.150,-0.155
4648,-0.165,-0.160
4649,-0.175,-0.165
4650,-0.170,-0.170
4651,-0.165,-0.175
4652,-0.165,-0.175
4653,-0.165,-0.175
4654,-0.160,-0.170
4655,-0.155,-0.165
4656,-0.160,-0.165
4657,-0.165,-0.165
4658,-0.170,-0.165
4659,-0.175,-0.165
4660,-0.175,-0.170
4661,-0.175,-0.175
4662,-0.175,-0.170
4663,-0.175,-0.165
4664,-0.175,-0.165
4665,-0.175,-0.165
4666,-0.175,-0.170
4667,-0.170,-0.175
4668,-0.165,-0.175
4669,-0.160,-0.165
4670,-0.155,-0.155
4671,-0.155,-0.155
4672,-0.155,-0.155
4673,-0.160,-0.160
4674,-0.165,-0.165
4675,-0.155,-0.165
4676,-0.150,-0.165
4677,-0.175,-0.155
4678,-0.190,-0.145
4679,-0.150,-0.150
4680,-0.080,-0.155
4681,0.075,-0.155
4682,0.265,-0.145
4683,0.525,-0.115
4684,0.785,-0.085
4685,1.035,-0.045
4686,1.090,-0.030
4687,0.900,-0.050
4688,0.645,-0.120
4689,0.315,-0.240
4690,-0.010,-0.355
4691,-0.340,-0.465
4692,-0.460,-0.535
4693,-0.430,-0.580
4694,-0.340,-0.530
4695,-0.225,-0.420
4696,-0.165,-0.305
4697,-0.135,-0.190
4698,-0.125,-0.130
4699,-0.130,-0.095
4700,-0.135,-0.085
4701,-0.135,-0.080
4702,-0.140,-0.075
4703,-0.150,-0.075
4704,-0.150,-0.075
4705,-0.140,-0.080
4706,-0.135,-0.085
4707,-0.130,-0.085
4708,-0.125,-0.085
4709,-0.135,-0.075
4710,-0.125,-0.070
4711,-0.115,-0.065
4712,-0.125,-0.065
4713,-0.135,-0.065
4714,-0.130,-0.065
4715,-0.125,-0.065
4716,-0.120,-0.065
4717,-0.115,-0.065
4718,-0.110,-0.060
4719,-0.105,-0.055
4720,-0.100,-0.055
4721,-0.095,-0.055
4722,-0.095,-0.050
4723,-0.095,-0.045
4724,-0.090,-0.040
4725,-0.085,-0.035
4726,-0.090,-0.035
4727,-0.095,-0.035
4728,-0.085,-0.035
4729,-0.075,-0.035
4730,-0.060,-0.030
4731,-0.055,-0.020
4732,-0.050,-0.010
4733,-0.040,-0.005
4734,-0.030,0.000
4735,-0.025,0.005
4736,-0.020,0.005
4737,-0.005,0.015
4738,0.010,0.030
4739,0.020,0.035
4740,0.030,0.040
4741,0.035,0.050
4742,0.035,0.060
4743,0.045,0.065
4744,0.060,0.070
4745,0.075,0.080
4746,0.090,0.090
4747,0.110,0.095
4748,0.130,0.100
4749,0.135,0.105
4750,0.135,0.105
4751,0.140,0.115
4752,0.135,0.125
4753,0.140,0.125
4754,0.145,0.125
4755,0.150,0.125
4756,0.155,0.125
4757,0.145,0.115
4758,0.135,0.105
4759,0.115,0.095
4760,0.095,0.085
4761,0.070,0.060
4762,0.050,0.045
4763,0.030,0.030
4764,0.005,0.010
4765,-0.025,-0.015
4766,-0.050,-0.040
4767,-0.080,-0.055
4768,-0.095,-0.070
4769,-0.105,-0.085
4770,-0.120,-0.100
4771,-0.145,-0.115
4772,-0.160,-0.125
4773,-0.175,-0.130
4774,-0.185,-0.140
4775,-0.185,-0.150
4776,-0.185,-0.155
4777,-0.190,-0.160
4778,-0.195,-0.165
4779,-0.190,-0.160
4780,-0.185,-0.155
4781,-0.180,-0.160
4782,-0.185,-0.165
4783,-0.200,-0.165
4784,-0.205,-0.165
4785,-0.200,-0.165
4786,-0.190,-0.165
4787,-0.180,-0.160
4788,-0.185,-0.155
4789,-0.200,-0.160
4790,-0.200,-0.165
4791,-0.190,-0.160
4792,-0.180,-0.155
4793,-0.175,-0.155
4794,-0.180,-0.155
4795,-0.185,-0.155
4796,-0.180,-0.150
4797,-0.175,-0.145
4798,-0.170,-0.150
4799,-0.165,-0.155
4800,-0.175,-0.150
4801,-0.185,-0.145
4802,-0.175,-0.145
4803,-0.165,-0.145
4804,-0.165,-0.145
4805,-0.165,-0.145
4806,-0.170,-0.145
4807,-0.175,-0.145
4808,-0.165,-0.145
4809,-0.155,-0.145
4810,-0.160,-0.140
4811,-0.165,-0.135
4812,-0.165,-0.140
4813,-0.165,-0.145
4814,-0.170,-0.145
4815,-0.175,-0.145
4816,-0.180,-0.145
4817,-0.180,-0.145
4818,-0.170,-0.140
4819,-0.165,-0.135
4820,-0.170,-0.140
4821,-0.175,-0.145
4822,-0.180,-0.140
4823,-0.185,-0.135
4824,-0.185,-0.140
4825,-0.185,-0.145
4826,-0.185,-0.145
4827,-0.180,-0.145
4828,-0.170,-0.145
4829,-0.170,-0.145
4830,-0.180,-0.145
4831,-0.185,-0.145
4832,-0.185,-0.150
4833,-0.185,-0.155
4834,-0.185,-0.145
4835,-0.190,-0.150
4836,-0.195,-0.155
4837,-0.195,-0.155
4838,-0.195,-0.155
4839,-0.190,-0.155
4840,-0.185,-0.155
4841,-0.185,-0.150
4842,-0.185,-0.145
4843,-0.185,-0.150
4844,-0.185,-0.155
4845,-0.185,-0.155
4846,-0.185,-0.155
4847,-0.175,-0.160
4848,-0.165,-0.165
4849,-0.160,-0.155
4850,-0.155,-0.145
4851,-0.155,-0.135
4852,-0.150,-0.125
4853,-0.135,-0.130
4854,-0.125,-0.135
4855,-0.130,-0.130
4856,-0.135,-0.125
4857,-0.135,-0.120
4858,-0.120,-0.115
4859,-0.090,-0.110
4860,-0.075,-0.105
4861,-0.070,-0.100
4862,-0.065,-0.095
4863,-0.070,-0.100
4864,-0.075,-0.105
4865,-0.075,-0.105
4866,-0.080,-0.105
4867,-0.090,-0.110
4868,-0.095,-0.115
4869,-0.095,-0.110
4870,-0.110,-0.110
4871,-0.130,-0.120
4872,-0.150,-0.125
4873,-0.170,-0.125
4874,-0.175,-0.130
4875,-0.175,-0.125
4876,-0.185,-0.150
4877,-0.195,-0.155
4878,-0.190,-0.155
4879,-0.185,-0.155
4880,-0.185,-0.160
4881,-0.185,-0.165
4882,-0.185,-0.160
4883,-0.185,-0.155
4884,-0.195,-0.155
4885,-0.205,-0.155
4886,-0.200,-0.160
4887,-0.195,-0.165
4888,-0.200,-0.160
4889,-0.205,-0.155
4890,-0.200,-0.155
4891,-0.195,-0.155
4892,-0.190,-0.155
4893,-0.185,-0.155
4894,-0.190,-0.155
4895,-0.195,-0.155
4896,-0.190,-0.155
4897,-0.185,-0.155
4898,-0.185,-0.150
4899,-0.185,-0.145
4900,-0.185,-0.145
4901,-0.185,-0.145
4902,-0.180,-0.150
4903,-0.175,-0.155
4904,-0.170,-0.150
4905,-0.165,-0.145
4906,-0.170,-0.140
4907,-0.190,-0.135
4908,-0.210,-0.135
4909,-0.150,-0.135
4910,-0.060,-0.140
4911,0.105,-0.135
4912,0.285,-0.120
4913,0.560,-0.075
4914,0.845,-0.030
4915,1.005,0.035
4916,1.160,0.100
4917,0.865,0.045
4918,0.555,-0.015
4919,0.230,-0.165
4920,-0.090,-0.310
4921,-0.335,-0.400
4922,-0.545,-0.485
4923,-0.430,-0.505
4924,-0.320,-0.510
4925,-0.230,-0.400
4926,-0.155,-0.295
4927,-0.135,-0.195
4928,-0.115,-0.110
4929,-0.125,-0.085
4930,-0.135,-0.065
4931,-0.140,-0.065
4932,-0.145,-0.065
4933,-0.145,-0.075
4934,-0.145,-0.085
4935,-0.140,-0.080
4936,-0.135,-0.075
4937,-0.135,-0.070
4938,-0.130,-0.065
4939,-0.115,-0.065
4940,-0.110,-0.065
4941,-0.125,-0.065
4942,-0.135,-0.065
4943,-0.135,-0.060
4944,-0.125,-0.055
4945,-0.105,-0.055
4946,-0.100,-0.055
4947,-0.110,-0.055
4948,-0.115,-0.055
4949,-0.110,-0.055
4950,-0.100,-0.055
4951,-0.090,-0.050
4952,-0.085,-0.045
4953,-0.090,-0.040
4954,-0.085,-0.035
4955,-0.070,-0.030
4956,-0.065,-0.025
4957,-0.060,-0.030
4958,-0.055,-0.030
4959,-0.055,-0.015
4960,-0.050,-0.010
4961,-0.045,-0.005
4962,-0.030,0.000
4963,-0.015,0.005
4964,-0.015,0.005
4965,-0.015,0.005
4966,-0.015,0.015
4967,-0.015,0.025
4968,0.000,0.030
4969,0.015,0.035
4970,0.030,0.045
4971,0.045,0.055
4972,0.050,0.060
4973,0.055,0.065
4974,0.065,0.075
4975,0.075,0.085
4976,0.085,0.090
4977,0.095,0.095
4978,0.095,0.100
4979,0.095,0.105
4980,0.100,0.110
4981,0.110,0.115
4982,0.125,0.115
4983,0.135,0.115
4984,0.135,0.120
4985,0.135,0.120
4986,0.130,0.110
4987,0.125,0.100
4988,0.120,0.090
4989,0.100,0.080
4990,0.075,0.070
4991,0.050,0.055
4992,0.020,0.040
4993,0.010,0.020
4994,0.000,0.000
4995,-0.025,-0.025
4996,-0.050,-0.050
4997,-0.060,-0.060
4998,-0.070,-0.070
4999,-0.085,-0.080
5000,-0.075,-0.075
5001,-0.115,-0.105
5002,-0.125,-0.115
5003,-0.135,-0.120
5004,-0.145,-0.125
5005,-0.145,-0.130
5006,-0.145,-0.135
5007,-0.145,-0.135
5008,-0.145,-0.135
5009,-0.150,-0.135
5010,-0.155,-0.135
5011,-0.150,-0.140
5012,-0.145,-0.145
5013,-0.145,-0.140
5014,-0.145,-0.135
5015,-0.145,-0.130
5016,-0.145,-0.125
5017,-0.145,-0.130
5018,-0.145,-0.135
5019,-0.145,-0.135
5020,-0.145,-0.135
5021,-0.130,-0.130
5022,-0.125,-0.125
5023,-0.130,-0.120
5024,-0.130,-0.115
5025,-0.120,-0.120
5026,-0.115,-0.125
5027,-0.120,-0.120
5028,-0.125,-0.115
5029,-0.120,-0.115
5030,-0.115,-0.115
5031,-0.120,-0.115
5032,-0.125,-0.115
5033,-0.120,-0.115
5034,-0.115,-0.115
5035,-0.115,-0.110
5036,-0.115,-0.105
5037,-0.115,-0.105
5038,-0.115,-0.105
5039,-0.115,-0.105
5040,-0.115,-0.105
5041,-0.120,-0.105
5042,-0.115,-0.110
5043,-0.105,-0.115
5044,-0.105,-0.110
5045,-0.105,-0.105
5046,-0.115,-0.105
5047,-0.125,-0.105
5048,-0.125,-0.110
5049,-0.125,-0.115
5050,-0.130,-0.115
5051,-0.135,-0.115
5052,-0.135,-0.110
5053,-0.135,-0.105
5054,-0.135,-0.110
5055,-0.135,-0.115
5056,-0.140,-0.110
5057,-0.145,-0.105
5058,-0.140,-0.110
5059,-0.135,-0.115
5060,-0.130,-0.115
5061,-0.125,-0.115
5062,-0.135,-0.110
5063,-0.145,-0.105
5064,-0.140,-0.110
5065,-0.135,-0.115
5066,-0.130,-0.115
5067,-0.125,-0.115
5068,-0.130,-0.115
5069,-0.135,-0.115
5070,-0.135,-0.110
5071,-0.135,-0.105
5072,-0.140,-0.105
5073,-0.135,-0.105
5074,-0.120,-0.110
5075,-0.105,-0.115
5076,-0.090,-0.110
5077,-0.085,-0.100
5078,-0.085,-0.090
5079,-0.080,-0.085
5080,-0.070,-0.085
5081,-0.065,-0.085
5082,-0.065,-0.080
5083,-0.055,-0.075
5084,-0.035,-0.075
5085,-0.025,-0.065
5086,-0.015,-0.055
5087,-0.025,-0.055
5088,-0.035,-0.055
5089,-0.030,-0.065
5090,-0.025,-0.075
5091,-0.030,-0.080
5092,-0.040,-0.085
5093,-0.065,-0.080
5094,-0.085,-0.075
5095,-0.085,-0.085
5096,-0.085,-0.095
5097,-0.100,-0.100
5098,-0.115,-0.105
5099,-0.120,-0.110
5100,-0.125,-0.115
5101,-0.130,-0.115
5102,-0.135,-0.115
5103,-0.135,-0.120
5104,-0.135,-0.125
5105,-0.135,-0.130
5106,-0.135,-0.130
5107,-0.135,-0.120
5108,-0.135,-0.115
5109,-0.135,-0.115
5110,-0.135,-0.115
5111,-0.130,-0.120
5112,-0.125,-0.125
5113,-0.125,-0.130
5114,-0.125,-0.130
5115,-0.125,-0.120
5116,-0.125,-0.115
5117,-0.125,-0.115
5118,-0.125,-0.115
5119,-0.120,-0.115
5120,-0.115,-0.115
5121,-0.115,-0.120
5122,-0.110,-0.125
5123,-0.100,-0.120
5124,-0.095,-0.115
5125,-0.095,-0.115
5126,-0.085,-0.105
5127,-0.085,-0.105
5128,-0.100,-0.105
5129,-0.115,-0.105
5130,-0.110,-0.105
5131,-0.090,-0.105
5132,0.040,-0.105
5133,0.190,-0.100
5134,0.460,-0.070
5135,0.715,-0.035
5136,0.945,0.030
5137,1.085,0.075
5138,0.980,0.065
5139,0.800,0.020
5140,0.470,-0.090
5141,0.145,-0.205
5142,-0.185,-0.315
5143,-0.370,-0.405
5144,-0.355,-0.455
5145,-0.295,-0.450
5146,-0.180,-0.365
5147,-0.110,-0.270
5148,-0.080,-0.165
5149,-0.065,-0.095
5150,-0.065,-0.055
5151,-0.065,-0.035
5152,-0.065,-0.035
5153,-0.065,-0.035
5154,-0.065,-0.035
5155,-0.065,-0.035
5156,-0.060,-0.035
5157,-0.055,-0.035
5158,-0.060,-0.035
5159,-0.065,-0.035
5160,-0.065,-0.035
5161,-0.065,-0.035
5162,-0.060,-0.030
5163,-0.055,-0.025
5164,-0.055,-0.025
5165,-0.055,-0.025
5166,-0.050,-0.025
5167,-0.040,-0.025
5168,-0.035,-0.025
5169,-0.030,-0.020
5170,-0.025,-0.015
5171,-0.020,-0.015
5172,-0.015,-0.015
5173,-0.015,-0.010
5174,-0.015,-0.005
5175,-0.015,-0.005
5176,-0.015,-0.005
5177,-0.005,0.000
5178,0.005,0.005
5179,0.000,0.005
5180,-0.005,0.005
5181,0.005,0.010
5182,0.015,0.015
5183,0.025,0.020
5184,0.035,0.025
5185,0.040,0.030
5186,0.045,0.035
5187,0.055,0.040
5188,0.065,0.045
5189,0.070,0.050
5190,0.080,0.060
5191,0.090,0.070
5192,0.100,0.080
5193,0.115,0.090
5194,0.125,0.095
5195,0.125,0.100
5196,0.130,0.110
5197,0.140,0.120
5198,0.150,0.125
5199,0.160,0.130
5200,0.170,0.140
5201,0.180,0.150
5202,0.185,0.155
5203,0.190,0.160
5204,0.195,0.165
5205,0.195,0.160
5206,0.195,0.155
5207,0.190,0.150
5208,0.185,0.145
5209,0.185,0.145
5210,0.160,0.130
5211,0.135,0.115
5212,0.120,0.095
5213,0.105,0.075
5214,0.080,0.055
5215,0.055,0.035
5216,0.035,0.020
5217,0.015,0.005
5218,0.000,-0.015
5219,-0.020,-0.035
5220,-0.040,-0.050
5221,-0.055,-0.065
5222,-0.065,-0.080
5223,-0.075,-0.095
5224,-0.080,-0.095
5225,-0.090,-0.095
5226,-0.105,-0.100
5227,-0.115,-0.105
5228,-0.115,-0.110
5229,-0.115,-0.115
5230,-0.115,-0.120
5231,-0.115,-0.125
5232,-0.115,-0.125
5233,-0.115,-0.125
5234,-0.110,-0.125
5235,-0.105,-0.125
5236,-0.110,-0.125
5237,-0.115,-0.125
5238,-0.115,-0.130
5239,-0.115,-0.135
5240,-0.110,-0.130
5241,-0.105,-0.125
5242,-0.110,-0.120
5243,-0.115,-0.115
5244,-0.115,-0.115
5245,-0.115,-0.115
5246,-0.110,-0.120
5247,-0.105,-0.125
5248,-0.105,-0.120
5249,-0.105,-0.115
5250,-0.105,-0.115
5251,-0.095,-0.115
5252,-0.095,-0.115
5253,-0.095,-0.115
5254,-0.095,-0.115
5255,-0.095,-0.110
5256,-0.095,-0.105
5257,-0.090,-0.110
5258,-0.085,-0.115
5259,-0.090,-0.110
5260,-0.095,-0.105
5261,-0.095,-0.110
5262,-0.095,-0.115
5263,-0.095,-0.110
5264,-0.095,-0.105
5265,-0.090,-0.100
5266,-0.085,-0.095
5267,-0.080,-0.100
5268,-0.075,-0.105
5269,-0.080,-0.105
5270,-0.085,-0.105
5271,-0.085,-0.105
5272,-0.085,-0.105
5273,-0.090,-0.105
5274,-0.095,-0.105
5275,-0.100,-0.105
5276,-0.105,-0.105
5277,-0.100,-0.105
5278,-0.095,-0.105
5279,-0.095,-0.100
5280,-0.095,-0.095
5281,-0.095,-0.100
5282,-0.095,-0.105
5283,-0.095,-0.105
5284,-0.095,-0.105
5285,-0.100,-0.105
5286,-0.105,-0.105
5287,-0.100,-0.105
5288,-0.095,-0.105
5289,-0.100,-0.105
5290,-0.105,-0.105
5291,-0.105,-0.105
5292,-0.100,-0.110
5293,-0.095,-0.115
5294,-0.095,-0.110
5295,-0.095,-0.105
5296,-0.095,-0.105
5297,-0.095,-0.105
5298,-0.100,-0.105
5299,-0.105,-0.105
5300,-0.105,-0.105
5301,-0.105,-0.105
5302,-0.100,-0.105
5303,-0.095,-0.105
5304,-0.090,-0.105
5305,-0.085,-0.105
5306,-0.080,-0.100
5307,-0.075,-0.095
5308,-0.065,-0.090
5309,-0.055,-0.085
5310,-0.045,-0.080
5311,-0.035,-0.075
5312,-0.035,-0.070
5313,-0.030,-0.065
5314,-0.020,-0.065
5315,-0.010,-0.065
5316,0.000,-0.065
5317,0.005,-0.065
5318,0.005,-0.060
5319,0.000,-0.055
5320,-0.010,-0.060
5321,-0.015,-0.065
5322,-0.010,-0.070
5323,-0.010,-0.075
5324,-0.020,-0.075
5325,-0.025,-0.075
5326,-0.030,-0.075
5327,-0.050,-0.075
5328,-0.070,-0.075
5329,-0.080,-0.080
5330,-0.090,-0.090
5331,-0.095,-0.100
5332,-0.100,-0.110
5333,-0.105,-0.115
5334,-0.115,-0.115
5335,-0.120,-0.115
5336,-0.125,-0.115
5337,-0.125,-0.120
5338,-0.125,-0.125
5339,-0.125,-0.125
5340,-0.125,-0.125
5341,-0.120,-0.120
5342,-0.115,-0.115
5343,-0.115,-0.115
5344,-0.115,-0.115
5345,-0.115,-0.120
5346,-0.115,-0.125
5347,-0.120,-0.125
5348,-0.125,-0.125
5349,-0.120,-0.120
5350,-0.115,-0.115
5351,-0.120,-0.115
5352,-0.125,-0.115
5353,-0.120,-0.120
5354,-0.115,-0.125
5355,-0.110,-0.120
5356,-0.105,-0.115
5357,-0.100,-0.115
5358,-0.100,-0.115
5359,-0.110,-0.115
5360,-0.130,-0.115
5361,-0.160,-0.115
5362,-0.110,-0.120
5363,-0.005,-0.130
5364,0.190,-0.120
5365,0.420,-0.095
5366,0.710,-0.080
5367,1.025,-0.070
5368,1.170,-0.065
5369,1.275,-0.070
5370,1.015,-0.120
5371,0.690,-0.175
5372,0.360,-0.265
5373,0.035,-0.360
5374,-0.185,-0.435
5375,0.015,-0.365
5376,-0.265,-0.430
5377,-0.135,-0.340
5378,-0.095,-0.215
5379,-0.055,-0.095
5380,-0.060,-0.045
5381,-0.065,-0.005
5382,-0.080,-0.010
5383,-0.095,-0.015
5384,-0.095,-0.020
5385,-0.095,-0.025
5386,-0.095,-0.030
5387,-0.095,-0.035
5388,-0.085,-0.030
5389,-0.075,-0.025
5390,-0.075,-0.025
5391,-0.075,-0.025
5392,-0.075,-0.025
5393,-0.075,-0.025
5394,-0.075,-0.025
5395,-0.075,-0.025
5396,-0.060,-0.020
5397,-0.055,-0.015
5398,-0.060,-0.015
5399,-0.060,-0.015
5400,-0.050,-0.010
5401,-0.045,-0.005
5402,-0.045,-0.005
5403,-0.045,-0.005
5404,-0.040,0.000
5405,-0.030,0.005
5406,-0.020,0.005
5407,-0.015,0.005
5408,-0.015,0.010
5409,-0.015,0.015
5410,-0.010,0.020
5411,-0.005,0.025
5412,0.000,0.030
5413,0.005,0.035
5414,0.010,0.040
5415,0.020,0.045
5416,0.030,0.050
5417,0.045,0.060
5418,0.055,0.065
5419,0.065,0.075
5420,0.075,0.085
5421,0.080,0.095
5422,0.085,0.105
5423,0.100,0.110
5424,0.115,0.115
5425,0.125,0.125
5426,0.135,0.135
5427,0.145,0.145
5428,0.155,0.155
5429,0.170,0.165
5430,0.185,0.175
5431,0.185,0.180
5432,0.190,0.185
5433,0.210,0.185
5434,0.225,0.185
5435,0.230,0.195
5436,0.235,0.205
5437,0.240,0.205
5438,0.245,0.205
5439,0.245,0.200
5440,0.240,0.190
5441,0.225,0.180
5442,0.205,0.170
5443,0.185,0.155
5444,0.160,0.135
5445,0.135,0.115
5446,0.105,0.085
5447,0.075,0.055
5448,0.050,0.030
5449,0.025,0.005
5450,0.000,-0.015
5451,-0.020,-0.030
5452,-0.040,-0.045
5453,-0.060,-0.060
5454,-0.070,-0.075
5455,-0.080,-0.090
5456,-0.090,-0.100
5457,-0.100,-0.110
5458,-0.110,-0.115
5459,-0.125,-0.115
5460,-0.125,-0.120
5461,-0.125,-0.125
5462,-0.135,-0.130
5463,-0.145,-0.135
5464,-0.140,-0.135
5465,-0.135,-0.135
5466,-0.135,-0.135
5467,-0.135,-0.135
5468,-0.135,-0.135
5469,-0.135,-0.135
5470,-0.130,-0.130
5471,-0.125,-0.125
5472,-0.130,-0.130
5473,-0.135,-0.135
5474,-0.135,-0.130
5475,-0.135,-0.125
5476,-0.130,-0.130
5477,-0.125,-0.135
5478,-0.130,-0.130
5479,-0.135,-0.125
5480,-0.130,-0.130
5481,-0.125,-0.135
5482,-0.120,-0.130
5483,-0.115,-0.125
5484,-0.115,-0.120
5485,-0.115,-0.115
5486,-0.110,-0.115
5487,-0.105,-0.115
5488,-0.105,-0.120
5489,-0.105,-0.125
5490,-0.105,-0.120
5491,-0.105,-0.115
5492,-0.105,-0.110
5493,-0.105,-0.105
5494,-0.110,-0.110
5495,-0.110,-0.115
5496,-0.100,-0.115
5497,-0.095,-0.115
5498,-0.095,-0.115
5499,-0.095,-0.115
5500,-0.095,-0.115
5501,-0.090,-0.110
5502,-0.085,-0.115
5503,-0.095,-0.120
5504,-0.105,-0.125
5505,-0.110,-0.125
5506,-0.115,-0.125
5507,-0.110,-0.120
5508,-0.105,-0.115
5509,-0.115,-0.115
5510,-0.125,-0.115
5511,-0.120,-0.120
5512,-0.115,-0.125
5513,-0.115,-0.125
5514,-0.115,-0.125
5515,-0.115,-0.125
5516,-0.115,-0.125
5517,-0.115,-0.125
5518,-0.115,-0.125
5519,-0.120,-0.130
5520,-0.125,-0.135
5521,-0.125,-0.135
5522,-0.125,-0.135
5523,-0.120,-0.130
5524,-0.115,-0.125
5525,-0.120,-0.130
5526,-0.125,-0.135
5527,-0.125,-0.135
5528,-0.125,-0.135
5529,-0.120,-0.135
5530,-0.115,-0.135
5531,-0.120,-0.135
5532,-0.125,-0.135
5533,-0.120,-0.135
5534,-0.115,-0.135
5535,-0.115,-0.135
5536,-0.115,-0.135
5537,-0.110,-0.135
5538,-0.105,-0.135
5539,-0.100,-0.130
5540,-0.090,-0.125
5541,-0.080,-0.120
5542,-0.070,-0.110
5543,-0.065,-0.105
5544,-0.055,-0.100
5545,-0.045,-0.095
5546,-0.050,-0.090
5547,-0.055,-0.085
5548,-0.035,-0.085
5549,-0.015,-0.085
5550,-0.005,-0.085
5551,0.005,-0.085
5552,0.000,-0.080
5553,-0.005,-0.075
5554,-0.010,-0.080
5555,-0.015,-0.085
5556,-0.010,-0.090
5557,-0.010,-0.095
5558,-0.025,-0.090
5559,-0.035,-0.085
5560,-0.045,-0.090
5561,-0.060,-0.095
5562,-0.080,-0.100
5563,-0.095,-0.110
5564,-0.100,-0.125
5565,-0.110,-0.135
5566,-0.120,-0.135
5567,-0.125,-0.135
5568,-0.120,-0.135
5569,-0.115,-0.135
5570,-0.120,-0.140
5571,-0.125,-0.145
5572,-0.125,-0.145
5573,-0.125,-0.145
5574,-0.125,-0.145
5575,-0.125,-0.145
5576,-0.125,-0.140
5577,-0.125,-0.135
5578,-0.125,-0.135
5579,-0.125,-0.135
5580,-0.125,-0.135
5581,-0.125,-0.135
5582,-0.125,-0.140
5583,-0.125,-0.140
5584,-0.115,-0.125
5585,-0.125,-0.130
5586,-0.135,-0.135
5587,-0.130,-0.135
5588,-0.125,-0.135
5589,-0.120,-0.135
5590,-0.115,-0.135
5591,-0.110,-0.130
5592,-0.105,-0.125
5593,-0.100,-0.125
5594,-0.100,-0.125
5595,-0.120,-0.130
5596,-0.135,-0.135
5597,-0.125,-0.135
5598,-0.070,-0.135
5599,0.070,-0.135
5600,0.250,-0.125
5601,0.500,-0.100
5602,0.765,-0.080
5603,1.045,-0.065
5604,1.130,-0.060
5605,0.990,-0.085
5606,0.755,-0.145
5607,0.425,-0.250
5608,0.100,-0.355
5609,-0.230,-0.460
5610,-0.340,-0.520
5611,-0.315,-0.545
5612,-0.235,-0.465
5613,-0.130,-0.325
5614,-0.085,-0.210
5615,-0.060,-0.105
5616,-0.060,-0.060
5617,-0.070,-0.040
5618,-0.075,-0.035
5619,-0.080,-0.040
5620,-0.085,-0.045
5621,-0.085,-0.050
5622,-0.085,-0.055
5623,-0.080,-0.050
5624,-0.075,-0.045
5625,-0.075,-0.045
5626,-0.065,-0.035
5627,-0.065,-0.035
5628,-0.065,-0.035
5629,-0.065,-0.035
5630,-0.060,-0.030
5631,-0.055,-0.025
5632,-0.055,-0.025
5633,-0.055,-0.025
5634,-0.050,-0.025
5635,-0.045,-0.025
5636,-0.040,-0.025
5637,-0.035,-0.025
5638,-0.030,-0.020
5639,-0.025,-0.015
5640,-0.025,-0.010
5641,-0.025,-0.005
5642,-0.020,-0.005
5643,-0.015,-0.005
5644,-0.010,0.000
5645,-0.005,0.005
5646,0.000,0.010
5647,0.005,0.015
5648,0.010,0.020
5649,0.015,0.025
5650,0.015,0.030
5651,0.020,0.035
5652,0.035,0.035
5653,0.050,0.045
5654,0.060,0.060
5655,0.070,0.065
5656,0.080,0.070
5657,0.085,0.075
5658,0.090,0.080
5659,0.105,0.095
5660,0.120,0.110
5661,0.135,0.115
5662,0.150,0.120
5663,0.155,0.130
5664,0.160,0.140
5665,0.170,0.145
5666,0.180,0.150
5667,0.200,0.165
5668,0.215,0.175
5669,0.225,0.180
5670,0.235,0.185
5671,0.240,0.185
5672,0.245,0.185
5673,0.245,0.180
5674,0.245,0.175
5675,0.235,0.170
5676,0.225,0.165
5677,0.215,0.155
5678,0.200,0.145
5679,0.180,0.130
5680,0.160,0.110
5681,0.135,0.085
5682,0.110,0.055
5683,0.085,0.025
5684,0.055,0.005
5685,0.025,-0.005
5686,-0.005,-0.020
5687,-0.030,-0.040
5688,-0.045,-0.065
5689,-0.050,-0.085
5690,-0.060,-0.100
5691,-0.075,-0.110
5692,-0.090,-0.115
5693,-0.100,-0.120
5694,-0.105,-0.125
5695,-0.110,-0.130
5696,-0.115,-0.135
5697,-0.120,-0.135
5698,-0.125,-0.135
5699,-0.125,-0.140
5700,-0.125,-0.145
5701,-0.125,-0.140
5702,-0.125,-0.135
5703,-0.120,-0.140
5704,-0.115,-0.145
5705,-0.115,-0.145
5706,-0.115,-0.145
5707,-0.120,-0.145
5708,-0.125,-0.145
5709,-0.115,-0.145
5710,-0.120,-0.145
5711,-0.125,-0.145
5712,-0.125,-0.145
5713,-0.125,-0.145
5714,-0.120,-0.145
5715,-0.115,-0.145
5716,-0.110,-0.140
5717,-0.105,-0.135
5718,-0.105,-0.135
5719,-0.105,-0.135
5720,-0.105,-0.135
5721,-0.105,-0.135
5722,-0.100,-0.130
5723,-0.095,-0.125
5724,-0.100,-0.125
5725,-0.105,-0.125
5726,-0.115,-0.125
5727,-0.125,-0.125
5728,-0.115,-0.125
5729,-0.105,-0.125
5730,-0.105,-0.125
5731,-0.105,-0.125
5732,-0.100,-0.120
5733,-0.095,-0.115
5734,-0.095,-0.115
5735,-0.095,-0.115
5736,-0.100,-0.120
5737,-0.105,-0.125
5738,-0.105,-0.125
5739,-0.105,-0.125
5740,-0.100,-0.125
5741,-0.100,-0.125
5742,-0.110,-0.125
5743,-0.115,-0.125
5744,-0.115,-0.125
5745,-0.115,-0.125
5746,-0.115,-0.130
5747,-0.115,-0.135
5748,-0.110,-0.135
5749,-0.105,-0.135
5750,-0.105,-0.135
5751,-0.115,-0.130
5752,-0.115,-0.135
5753,-0.115,-0.135
5754,-0.115,-0.135
5755,-0.115,-0.135
5756,-0.115,-0.135
5757,-0.115,-0.135
5758,-0.115,-0.135
5759,-0.115,-0.135
5760,-0.115,-0.135
5761,-0.115,-0.140
5762,-0.115,-0.145
5763,-0.115,-0.140
5764,-0.115,-0.135
5765,-0.115,-0.135
5766,-0.115,-0.135
5767,-0.115,-0.135
5768,-0.115,-0.135
5769,-0.115,-0.140
5770,-0.115,-0.145
5771,-0.115,-0.140
5772,-0.115,-0.135
5773,-0.110,-0.130
5774,-0.100,-0.125
5775,-0.090,-0.125
5776,-0.080,-0.125
5777,-0.070,-0.120
5778,-0.065,-0.115
5779,-0.060,-0.110
5780,-0.055,-0.105
5781,-0.050,-0.100
5782,-0.045,-0.095
5783,-0.040,-0.095
5784,-0.030,-0.095
5785,-0.020,-0.090
5786,-0.010,-0.085
5787,0.000,-0.080
5788,0.005,-0.075
5789,0.000,-0.080
5790,-0.005,-0.085
5791,-0.010,-0.085
5792,-0.015,-0.090
5793,-0.015,-0.095
5794,-0.030,-0.090
5795,-0.045,-0.085
5796,-0.050,-0.095
5797,-0.055,-0.105
5798,-0.075,-0.110
5799,-0.095,-0.115
5800,-0.100,-0.125
5801,-0.105,-0.135
5802,-0.105,-0.135
5803,-0.105,-0.135
5804,-0.110,-0.135
5805,-0.115,-0.135
5806,-0.125,-0.140
5807,-0.135,-0.145
5808,-0.130,-0.145
5809,-0.125,-0.145
5810,-0.125,-0.140
5811,-0.125,-0.135
5812,-0.130,-0.140
5813,-0.135,-0.145
5814,-0.130,-0.145
5815,-0.125,-0.145
5816,-0.120,-0.145
5817,-0.115,-0.145
5818,-0.120,-0.140
5819,-0.125,-0.135
5820,-0.120,-0.135
5821,-0.115,-0.135
5822,-0.120,-0.140
5823,-0.125,-0.145
5824,-0.125,-0.140
5825,-0.125,-0.135
5826,-0.120,-0.130
5827,-0.115,-0.125
5828,-0.110,-0.130
5829,-0.105,-0.135
5830,-0.100,-0.130
5831,-0.110,-0.125
5832,-0.130,-0.125
5833,-0.135,-0.125
5834,-0.125,-0.125
5835,0.020,-0.125
5836,0.170,-0.125
5837,0.445,-0.090
5838,0.720,-0.050
5839,0.975,0.010
5840,1.175,0.065
5841,1.045,0.060
5842,0.870,0.030
5843,0.545,-0.105
5844,0.215,-0.235
5845,-0.110,-0.365
5846,-0.345,-0.470
5847,-0.350,-0.520
5848,-0.315,-0.520
5849,-0.190,-0.420
5850,-0.105,-0.310
5851,-0.080,-0.195
5852,-0.065,-0.110
5853,-0.075,-0.070
5854,-0.085,-0.045
5855,-0.085,-0.045
5856,-0.085,-0.045
5857,-0.085,-0.050
5858,-0.085,-0.055
5859,-0.080,-0.050
5860,-0.075,-0.045
5861,-0.070,-0.050
5862,-0.065,-0.055
5863,-0.070,-0.055
5864,-0.070,-0.055
5865,-0.060,-0.050
5866,-0.055,-0.045
5867,-0.060,-0.045
5868,-0.065,-0.045
5869,-0.065,-0.040
5870,-0.065,-0.035
5871,-0.065,-0.040
5872,-0.060,-0.040
5873,-0.050,-0.030
5874,-0.045,-0.025
5875,-0.045,-0.025
5876,-0.040,-0.025
5877,-0.035,-0.025
5878,-0.030,-0.020
5879,-0.025,-0.015
5880,-0.020,-0.010
5881,-0.015,-0.005
5882,-0.010,-0.005
5883,-0.005,-0.005
5884,-0.010,0.000
5885,-0.015,0.005
5886,0.010,0.010
5887,0.025,0.015
5888,0.030,0.020
5889,0.035,0.025
5890,0.035,0.025
5891,0.040,0.025
5892,0.055,0.035
5893,0.065,0.045
5894,0.070,0.055
5895,0.080,0.065
5896,0.095,0.080
5897,0.105,0.090
5898,0.110,0.100
5899,0.120,0.105
5900,0.135,0.105
5901,0.145,0.110
5902,0.150,0.120
5903,0.160,0.125
5904,0.170,0.125
5905,0.180,0.130
5906,0.190,0.140
5907,0.190,0.145
5908,0.180,0.145
5909,0.175,0.145
5910,0.180,0.145
5911,0.185,0.140
5912,0.185,0.130
5913,0.170,0.120
5914,0.150,0.110
5915,0.125,0.090
5916,0.100,0.070
5917,0.075,0.045
5918,0.055,0.025
5919,0.035,0.010
5920,0.015,-0.005
5921,-0.005,-0.020
5922,-0.025,-0.035
5923,-0.045,-0.060
5924,-0.065,-0.085
5925,-0.080,-0.095
5926,-0.095,-0.105
5927,-0.105,-0.105
5928,-0.115,-0.105
5929,-0.115,-0.110
5930,-0.115,-0.115
5931,-0.125,-0.125
5932,-0.135,-0.135
5933,-0.125,-0.135
5934,-0.115,-0.135
5935,-0.120,-0.135
5936,-0.125,-0.135
5937,-0.125,-0.135
5938,-0.125,-0.135
5939,-0.125,-0.135
5940,-0.125,-0.135
5941,-0.120,-0.135
5942,-0.115,-0.135
5943,-0.120,-0.130
5944,-0.125,-0.125
5945,-0.130,-0.130
5946,-0.135,-0.135
5947,-0.130,-0.130
5948,-0.120,-0.125
5949,-0.110,-0.125
5950,-0.105,-0.125
5951,-0.105,-0.125
5952,-0.105,-0.125
5953,-0.105,-0.120
5954,-0.105,-0.115
5955,-0.100,-0.115
5956,-0.095,-0.115
5957,-0.100,-0.115
5958,-0.105,-0.115
5959,-0.115,-0.115
5960,-0.105,-0.115
5961,-0.095,-0.115
5962,-0.100,-0.115
5963,-0.105,-0.115
5964,-0.105,-0.115
5965,-0.105,-0.115
5966,-0.105,-0.115
5967,-0.105,-0.115
5968,-0.105,-0.110
5969,-0.105,-0.105
5970,-0.100,-0.110
5971,-0.095,-0.115
5972,-0.100,-0.115
5973,-0.105,-0.115
5974,-0.115,-0.115
5975,-0.125,-0.115
5976,-0.120,-0.115
5977,-0.115,-0.115
5978,-0.120,-0.115
5979,-0.125,-0.115
5980,-0.120,-0.130
5981,-0.115,-0.135
5982,-0.120,-0.130
5983,-0.125,-0.125
5984,-0.130,-0.120
5985,-0.135,-0.115
5986,-0.130,-0.120
5987,-0.125,-0.125
5988,-0.120,-0.125
5989,-0.115,-0.125
5990,-0.120,-0.125
5991,-0.125,-0.125
5992,-0.125,-0.125
5993,-0.125,-0.125
5994,-0.130,-0.125
5995,-0.135,-0.125
5996,-0.135,-0.130
5997,-0.135,-0.135
5998,-0.135,-0.130
5999,-0.135,-0.125
6000,-0.135,-0.125
6001,-0.120,-0.125
6002,-0.105,-0.125
6003,-0.105,-0.125
6004,-0.105,-0.125
6005,-0.105,-0.120
6006,-0.105,-0.115
6007,-0.095,-0.110
6008,-0.085,-0.105
6009,-0.085,-0.105
6010,-0.085,-0.105
6011,-0.075,-0.100
6012,-0.065,-0.095
6013,-0.050,-0.095
6014,-0.035,-0.095
6015,-0.035,-0.085
6016,-0.035,-0.075
6017,-0.025,-0.075
6018,-0.015,-0.075
6019,-0.020,-0.085
6020,-0.025,-0.095
6021,-0.040,-0.090
6022,-0.050,-0.085
6023,-0.060,-0.085
6024,-0.075,-0.090
6025,-0.095,-0.100
6026,-0.105,-0.105
6027,-0.110,-0.110
6028,-0.115,-0.120
6029,-0.120,-0.130
6030,-0.130,-0.135
6031,-0.140,-0.135
6032,-0.145,-0.135
6033,-0.150,-0.135
6034,-0.150,-0.135
6035,-0.140,-0.140
6036,-0.135,-0.145
6037,-0.135,-0.145
6038,-0.135,-0.145
6039,-0.140,-0.145
6040,-0.150,-0.145
6041,-0.160,-0.140
6042,-0.160,-0.140
6043,-0.155,-0.145
6044,-0.150,-0.145
6045,-0.145,-0.145
6046,-0.150,-0.145
6047,-0.155,-0.145
6048,-0.150,-0.145
6049,-0.145,-0.145
6050,-0.140,-0.140
6051,-0.135,-0.135
6052,-0.140,-0.135
6053,-0.145,-0.135
6054,-0.140,-0.135
6055,-0.135,-0.135
6056,-0.140,-0.135
6057,-0.145,-0.135
6058,-0.140,-0.140
6059,-0.135,-0.145
6060,-0.145,-0.135
6061,-0.155,-0.125
6062,-0.165,-0.125
6063,-0.120,-0.125
6064,0.000,-0.125
6065,0.195,-0.115
6066,0.450,-0.090
6067,0.720,-0.045
6068,1.000,0.010
6069,1.110,0.050
6070,1.120,0.085
6071,0.900,0.015
6072,0.575,-0.110
6073,0.245,-0.235
6074,-0.080,-0.355
6075,-0.295,-0.440
6076,-0.470,-0.510
6077,-0.390,-0.500
6078,-0.245,-0.460
6079,-0.170,-0.345
6080,-0.105,-0.215
6081,-0.095,-0.145
6082,-0.090,-0.080
6083,-0.090,-0.070
6084,-0.105,-0.055
6085,-0.105,-0.055
6086,-0.105,-0.055
6087,-0.110,-0.055
6088,-0.115,-0.055
6089,-0.110,-0.060
6090,-0.105,-0.065
6091,-0.095,-0.065
6092,-0.085,-0.065
6093,-0.080,-0.060
6094,-0.075,-0.055
6095,-0.085,-0.055
6096,-0.095,-0.055
6097,-0.095,-0.055
6098,-0.095,-0.055
6099,-0.085,-0.050
6100,-0.075,-0.045
6101,-0.075,-0.040
6102,-0.075,-0.035
6103,-0.075,-0.035
6104,-0.075,-0.035
6105,-0.060,-0.035
6106,-0.055,-0.035
6107,-0.050,-0.030
6108,-0.045,-0.025
6109,-0.040,-0.020
6110,-0.035,-0.015
6111,-0.030,-0.015
6112,-0.025,-0.015
6113,-0.030,-0.010
6114,-0.030,-0.005
6115,-0.020,0.000
6116,-0.010,0.005
6117,0.000,0.010
6118,0.010,0.015
6119,0.020,0.020
6120,0.030,0.030
6121,0.040,0.040
6122,0.045,0.050
6123,0.050,0.060
6124,0.060,0.070
6125,0.055,0.065
6126,0.095,0.090
6127,0.115,0.095
6128,0.120,0.100
6129,0.125,0.105
6130,0.130,0.115
6131,0.135,0.125
6132,0.130,0.130
6133,0.125,0.135
6134,0.130,0.130
6135,0.135,0.125
6136,0.160,0.130
6137,0.175,0.135
6138,0.175,0.130
6139,0.175,0.125
6140,0.165,0.120
6141,0.150,0.110
6142,0.135,0.095
6143,0.115,0.080
6144,0.090,0.060
6145,0.070,0.040
6146,0.045,0.015
6147,0.020,0.000
6148,-0.015,-0.015
6149,-0.040,-0.035
6150,-0.055,-0.055
6151,-0.070,-0.070
6152,-0.085,-0.085
6153,-0.095,-0.095
6154,-0.100,-0.100
6155,-0.105,-0.110
6156,-0.110,-0.120
6157,-0.115,-0.125
6158,-0.120,-0.125
6159,-0.130,-0.125
6160,-0.140,-0.125
6161,-0.145,-0.125
6162,-0.145,-0.125
6163,-0.145,-0.125
6164,-0.145,-0.130
6165,-0.145,-0.135
6166,-0.145,-0.135
6167,-0.140,-0.135
6168,-0.135,-0.135
6169,-0.130,-0.135
6170,-0.125,-0.135
6171,-0.125,-0.135
6172,-0.125,-0.135
6173,-0.125,-0.130
6174,-0.125,-0.125
6175,-0.125,-0.125
6176,-0.125,-0.125
6177,-0.115,-0.120
6178,-0.105,-0.115
6179,-0.110,-0.115
6180,-0.115,-0.115
6181,-0.115,-0.115
6182,-0.115,-0.115
6183,-0.110,-0.115
6184,-0.105,-0.115
6185,-0.100,-0.115
6186,-0.095,-0.115
6187,-0.090,-0.110
6188,-0.090,-0.105
6189,-0.100,-0.105
6190,-0.105,-0.105
6191,-0.105,-0.105
6192,-0.100,-0.105
6193,-0.090,-0.105
6194,-0.090,-0.105
6195,-0.100,-0.105
6196,-0.105,-0.105
6197,-0.100,-0.110
6198,-0.095,-0.115
6199,-0.100,-0.115
6200,-0.105,-0.115
6201,-0.100,-0.110
6202,-0.095,-0.105
6203,-0.095,-0.105
6204,-0.095,-0.105
6205,-0.095,-0.110
6206,-0.095,-0.115
6207,-0.100,-0.115
6208,-0.105,-0.115
6209,-0.105,-0.115
6210,-0.110,-0.115
6211,-0.115,-0.115
6212,-0.110,-0.120
6213,-0.105,-0.125
6214,-0.100,-0.125
6215,-0.095,-0.125
6216,-0.095,-0.120
6217,-0.095,-0.115
6218,-0.100,-0.115
6219,-0.105,-0.115
6220,-0.105,-0.115
6221,-0.105,-0.115
6222,-0.105,-0.120
6223,-0.105,-0.125
6224,-0.105,-0.125
6225,-0.105,-0.125
6226,-0.105,-0.120
6227,-0.105,-0.115
6228,-0.100,-0.120
6229,-0.095,-0.125
6230,-0.080,-0.125
6231,-0.075,-0.120
6232,-0.070,-0.110
6233,-0.060,-0.105
6234,-0.050,-0.105
6235,-0.045,-0.105
6236,-0.040,-0.100
6237,-0.035,-0.095
6238,-0.030,-0.090
6239,-0.015,-0.085
6240,0.000,-0.080
6241,0.005,-0.075
6242,0.000,-0.070
6243,-0.005,-0.070
6244,0.000,-0.080
6245,0.005,-0.085
6246,0.005,-0.085
6247,0.005,-0.085
6248,0.000,-0.080
6249,-0.015,-0.075
6250,-0.005,-0.075
6251,-0.040,-0.090
6252,-0.045,-0.095
6253,-0.070,-0.095
6254,-0.095,-0.095
6255,-0.100,-0.105
6256,-0.105,-0.115
6257,-0.105,-0.125
6258,-0.105,-0.135
6259,-0.115,-0.135
6260,-0.125,-0.135
6261,-0.120,-0.140
6262,-0.115,-0.145
6263,-0.115,-0.140
6264,-0.115,-0.135
6265,-0.115,-0.135
6266,-0.115,-0.135
6267,-0.115,-0.135
6268,-0.115,-0.135
6269,-0.115,-0.135
6270,-0.115,-0.135
6271,-0.115,-0.135
6272,-0.115,-0.135
6273,-0.115,-0.135
6274,-0.115,-0.135
6275,-0.115,-0.135
6276,-0.115,-0.135
6277,-0.115,-0.135
6278,-0.115,-0.135
6279,-0.110,-0.130
6280,-0.105,-0.125
6281,-0.100,-0.125
6282,-0.095,-0.125
6283,-0.095,-0.130
6284,-0.095,-0.135
6285,-0.095,-0.130
6286,-0.095,-0.125
6287,-0.095,-0.125
6288,-0.120,-0.125
6289,-0.150,-0.120
6290,-0.090,-0.120
6291,-0.020,-0.130
6292,0.175,-0.120
6293,0.370,-0.105
6294,0.680,-0.080
6295,0.975,-0.055
6296,1.165,-0.040
6297,1.295,-0.030
6298,0.970,-0.075
6299,0.640,-0.130
6300,0.315,-0.240
6301,0.000,-0.340
6302,-0.265,-0.430
6303,-0.430,-0.490
6304,-0.295,-0.450
6305,-0.175,-0.385
6306,-0.110,-0.240
6307,-0.065,-0.125
6308,-0.060,-0.070
6309,-0.055,-0.035
6310,-0.060,-0.035
6311,-0.065,-0.035
6312,-0.070,-0.040
6313,-0.075,-0.045
6314,-0.075,-0.050
6315,-0.075,-0.055
6316,-0.075,-0.055
6317,-0.070,-0.055
6318,-0.060,-0.050
6319,-0.055,-0.045
6320,-0.060,-0.045
6321,-0.065,-0.045
6322,-0.065,-0.045
6323,-0.060,-0.045
6324,-0.050,-0.045
6325,-0.045,-0.045
6326,-0.045,-0.040
6327,-0.045,-0.035
6328,-0.045,-0.030
6329,-0.040,-0.025
6330,-0.030,-0.025
6331,-0.025,-0.025
6332,-0.025,-0.025
6333,-0.025,-0.020
6334,-0.015,-0.005
6335,-0.015,-0.005
6336,-0.015,-0.005
6337,-0.005,-0.005
6338,0.005,-0.005
6339,0.010,0.000
6340,0.015,0.005
6341,0.025,0.015
6342,0.035,0.025
6343,0.040,0.025
6344,0.045,0.025
6345,0.055,0.030
6346,0.065,0.035
6347,0.070,0.045
6348,0.080,0.055
6349,0.095,0.060
6350,0.105,0.070
6351,0.110,0.085
6352,0.120,0.095
6353,0.135,0.100
6354,0.150,0.105
6355,0.165,0.120
6356,0.180,0.130
6357,0.190,0.140
6358,0.200,0.150
6359,0.210,0.160
6360,0.220,0.165
6361,0.230,0.165
6362,0.235,0.165
6363,0.240,0.165
6364,0.245,0.165
6365,0.250,0.170
6366,0.250,0.175
6367,0.240,0.170
6368,0.225,0.155
6369,0.210,0.140
6370,0.190,0.115
6371,0.170,0.090
6372,0.145,0.070
6373,0.120,0.050
6374,0.090,0.030
6375,0.115,0.045
6376,0.030,-0.015
6377,0.005,-0.035
6378,-0.020,-0.055
6379,-0.045,-0.075
6380,-0.060,-0.085
6381,-0.075,-0.095
6382,-0.090,-0.105
6383,-0.105,-0.115
6384,-0.115,-0.120
6385,-0.125,-0.125
6386,-0.125,-0.130
6387,-0.125,-0.135
6388,-0.130,-0.135
6389,-0.135,-0.135
6390,-0.135,-0.140
6391,-0.135,-0.145
6392,-0.135,-0.145
6393,-0.135,-0.145
6394,-0.135,-0.145
6395,-0.135,-0.145
6396,-0.135,-0.145
6397,-0.135,-0.145
6398,-0.135,-0.145
6399,-0.135,-0.145
6400,-0.135,-0.145
6401,-0.135,-0.145
6402,-0.135,-0.145
6403,-0.135,-0.145
6404,-0.130,-0.145
6405,-0.125,-0.145
6406,-0.130,-0.140
6407,-0.135,-0.135
6408,-0.130,-0.140
6409,-0.125,-0.145
6410,-0.125,-0.145
6411,-0.125,-0.145
6412,-0.120,-0.140
6413,-0.115,-0.135
6414,-0.115,-0.135
6415,-0.115,-0.135
6416,-0.115,-0.135
6417,-0.105,-0.135
6418,-0.095,-0.135
6419,-0.095,-0.125
6420,-0.095,-0.115
6421,-0.095,-0.120
6422,-0.095,-0.125
6423,-0.095,-0.125
6424,-0.095,-0.125
6425,-0.095,-0.125
6426,-0.095,-0.125
6427,-0.095,-0.120
6428,-0.095,-0.115
6429,-0.095,-0.115
6430,-0.095,-0.115
6431,-0.100,-0.120
6432,-0.105,-0.125
6433,-0.105,-0.130
6434,-0.105,-0.135
6435,-0.105,-0.125
6436,-0.105,-0.115
6437,-0.110,-0.120
6438,-0.115,-0.125
6439,-0.115,-0.125
6440,-0.115,-0.125
6441,-0.115,-0.130
6442,-0.115,-0.135
6443,-0.115,-0.130
6444,-0.115,-0.125
6445,-0.120,-0.130
6446,-0.125,-0.135
6447,-0.120,-0.135
6448,-0.115,-0.135
6449,-0.115,-0.140
6450,-0.115,-0.145
6451,-0.115,-0.140
6452,-0.115,-0.135
6453,-0.115,-0.135
6454,-0.115,-0.135
6455,-0.120,-0.135
6456,-0.125,-0.135
6457,-0.125,-0.140
6458,-0.125,-0.145
6459,-0.115,-0.135
6460,-0.120,-0.140
6461,-0.125,-0.145
6462,-0.120,-0.145
6463,-0.115,-0.145
6464,-0.105,-0.145
6465,-0.095,-0.145
6466,-0.085,-0.135
6467,-0.075,-0.125
6468,-0.070,-0.120
6469,-0.065,-0.115
6470,-0.060,-0.115
6471,-0.055,-0.115
6472,-0.055,-0.110
6473,-0.050,-0.105
6474,-0.035,-0.095
6475,-0.025,-0.085
6476,-0.025,-0.085
6477,-0.025,-0.085
6478,-0.015,-0.085
6479,-0.005,-0.085
6480,-0.020,-0.090
6481,-0.025,-0.095
6482,-0.020,-0.100
6483,-0.020,-0.105
6484,-0.030,-0.105
6485,-0.040,-0.105
6486,-0.050,-0.110
6487,-0.065,-0.115
6488,-0.085,-0.115
6489,-0.100,-0.120
6490,-0.110,-0.130
6491,-0.120,-0.135
6492,-0.130,-0.140
6493,-0.135,-0.145
6494,-0.135,-0.150
6495,-0.135,-0.155
6496,-0.135,-0.155
6497,-0.135,-0.155
