'sample interval','V4'
'0.004 sec','mV'
0,9.481
1,9.492
2,9.508
3,9.508
4,9.541
5,9.551
6,9.568
7,9.584
8,9.605
9,9.616
10,9.643
11,9.686
12,9.708
13,9.751
14,9.778
15,9.854
16,9.865
17,9.892
18,9.935
19,9.978
20,10.000
21,10.049
22,10.086
23,10.124
24,10.157
25,10.184
26,10.195
27,10.238
28,10.249
29,10.259
30,10.270
31,10.292
32,10.292
33,10.281
34,10.270
35,10.270
36,10.227
37,10.222
38,10.195
39,10.157
40,10.114
41,10.076
42,10.059
43,9.968
44,9.935
45,9.876
46,9.811
47,9.762
48,9.692
49,9.643
50,9.595
51,9.568
52,9.519
53,9.492
54,9.459
55,9.432
56,9.427
57,9.373
58,9.427
59,9.373
60,9.373
61,9.357
62,9.346
63,9.357
64,9.346
65,9.335
66,9.335
67,9.324
68,9.319
69,9.335
70,9.335
71,9.335
72,9.335
73,9.319
74,9.373
75,9.346
76,9.335
77,9.346
78,9.319
79,9.324
80,9.324
81,9.319
82,9.319
83,9.319
84,9.308
85,9.308
86,9.308
87,9.292
88,9.292
89,9.297
90,9.292
91,9.281
92,9.270
93,9.259
94,9.238
95,9.249
96,9.238
97,9.222
98,9.222
99,9.222
100,9.222
101,9.173
102,9.200
103,9.195
104,9.195
105,9.195
106,9.184
107,9.184
108,9.195
109,9.173
110,9.162
111,9.184
112,9.162
113,9.162
114,9.162
115,9.184
116,9.162
117,9.114
118,9.157
119,9.157
120,9.162
121,9.157
122,9.157
123,9.157
124,9.157
125,9.157
126,9.157
127,9.146
128,9.157
129,9.146
130,9.135
131,9.146
132,9.157
133,9.114
134,9.146
135,9.124
136,9.124
137,9.135
138,9.135
139,9.124
140,9.135
141,9.124
142,9.124
143,9.124
144,9.114
145,9.124
146,9.135
147,9.114
148,9.124
149,9.124
150,9.124
151,9.124
152,9.135
153,9.114
154,9.135
155,9.124
156,9.124
157,9.114
158,9.124
159,9.146
160,9.086
161,9.124
162,9.124
163,9.114
164,9.114
165,9.124
166,9.124
167,9.124
168,9.124
169,9.114
170,9.124
171,9.124
172,9.114
173,9.114
174,9.124
175,9.124
176,9.086
177,9.114
178,9.114
179,9.114
180,9.103
181,9.103
182,9.103
183,9.103
184,9.103
185,9.103
186,9.114
187,9.114
188,9.103
189,9.103
190,9.103
191,9.103
192,9.103
193,9.103
194,9.103
195,9.103
196,9.114
197,9.124
198,9.114
199,9.114
200,9.114
201,9.114
202,9.114
203,9.114
204,9.114
205,9.124
206,9.114
207,9.114
208,9.114
209,9.103
210,9.103
211,9.114
212,9.114
213,9.124
214,9.124
215,9.124
216,9.124
217,9.114
218,9.135
219,9.076
220,9.114
221,9.114
222,9.135
223,9.124
224,9.124
225,9.124
226,9.135
227,9.135
228,9.135
229,9.146
230,9.135
231,9.135
232,9.146
233,9.146
234,9.146
235,9.114
236,9.157
237,9.146
238,9.157
239,9.157
240,9.157
241,9.157
242,9.162
243,9.162
244,9.157
245,9.162
246,9.162
247,9.162
248,9.157
249,9.162
250,9.184
251,9.162
252,9.162
253,9.173
254,9.173
255,9.184
256,9.195
257,9.195
258,9.184
259,9.195
260,9.195
261,9.200
262,9.184
263,9.238
264,9.238
265,9.238
266,9.259
267,9.281
268,9.270
269,9.259
270,9.238
271,9.238
272,9.238
273,9.222
274,9.238
275,9.259
276,9.249
277,9.238
278,9.200
279,9.238
280,9.238
281,9.222
282,9.200
283,9.195
284,9.195
285,9.200
286,9.200
287,9.200
288,9.222
289,9.200
290,9.222
291,9.211
292,9.222
293,9.222
294,9.184
295,9.184
296,9.124
297,9.146
298,9.249
299,9.449
300,9.751
301,10.086
302,10.449
303,10.616
304,10.643
305,10.595
306,10.605
307,10.568
308,10.470
309,10.146
310,9.432
311,8.697
312,8.676
313,8.962
314,9.114
315,9.146
316,9.114
317,9.103
318,9.146
319,9.227
320,9.259
321,9.227
322,9.297
323,9.308
324,9.308
325,9.308
326,9.335
327,9.346
328,9.346
329,9.346
330,9.373
331,9.373
332,9.395
333,9.395
334,9.416
335,9.416
336,9.416
337,9.470
338,9.449
339,9.449
340,9.459
341,9.449
342,9.470
343,9.492
344,9.497
345,9.492
346,9.519
347,9.508
348,9.530
349,9.551
350,9.568
351,9.568
352,9.605
353,9.627
354,9.643
355,9.643
356,9.665
357,9.692
358,9.719
359,9.762
360,9.778
361,9.811
362,9.854
363,9.892
364,9.924
365,9.951
366,10.011
367,10.049
368,10.092
369,10.114
370,10.157
371,10.184
372,10.211
373,10.238
374,10.259
375,10.281
376,10.297
377,10.297
378,10.308
379,10.297
380,10.308
381,10.270
382,10.259
383,10.227
384,10.195
385,10.162
386,10.114
387,10.070
388,10.022
389,9.935
390,9.886
391,9.822
392,9.778
393,9.719
394,9.665
395,9.595
396,9.605
397,9.508
398,9.459
399,9.432
400,9.395
401,9.373
402,9.357
403,9.335
404,9.319
405,9.319
406,9.292
407,9.281
408,9.281
409,9.281
410,9.270
411,9.281
412,9.281
413,9.281
414,9.281
415,9.281
416,9.292
417,9.270
418,9.281
419,9.270
420,9.259
421,9.281
422,9.292
423,9.308
424,9.292
425,9.270
426,9.281
427,9.281
428,9.270
429,9.259
430,9.259
431,9.259
432,9.259
433,9.227
434,9.222
435,9.227
436,9.222
437,9.222
438,9.222
439,9.157
440,9.195
441,9.184
442,9.162
443,9.157
444,9.146
445,9.146
446,9.146
447,9.124
448,9.114
449,9.114
450,9.103
451,9.114
452,9.086
453,9.103
454,9.092
455,9.049
456,9.086
457,9.076
458,9.086
459,9.076
460,9.086
461,9.086
462,9.070
463,9.070
464,9.070
465,9.070
466,9.070
467,9.070
468,9.070
469,9.049
470,9.059
471,9.038
472,9.059
473,9.038
474,9.038
475,9.049
476,9.059
477,9.038
478,9.038
479,9.038
480,9.049
481,9.049
482,9.000
483,9.038
484,9.038
485,9.049
486,9.038
487,9.038
488,9.038
489,9.038
490,9.038
491,9.038
492,9.049
493,9.038
494,9.027
495,9.038
496,9.038
497,9.027
498,9.000
499,9.027
500,9.027
501,9.027
502,9.027
503,9.038
504,9.038
505,9.049
506,9.027
507,9.027
508,9.038
509,9.038
510,9.038
511,9.027
512,9.027
513,9.038
514,9.011
515,9.038
516,9.027
517,9.027
518,9.027
519,9.027
520,9.027
521,9.027
522,9.027
523,9.027
524,9.038
525,9.022
526,9.027
527,9.027
528,9.022
529,9.027
530,9.011
531,9.027
532,9.022
533,9.027
534,9.011
535,9.011
536,9.011
537,9.011
538,9.022
539,9.022
540,9.022
541,8.978
542,9.022
543,9.022
544,9.027
545,9.022
546,9.022
547,9.011
548,9.022
549,9.027
550,9.027
551,9.027
552,9.027
553,9.027
554,9.027
555,9.027
556,9.022
557,8.989
558,9.038
559,9.038
560,9.038
561,9.027
562,9.049
563,9.049
564,9.038
565,9.049
566,9.049
567,9.049
568,9.038
569,9.049
570,9.049
571,9.070
572,9.070
573,9.049
574,9.070
575,9.049
576,9.070
577,9.059
578,9.070
579,9.070
580,9.070
581,9.070
582,9.070
583,9.076
584,9.076
585,9.076
586,9.076
587,9.076
588,9.086
589,9.086
590,9.076
591,9.076
592,9.086
593,9.086
594,9.086
595,9.086
596,9.092
597,9.076
598,9.092
599,9.092
600,9.070
601,9.103
602,9.103
603,9.124
604,9.114
605,9.124
606,9.146
607,9.162
608,9.157
609,9.173
610,9.200
611,9.195
612,9.195
613,9.184
614,9.184
615,9.162
616,9.135
617,9.184
618,9.195
619,9.184
620,9.184
621,9.184
622,9.184
623,9.184
624,9.157
625,9.124
626,9.146
627,9.124
628,9.135
629,9.114
630,9.135
631,9.135
632,9.114
633,9.135
634,9.146
635,9.157
636,9.157
637,9.157
638,9.124
639,9.076
640,9.086
641,9.195
642,9.357
643,9.676
644,9.968
645,10.346
646,10.562
647,10.605
648,10.605
649,10.573
650,10.551
651,10.443
652,10.184
653,9.541
654,8.827
655,8.573
656,8.778
657,8.968
658,9.070
659,9.011
660,9.038
661,9.059
662,9.124
663,9.195
664,9.227
665,9.222
666,9.227
667,9.238
668,9.259
669,9.270
670,9.270
671,9.281
672,9.292
673,9.292
674,9.297
675,9.357
676,9.324
677,9.324
678,9.335
679,9.335
680,9.346
681,9.346
682,9.373
683,9.384
684,9.384
685,9.384
686,9.395
687,9.416
688,9.427
689,9.427
690,9.427
691,9.449
692,9.449
693,9.459
694,9.492
695,9.497
696,9.519
697,9.530
698,9.568
699,9.573
700,9.595
701,9.627
702,9.686
703,9.692
704,9.730
705,9.768
706,9.811
707,9.843
708,9.886
709,9.914
710,9.968
711,10.011
712,10.038
713,10.059
714,10.103
715,10.114
716,10.146
717,10.162
718,10.211
719,10.200
720,10.211
721,10.211
722,10.222
723,10.200
724,10.195
725,10.162
726,10.146
727,10.114
728,10.076
729,10.027
730,9.968
731,9.924
732,9.854
733,9.800
734,9.741
735,9.692
736,9.632
737,9.573
738,9.530
739,9.481
740,9.449
741,9.416
742,9.384
743,9.357
744,9.319
745,9.319
746,9.292
747,9.281
748,9.270
749,9.259
750,9.249
751,9.259
752,9.249
753,9.249
754,9.238
755,9.259
756,9.249
757,9.238
758,9.249
759,9.249
760,9.249
761,9.222
762,9.259
763,9.259
764,9.238
765,9.259
766,9.238
767,9.238
768,9.227
769,9.222
770,9.222
771,9.211
772,9.222
773,9.222
774,9.222
775,9.222
776,9.222
777,9.162
778,9.184
779,9.173
780,9.162
781,9.157
782,9.146
783,9.146
784,9.135
785,9.114
786,9.114
787,9.114
788,9.103
789,9.103
790,9.086
791,9.086
792,9.076
793,9.070
794,9.076
795,9.059
796,9.070
797,9.070
798,9.070
799,9.049
800,9.059
801,9.038
802,9.038
803,9.049
804,9.027
805,9.038
806,9.027
807,9.027
808,9.022
809,9.000
810,9.011
811,9.027
812,9.011
813,9.027
814,9.027
815,9.011
816,9.027
817,9.027
818,9.027
819,9.027
820,9.000
821,9.027
822,9.038
823,9.022
824,9.027
825,9.027
826,9.027
827,9.027
828,9.027
829,9.027
830,9.038
831,9.027
832,9.022
833,9.011
834,9.027
835,9.027
836,8.978
837,9.011
838,9.011
839,9.027
840,9.027
841,9.027
842,9.022
843,9.027
844,9.011
845,9.027
846,9.027
847,9.027
848,9.011
849,9.027
850,9.027
851,9.011
852,9.022
853,9.038
854,9.027
855,9.027
856,9.022
857,9.027
858,9.027
859,9.027
860,9.022
861,9.011
862,9.027
863,8.968
864,9.027
865,9.022
866,9.027
867,9.027
868,9.011
869,9.027
870,9.022
871,9.027
872,9.038
873,9.027
874,9.038
875,9.027
876,9.011
877,9.027
878,9.027
879,9.011
880,9.027
881,9.027
882,9.027
883,9.027
884,9.049
885,9.022
886,9.027
887,9.027
888,9.027
889,9.038
890,9.049
891,9.070
892,9.038
893,9.038
894,9.070
895,9.027
896,9.038
897,9.038
898,9.070
899,9.049
900,9.070
901,9.049
902,9.070
903,9.070
904,9.070
905,9.059
906,9.070
907,9.059
908,9.059
909,9.070
910,9.070
911,9.070
912,9.076
913,9.076
914,9.070
915,9.086
916,9.070
917,9.070
918,9.076
919,9.076
920,9.076
921,9.086
922,9.070
923,9.092
924,9.086
925,9.086
926,9.086
927,9.086
928,9.092
929,9.103
930,9.114
931,9.114
932,9.124
933,9.124
934,9.114
935,9.114
936,9.135
937,9.114
938,9.103
939,9.146
940,9.135
941,9.146
942,9.162
943,9.184
944,9.184
945,9.195
946,9.222
947,9.227
948,9.227
949,9.222
950,9.211
951,9.195
952,9.173
953,9.162
954,9.195
955,9.200
956,9.195
957,9.200
958,9.200
959,9.195
960,9.173
961,9.146
962,9.146
963,9.157
964,9.157
965,9.146
966,9.135
967,9.146
968,9.157
969,9.162
970,9.162
971,9.184
972,9.162
973,9.162
974,9.162
975,9.124
976,9.157
977,9.227
978,9.373
979,9.616
980,9.946
981,10.319
982,10.562
983,10.605
984,10.627
985,10.605
986,10.568
987,10.459
988,10.211
989,9.551
990,8.811
991,8.492
992,8.665
993,8.865
994,9.022
995,9.027
996,9.022
997,9.000
998,9.086
999,9.184
1000,9.227
1001,9.259
1002,9.259
1003,9.259
1004,9.292
1005,9.292
1006,9.292
1007,9.308
1008,9.308
1009,9.308
1010,9.335
1011,9.335
1012,9.324
1013,9.357
1014,9.373
1015,9.373
1016,9.373
1017,9.373
1018,9.384
1019,9.395
1020,9.405
1021,9.416
1022,9.416
1023,9.427
1024,9.492
1025,9.449
1026,9.459
1027,9.470
1028,9.481
1029,9.508
1030,9.530
1031,9.541
1032,9.562
1033,9.573
1034,9.616
1035,9.632
1036,9.686
1037,9.697
1038,9.730
1039,9.768
1040,9.843
1041,9.843
1042,9.886
1043,9.935
1044,9.968
1045,10.011
1046,10.059
1047,10.103
1048,10.124
1049,10.157
1050,10.195
1051,10.211
1052,10.238
1053,10.270
1054,10.281
1055,10.297
1056,10.319
1057,10.281
1058,10.281
1059,10.259
1060,10.249
1061,10.222
1062,10.200
1063,10.157
1064,10.114
1065,10.076
1066,10.022
1067,9.962
1068,9.903
1069,9.854
1070,9.789
1071,9.741
1072,9.692
1073,9.643
1074,9.605
1075,9.551
1076,9.519
1077,9.481
1078,9.449
1079,9.432
1080,9.395
1081,9.362
1082,9.357
1083,9.395
1084,9.346
1085,9.335
1086,9.319
1087,9.308
1088,9.319
1089,9.319
1090,9.308
1091,9.297
1092,9.297
1093,9.297
1094,9.308
1095,9.308
1096,9.308
1097,9.297
1098,9.297
1099,9.335
1100,9.292
1101,9.297
1102,9.297
1103,9.292
1104,9.292
1105,9.292
1106,9.292
1107,9.281
1108,9.281
1109,9.259
1110,9.281
1111,9.259
1112,9.259
1113,9.238
1114,9.227
1115,9.211
1116,9.222
1117,9.238
1118,9.200
1119,9.200
1120,9.195
1121,9.195
1122,9.184
1123,9.162
1124,9.173
1125,9.157
1126,9.162
1127,9.146
1128,9.135
1129,9.146
1130,9.135
1131,9.124
1132,9.124
1133,9.124
1134,9.114
1135,9.103
1136,9.103
1137,9.103
1138,9.103
1139,9.092
1140,9.092
1141,9.103
1142,9.049
1143,9.086
1144,9.086
1145,9.086
1146,9.086
1147,9.086
1148,9.092
1149,9.076
1150,9.086
1151,9.086
1152,9.076
1153,9.070
1154,9.076
1155,9.086
1156,9.076
1157,9.086
1158,9.059
1159,9.076
1160,9.076
1161,9.070
1162,9.076
1163,9.070
1164,9.070
1165,9.070
1166,9.070
1167,9.076
1168,9.076
1169,9.086
1170,9.076
1171,9.076
1172,9.070
1173,9.086
1174,9.070
1175,9.076
1176,9.076
1177,9.059
1178,9.076
1179,9.076
1180,9.076
1181,9.086
1182,9.070
1183,9.076
1184,9.076
1185,9.070
1186,9.070
1187,9.076
1188,9.076
1189,9.086
1190,9.070
1191,9.076
1192,9.076
1193,9.070
1194,9.076
1195,9.076
1196,9.070
1197,9.086
1198,9.070
1199,9.076
1200,9.086
1201,9.038
1202,9.070
1203,9.076
1204,9.076
1205,9.070
1206,9.070
1207,9.076
1208,9.076
1209,9.076
1210,9.086
1211,9.086
1212,9.086
1213,9.086
1214,9.086
1215,9.086
1216,9.086
1217,9.049
1218,9.076
1219,9.086
1220,9.086
1221,9.086
1222,9.086
1223,9.086
1224,9.086
1225,9.086
1226,9.086
1227,9.103
1228,9.092
1229,9.092
1230,9.092
1231,9.103
1232,9.086
1233,9.086
1234,9.103
1235,9.114
1236,9.114
1237,9.103
1238,9.124
1239,9.114
1240,9.114
1241,9.114
1242,9.135
1243,9.124
1244,9.092
1245,9.114
1246,9.124
1247,9.135
1248,9.135
1249,9.124
1250,9.124
1251,9.124
1252,9.135
1253,9.135
1254,9.157
1255,9.157
1256,9.157
1257,9.146
1258,9.146
1259,9.157
1260,9.114
1261,9.146
1262,9.157
1263,9.162
1264,9.157
1265,9.162
1266,9.162
1267,9.162
1268,9.173
1269,9.162
1270,9.184
1271,9.173
1272,9.173
1273,9.173
1274,9.184
1275,9.195
1276,9.173
1277,9.200
1278,9.195
1279,9.200
1280,9.222
1281,9.227
1282,9.249
1283,9.259
1284,9.281
1285,9.281
1286,9.281
1287,9.281
1288,9.270
1289,9.249
1290,9.259
1291,9.259
1292,9.238
1293,9.281
1294,9.281
1295,9.259
1296,9.270
1297,9.259
1298,9.281
1299,9.249
1300,9.249
1301,9.222
1302,9.227
1303,9.195
1304,9.227
1305,9.222
1306,9.222
1307,9.249
1308,9.227
1309,9.238
1310,9.259
1311,9.259
1312,9.259
1313,9.227
1314,9.184
1315,9.157
1316,9.195
1317,9.319
1318,9.551
1319,9.924
1320,10.270
1321,10.573
1322,10.697
1323,10.697
1324,10.697
1325,10.654
1326,10.605
1327,10.470
1328,10.059
1329,9.227
1330,8.643
1331,8.762
1332,9.038
1333,9.157
1334,9.173
1335,9.146
1336,9.162
1337,9.222
1338,9.281
1339,9.324
1340,9.324
1341,9.324
1342,9.335
1343,9.357
1344,9.357
1345,9.373
1346,9.405
1347,9.405
1348,9.416
1349,9.416
1350,9.416
1351,9.432
1352,9.443
1353,9.449
1354,9.449
1355,9.459
1356,9.481
1357,9.492
1358,9.492
1359,9.497
1360,9.497
1361,9.497
1362,9.551
1363,9.519
1364,9.551
1365,9.562
1366,9.568
1367,9.584
1368,9.605
1369,9.627
1370,9.643
1371,9.643
1372,9.654
1373,9.676
1374,9.697
1375,9.741
1376,9.768
1377,9.800
1378,9.843
1379,9.865
1380,9.886
1381,9.924
1382,9.951
1383,10.000
1384,10.059
1385,10.076
1386,10.114
1387,10.157
1388,10.184
1389,10.211
1390,10.259
1391,10.281
1392,10.308
1393,10.324
1394,10.335
1395,10.357
1396,10.362
1397,10.357
1398,10.357
1399,10.346
1400,10.335
1401,10.335
1402,10.308
1403,10.270
1404,10.227
1405,10.211
1406,10.146
1407,10.076
1408,10.011
1409,9.951
1410,9.892
1411,9.843
1412,9.778
1413,9.730
1414,9.676
1415,9.616
1416,9.573
1417,9.530
1418,9.497
1419,9.459
1420,9.443
1421,9.449
1422,9.416
1423,9.395
1424,9.373
1425,9.373
1426,9.373
1427,9.357
1428,9.362
1429,9.373
1430,9.346
1431,9.335
1432,9.346
1433,9.346
1434,9.346
1435,9.346
1436,9.346
1437,9.384
1438,9.373
1439,9.373
1440,9.373
1441,9.357
1442,9.357
1443,9.357
1444,9.362
1445,9.357
1446,9.362
1447,9.357
1448,9.357
1449,9.335
1450,9.335
1451,9.324
1452,9.308
1453,9.319
1454,9.319
1455,9.292
1456,9.281
1457,9.270
1458,9.259
1459,9.270
1460,9.249
1461,9.227
1462,9.227
1463,9.227
1464,9.184
1465,9.222
1466,9.222
1467,9.200
1468,9.195
1469,9.184
1470,9.184
1471,9.184
1472,9.173
1473,9.162
1474,9.184
1475,9.162
1476,9.173
1477,9.157
1478,9.157
1479,9.157
1480,9.114
1481,9.157
1482,9.157
1483,9.146
1484,9.146
1485,9.135
1486,9.135
1487,9.124
1488,9.124
1489,9.124
1490,9.135
1491,9.124
1492,9.135
1493,9.114
1494,9.114
1495,9.124
1496,9.092
1497,9.103
1498,9.114
1499,9.124
1500,9.114
1501,9.124
1502,9.114
1503,9.114
1504,9.114
1505,9.103
1506,9.114
1507,9.103
1508,9.103
1509,9.124
1510,9.103
1511,9.124
1512,9.103
1513,9.103
1514,9.114
1515,9.114
1516,9.114
1517,9.103
1518,9.114
1519,9.114
1520,9.114
1521,9.103
1522,9.124
1523,9.076
1524,9.114
1525,9.103
1526,9.103
1527,9.092
1528,9.103
1529,9.114
1530,9.103
1531,9.103
1532,9.103
1533,9.103
1534,9.092
1535,9.086
1536,9.092
1537,9.103
1538,9.103
1539,9.070
1540,9.086
1541,9.086
1542,9.086
1543,9.103
1544,9.092
1545,9.086
1546,9.086
1547,9.092
1548,9.092
1549,9.103
1550,9.114
1551,9.103
1552,9.092
1553,9.086
1554,9.103
1555,9.070
1556,9.103
1557,9.103
1558,9.086
1559,9.103
1560,9.092
1561,9.103
1562,9.092
1563,9.086
1564,9.092
1565,9.103
1566,9.086
1567,9.103
1568,9.103
1569,9.103
1570,9.103
1571,9.092
1572,9.114
1573,9.114
1574,9.114
1575,9.124
1576,9.135
1577,9.114
1578,9.114
1579,9.124
1580,9.135
1581,9.135
1582,9.103
1583,9.135
1584,9.114
1585,9.135
1586,9.124
1587,9.124
1588,9.135
1589,9.135
1590,9.135
1591,9.135
1592,9.157
1593,9.135
1594,9.146
1595,9.146
1596,9.157
1597,9.157
1598,9.135
1599,9.157
1600,9.157
1601,9.157
1602,9.157
1603,9.157
1604,9.157
1605,9.157
1606,9.173
1607,9.162
1608,9.184
1609,9.173
1610,9.184
1611,9.173
1612,9.184
1613,9.195
1614,9.173
1615,9.184
1616,9.195
1617,9.195
1618,9.200
1619,9.222
1620,9.222
1621,9.222
1622,9.222
1623,9.238
1624,9.249
1625,9.211
1626,9.270
1627,9.292
1628,9.292
1629,9.292
1630,9.281
1631,9.270
1632,9.259
1633,9.238
1634,9.249
1635,9.281
1636,9.270
1637,9.270
1638,9.259
1639,9.270
1640,9.281
1641,9.222
1642,9.222
1643,9.200
1644,9.222
1645,9.222
1646,9.222
1647,9.222
1648,9.211
1649,9.222
1650,9.227
1651,9.238
1652,9.227
1653,9.227
1654,9.249
1655,9.222
1656,9.184
1657,9.114
1658,9.200
1659,9.335
1660,9.568
1661,9.886
1662,10.238
1663,10.573
1664,10.692
1665,10.697
1666,10.697
1667,10.686
1668,10.616
1669,10.508
1670,10.059
1671,9.308
1672,8.692
1673,8.676
1674,8.935
1675,9.086
1676,9.124
1677,9.103
1678,9.114
1679,9.157
1680,9.249
1681,9.281
1682,9.297
1683,9.297
1684,9.362
1685,9.335
1686,9.335
1687,9.346
1688,9.346
1689,9.384
1690,9.373
1691,9.384
1692,9.395
1693,9.384
1694,9.384
1695,9.416
1696,9.432
1697,9.427
1698,9.443
1699,9.449
1700,9.481
1701,9.459
1702,9.459
1703,9.470
1704,9.492
1705,9.492
1706,9.497
1707,9.508
1708,9.530
1709,9.530
1710,9.541
1711,9.541
1712,9.568
1713,9.568
1714,9.584
1715,9.595
1716,9.632
1717,9.654
1718,9.686
1719,9.708
1720,9.730
1721,9.751
1722,9.800
1723,9.832
1724,9.886
1725,9.892
1726,9.935
1727,10.011
1728,10.027
1729,10.059
1730,10.086
1731,10.124
1732,10.157
1733,10.184
1734,10.211
1735,10.227
1736,10.249
1737,10.270
1738,10.281
1739,10.292
1740,10.308
1741,10.292
1742,10.270
1743,10.270
1744,10.227
1745,10.200
1746,10.162
1747,10.124
1748,10.086
1749,10.049
1750,9.978
1751,9.924
1752,9.865
1753,9.811
1754,9.751
1755,9.697
1756,9.654
1757,9.605
1758,9.568
1759,9.551
1760,9.492
1761,9.449
1762,9.449
1763,9.416
1764,9.384
1765,9.395
1766,9.373
1767,9.357
1768,9.346
1769,9.335
1770,9.335
1771,9.324
1772,9.319
1773,9.319
1774,9.324
1775,9.319
1776,9.324
1777,9.335
1778,9.319
1779,9.319
1780,9.319
1781,9.319
1782,9.319
1783,9.319
1784,9.319
1785,9.308
1786,9.357
1787,9.319
1788,9.308
1789,9.297
1790,9.319
1791,9.297
1792,9.292
1793,9.292
1794,9.281
1795,9.292
1796,9.270
1797,9.259
1798,9.238
1799,9.238
1800,9.227
1801,9.227
1802,9.184
1803,9.200
1804,9.200
1805,9.195
1806,9.184
1807,9.195
1808,9.162
1809,9.162
1810,9.157
1811,9.157
1812,9.157
1813,9.146
1814,9.146
1815,9.124
1816,9.135
1817,9.135
1818,9.103
1819,9.124
1820,9.103
1821,9.124
1822,9.114
1823,9.114
1824,9.103
1825,9.092
1826,9.086
1827,9.103
1828,9.092
1829,9.086
1830,9.086
1831,9.086
1832,9.086
1833,9.103
1834,9.086
1835,9.086
1836,9.076
1837,9.086
1838,9.086
1839,9.076
1840,9.086
1841,9.086
1842,9.086
1843,9.086
1844,9.086
1845,9.070
1846,9.076
1847,9.076
1848,9.070
1849,9.076
1850,9.059
1851,9.070
1852,9.076
1853,9.070
1854,9.070
1855,9.086
1856,9.076
1857,9.086
1858,9.070
1859,9.070
1860,9.070
1861,9.038
1862,9.070
1863,9.059
1864,9.070
1865,9.070
1866,9.076
1867,9.059
1868,9.070
1869,9.059
1870,9.059
1871,9.059
1872,9.049
1873,9.070
1874,9.070
1875,9.059
1876,9.070
1877,9.049
1878,9.070
1879,9.070
1880,9.049
1881,9.070
1882,9.070
1883,9.059
1884,9.070
1885,9.049
1886,9.049
1887,9.059
1888,9.059
1889,9.070
1890,9.049
1891,9.059
1892,9.070
1893,9.038
1894,9.049
1895,9.038
1896,9.049
1897,9.049
1898,9.070
1899,9.049
1900,9.059
1901,9.070
1902,9.049
1903,9.049
1904,9.011
1905,9.038
1906,9.070
1907,9.070
1908,9.049
1909,9.038
1910,9.038
1911,9.049
1912,9.038
1913,9.038
1914,9.070
1915,9.059
1916,9.076
1917,9.070
1918,9.070
1919,9.076
1920,9.027
1921,9.059
1922,9.070
1923,9.070
1924,9.070
1925,9.070
1926,9.070
1927,9.070
1928,9.076
1929,9.076
1930,9.076
1931,9.076
1932,9.076
1933,9.076
1934,9.092
1935,9.086
1936,9.076
1937,9.076
1938,9.103
1939,9.086
1940,9.076
1941,9.076
1942,9.092
1943,9.103
1944,9.103
1945,9.103
1946,9.103
1947,9.086
1948,9.103
1949,9.103
1950,9.103
1951,9.114
1952,9.103
1953,9.124
1954,9.103
1955,9.114
1956,9.135
1957,9.114
1958,9.103
1959,9.124
1960,9.124
1961,9.146
1962,9.157
1963,9.114
1964,9.157
1965,9.173
1966,9.184
1967,9.195
1968,9.222
1969,9.227
1970,9.249
1971,9.238
1972,9.249
1973,9.222
1974,9.200
1975,9.184
1976,9.184
1977,9.222
1978,9.227
1979,9.195
1980,9.222
1981,9.222
1982,9.211
1983,9.200
1984,9.195
1985,9.162
1986,9.162
1987,9.162
1988,9.162
1989,9.173
1990,9.173
1991,9.184
1992,9.173
1993,9.184
1994,9.195
1995,9.195
1996,9.222
1997,9.222
1998,9.184
1999,9.157
2000,9.173
2001,9.259
2002,9.416
2003,9.654
2004,9.989
2005,10.346
2006,10.643
2007,10.686
2008,10.692
2009,10.676
2010,10.632
2011,10.562
2012,10.362
2013,9.811
2014,9.070
2015,8.551
2016,8.616
2017,8.832
2018,8.989
2019,9.049
2020,9.027
2021,9.049
2022,9.070
2023,9.162
2024,9.238
2025,9.259
2026,9.281
2027,9.270
2028,9.292
2029,9.308
2030,9.319
2031,9.324
2032,9.324
2033,9.346
2034,9.357
2035,9.373
2036,9.373
2037,9.362
2038,9.395
2039,9.395
2040,9.405
2041,9.416
2042,9.416
2043,9.416
2044,9.427
2045,9.427
2046,9.432
2047,9.443
2048,9.449
2049,9.449
2050,9.459
2051,9.492
2052,9.492
2053,9.497
2054,9.508
2055,9.519
2056,9.562
2057,9.584
2058,9.584
2059,9.627
2060,9.654
2061,9.665
2062,9.697
2063,9.741
2064,9.768
2065,9.832
2066,9.843
2067,9.892
2068,9.924
2069,9.962
2070,10.000
2071,10.049
2072,10.086
2073,10.114
2074,10.173
2075,10.195
2076,10.222
2077,10.259
2078,10.292
2079,10.297
2080,10.324
2081,10.335
2082,10.319
2083,10.319
2084,10.308
2085,10.297
2086,10.259
2087,10.249
2088,10.211
2089,10.184
2090,10.124
2091,10.092
2092,10.038
2093,9.989
2094,9.935
2095,9.876
2096,9.811
2097,9.762
2098,9.697
2099,9.643
2100,9.595
2101,9.562
2102,9.508
2103,9.492
2104,9.470
2105,9.432
2106,9.395
2107,9.357
2108,9.384
2109,9.346
2110,9.346
2111,9.346
2112,9.324
2113,9.335
2114,9.319
2115,9.319
2116,9.319
2117,9.308
2118,9.292
2119,9.292
2120,9.308
2121,9.308
2122,9.308
2123,9.308
2124,9.346
2125,9.308
2126,9.308
2127,9.308
2128,9.308
2129,9.308
2130,9.308
2131,9.281
2132,9.281
2133,9.270
2134,9.259
2135,9.281
2136,9.281
2137,9.270
2138,9.281
2139,9.270
2140,9.222
2141,9.227
2142,9.222
2143,9.227
2144,9.227
2145,9.222
2146,9.222
2147,9.195
2148,9.173
2149,9.184
2150,9.162
2151,9.162
2152,9.157
2153,9.146
2154,9.135
2155,9.146
2156,9.135
2157,9.146
2158,9.124
2159,9.135
2160,9.135
2161,9.124
2162,9.103
2163,9.114
2164,9.114
2165,9.103
2166,9.103
2167,9.070
2168,9.086
2169,9.103
2170,9.086
2171,9.086
2172,9.076
2173,9.086
2174,9.086
2175,9.086
2176,9.092
2177,9.086
2178,9.086
2179,9.076
2180,9.076
2181,9.076
2182,9.086
2183,9.038
2184,9.076
2185,9.086
2186,9.086
2187,9.086
2188,9.086
2189,9.076
2190,9.076
2191,9.076
2192,9.076
2193,9.076
2194,9.086
2195,9.092
2196,9.092
2197,9.076
2198,9.076
2199,9.059
2200,9.092
2201,9.086
2202,9.086
2203,9.076
2204,9.086
2205,9.086
2206,9.086
2207,9.086
2208,9.086
2209,9.086
2210,9.076
2211,9.092
2212,9.086
2213,9.103
2214,9.092
2215,9.086
2216,9.092
2217,9.086
2218,9.086
2219,9.076
2220,9.092
2221,9.076
2222,9.086
2223,9.086
2224,9.086
2225,9.086
2226,9.049
2227,9.086
2228,9.076
2229,9.086
2230,9.103
2231,9.086
2232,9.086
2233,9.086
2234,9.086
2235,9.076
2236,9.086
2237,9.086
2238,9.086
2239,9.092
2240,9.103
2241,9.092
2242,9.059
2243,9.092
2244,9.086
2245,9.086
2246,9.086
2247,9.086
2248,9.086
2249,9.086
2250,9.103
2251,9.103
2252,9.092
2253,9.092
2254,9.086
2255,9.103
2256,9.086
2257,9.103
2258,9.086
2259,9.103
2260,9.092
2261,9.103
2262,9.086
2263,9.103
2264,9.103
2265,9.124
2266,9.103
2267,9.114
2268,9.114
2269,9.124
2270,9.103
2271,9.114
2272,9.114
2273,9.103
2274,9.114
2275,9.124
2276,9.114
2277,9.114
2278,9.135
2279,9.124
2280,9.124
2281,9.114
2282,9.135
2283,9.124
2284,9.146
2285,9.086
2286,9.146
2287,9.146
2288,9.157
2289,9.146
2290,9.135
2291,9.146
2292,9.146
2293,9.146
2294,9.157
2295,9.162
2296,9.162
2297,9.157
2298,9.157
2299,9.173
2300,9.162
2301,9.114
2302,9.162
2303,9.184
2304,9.184
2305,9.184
2306,9.195
2307,9.195
2308,9.211
2309,9.222
2310,9.238
2311,9.259
2312,9.259
2313,9.281
2314,9.292
2315,9.292
2316,9.281
2317,9.238
2318,9.259
2319,9.249
2320,9.238
2321,9.238
2322,9.270
2323,9.259
2324,9.270
2325,9.259
2326,9.259
2327,9.259
2328,9.195
2329,9.200
2330,9.195
2331,9.211
2332,9.222
2333,9.195
2334,9.211
2335,9.200
2336,9.211
2337,9.222
2338,9.222
2339,9.222
2340,9.238
2341,9.238
2342,9.222
2343,9.184
2344,9.114
2345,9.195
2346,9.308
2347,9.508
2348,9.843
2349,10.211
2350,10.568
2351,10.692
2352,10.708
2353,10.708
2354,10.697
2355,10.643
2356,10.568
2357,10.270
2358,9.573
2359,8.827
2360,8.616
2361,8.886
2362,9.076
2363,9.157
2364,9.157
2365,9.146
2366,9.162
2367,9.222
2368,9.292
2369,9.319
2370,9.335
2371,9.335
2372,9.346
2373,9.357
2374,9.373
2375,9.373
2376,9.405
2377,9.405
2378,9.416
2379,9.427
2380,9.416
2381,9.427
2382,9.449
2383,9.443
2384,9.459
2385,9.449
2386,9.470
2387,9.541
2388,9.497
2389,9.508
2390,9.508
2391,9.530
2392,9.541
2393,9.551
2394,9.551
2395,9.562
2396,9.568
2397,9.584
2398,9.584
2399,9.616
2400,9.632
2401,9.643
2402,9.654
2403,9.719
2404,9.708
2405,9.730
2406,9.751
2407,9.800
2408,9.827
2409,9.843
2410,9.886
2411,9.903
2412,9.946
2413,9.968
2414,10.011
2415,10.059
2416,10.092
2417,10.114
2418,10.157
2419,10.195
2420,10.211
2421,10.259
2422,10.270
2423,10.297
2424,10.308
2425,10.335
2426,10.357
2427,10.346
2428,10.346
2429,10.346
2430,10.319
2431,10.335
2432,10.319
2433,10.297
2434,10.270
2435,10.249
2436,10.222
2437,10.157
2438,10.114
2439,10.059
2440,9.989
2441,9.924
2442,9.865
2443,9.811
2444,9.741
2445,9.686
2446,9.665
2447,9.573
2448,9.541
2449,9.492
2450,9.459
2451,9.443
2452,9.427
2453,9.395
2454,9.373
2455,9.357
2456,9.346
2457,9.335
2458,9.335
2459,9.324
2460,9.324
2461,9.308
2462,9.346
2463,9.319
2464,9.319
2465,9.308
2466,9.319
2467,9.308
2468,9.324
2469,9.319
2470,9.319
2471,9.324
2472,9.319
2473,9.308
2474,9.319
2475,9.319
2476,9.308
2477,9.292
2478,9.308
2479,9.308
2480,9.308
2481,9.292
2482,9.292
2483,9.270
2484,9.281
2485,9.270
2486,9.259
2487,9.238
2488,9.249
2489,9.222
2490,9.238
2491,9.227
2492,9.222
2493,9.222
2494,9.195
2495,9.195
2496,9.173
2497,9.173
2498,9.162
2499,9.173
2500,9.157
2501,9.146
2502,9.146
2503,9.146
2504,9.157
2505,9.092
2506,9.135
2507,9.124
2508,9.135
2509,9.124
2510,9.124
2511,9.124
2512,9.114
2513,9.103
2514,9.103
2515,9.103
2516,9.092
2517,9.103
2518,9.103
2519,9.103
2520,9.086
2521,9.070
2522,9.086
2523,9.092
2524,9.092
2525,9.076
2526,9.086
2527,9.086
2528,9.076
2529,9.076
2530,9.086
2531,9.092
2532,9.076
2533,9.070
2534,9.070
2535,9.076
2536,9.076
2537,9.070
2538,9.076
2539,9.076
2540,9.076
2541,9.070
2542,9.070
2543,9.070
2544,9.070
2545,9.059
2546,9.070
2547,9.076
2548,9.038
2549,9.076
2550,9.070
2551,9.070
2552,9.070
2553,9.070
2554,9.070
2555,9.059
2556,9.076
2557,9.070
2558,9.070
2559,9.059
2560,9.076
2561,9.059
2562,9.070
2563,9.059
2564,9.038
2565,9.070
2566,9.070
2567,9.049
2568,9.070
2569,9.070
2570,9.070
2571,9.059
2572,9.070
2573,9.076
2574,9.070
2575,9.070
2576,9.070
2577,9.070
2578,9.049
2579,9.070
2580,9.038
2581,9.059
2582,9.070
2583,9.070
2584,9.070
2585,9.059
2586,9.070
2587,9.049
2588,9.070
2589,9.070
2590,9.070
2591,9.070
2592,9.070
2593,9.059
2594,9.070
2595,9.059
2596,9.038
2597,9.049
2598,9.070
2599,9.070
2600,9.059
2601,9.070
2602,9.059
2603,9.070
2604,9.070
2605,9.070
2606,9.070
2607,9.027
2608,9.070
2609,9.070
2610,9.070
2611,9.076
2612,9.070
2613,9.070
2614,9.070
2615,9.059
2616,9.070
2617,9.076
2618,9.086
2619,9.086
2620,9.076
2621,9.086
2622,9.092
2623,9.070
2624,9.086
2625,9.076
2626,9.076
2627,9.103
2628,9.103
2629,9.092
2630,9.086
2631,9.086
2632,9.092
2633,9.103
2634,9.103
2635,9.103
2636,9.103
2637,9.103
2638,9.103
2639,9.103
2640,9.103
2641,9.124
2642,9.124
2643,9.114
2644,9.114
2645,9.124
2646,9.114
2647,9.124
2648,9.135
2649,9.146
2650,9.135
2651,9.146
2652,9.135
2653,9.135
2654,9.162
2655,9.162
2656,9.195
2657,9.200
2658,9.222
2659,9.200
2660,9.222
2661,9.238
2662,9.249
2663,9.259
2664,9.238
2665,9.222
2666,9.184
2667,9.238
2668,9.222
2669,9.222
2670,9.211
2671,9.195
2672,9.211
2673,9.200
2674,9.222
2675,9.195
2676,9.195
2677,9.157
2678,9.162
2679,9.162
2680,9.173
2681,9.162
2682,9.124
2683,9.157
2684,9.173
2685,9.184
2686,9.184
2687,9.195
2688,9.195
2689,9.173
2690,9.146
2691,9.103
2692,9.114
2693,9.222
2694,9.384
2695,9.643
2696,9.989
2697,10.357
2698,10.616
2699,10.686
2700,10.692
2701,10.665
2702,10.627
2703,10.551
2704,10.346
2705,9.800
2706,9.027
2707,8.595
2708,8.730
2709,8.914
2710,9.059
2711,9.076
2712,9.070
2713,9.086
2714,9.135
2715,9.200
2716,9.238
2717,9.270
2718,9.270
2719,9.259
2720,9.292
2721,9.292
2722,9.319
2723,9.319
2724,9.319
2725,9.373
2726,9.346
2727,9.357
2728,9.362
2729,9.373
2730,9.362
2731,9.384
2732,9.384
2733,9.405
2734,9.405
2735,9.405
2736,9.416
2737,9.427
2738,9.432
2739,9.443
2740,9.449
2741,9.492
2742,9.470
2743,9.492
2744,9.481
2745,9.492
2746,9.508
2747,9.519
2748,9.562
2749,9.568
2750,9.573
2751,9.584
2752,9.616
2753,9.643
2754,9.665
2755,9.697
2756,9.730
2757,9.778
2758,9.811
2759,9.843
2760,9.886
2761,9.935
2762,9.962
2763,10.011
2764,10.038
2765,10.076
2766,10.124
2767,10.157
2768,10.200
2769,10.184
2770,10.227
2771,10.238
2772,10.259
2773,10.270
2774,10.281
2775,10.281
2776,10.270
2777,10.270
2778,10.259
2779,10.227
2780,10.222
2781,10.195
2782,10.157
2783,10.103
2784,10.076
2785,9.989
2786,9.935
2787,9.876
2788,9.822
2789,9.751
2790,9.697
2791,9.654
2792,9.616
2793,9.562
2794,9.508
2795,9.470
2796,9.449
2797,9.432
2798,9.384
2799,9.346
2800,9.362
2801,9.319
2802,9.319
2803,9.319
2804,9.308
2805,9.292
2806,9.281
2807,9.281
2808,9.292
2809,9.281
2810,9.292
2811,9.292
2812,9.292
2813,9.281
2814,9.281
2815,9.292
2816,9.292
2817,9.292
2818,9.292
2819,9.281
2820,9.281
2821,9.281
2822,9.292
2823,9.281
2824,9.281
2825,9.270
2826,9.281
2827,9.222
2828,9.249
2829,9.238
2830,9.227
2831,9.227
2832,9.227
2833,9.227
2834,9.222
2835,9.200
2836,9.195
2837,9.195
2838,9.184
2839,9.162
2840,9.173
2841,9.157
2842,9.157
2843,9.114
2844,9.114
2845,9.114
2846,9.114
2847,9.114
2848,9.114
2849,9.103
2850,9.103
2851,9.103
2852,9.103
2853,9.103
2854,9.086
2855,9.086
2856,9.092
2857,9.086
2858,9.076
2859,9.070
2860,9.076
2861,9.076
2862,9.076
2863,9.070
2864,9.070
2865,9.070
2866,9.076
2867,9.070
2868,9.076
2869,9.070
2870,9.027
2871,9.070
2872,9.070
2873,9.070
2874,9.070
2875,9.049
2876,9.059
2877,9.049
2878,9.049
2879,9.049
2880,9.070
2881,9.038
2882,9.070
2883,9.038
2884,9.038
2885,9.049
2886,9.011
2887,9.049
2888,9.038
2889,9.049
2890,9.038
2891,9.049
2892,9.038
2893,9.038
2894,9.038
2895,9.038
2896,9.070
2897,9.049
2898,9.049
2899,9.038
2900,9.049
2901,9.070
2902,9.011
2903,9.049
2904,9.038
2905,9.049
2906,9.070
2907,9.049
2908,9.059
2909,9.049
2910,9.049
2911,9.049
2912,9.070
2913,9.049
2914,9.049
2915,9.049
2916,9.059
2917,9.038
2918,9.027
2919,9.038
2920,9.038
2921,9.038
2922,9.049
2923,9.049
2924,9.059
2925,9.038
2926,9.059
2927,9.049
2928,9.059
2929,9.011
2930,9.049
2931,9.049
2932,9.070
2933,9.049
2934,9.049
2935,9.049
2936,9.070
2937,9.059
2938,9.049
2939,9.070
2940,9.070
2941,9.070
2942,9.070
2943,9.070
2944,9.070
2945,9.027
2946,9.070
2947,9.049
2948,9.070
2949,9.070
2950,9.070
2951,9.070
2952,9.076
2953,9.070
2954,9.070
2955,9.076
2956,9.076
2957,9.070
2958,9.070
2959,9.076
2960,9.086
2961,9.070
2962,9.076
2963,9.076
2964,9.076
2965,9.086
2966,9.086
2967,9.076
2968,9.076
2969,9.086
2970,9.092
2971,9.103
2972,9.092
2973,9.086
2974,9.103
2975,9.092
2976,9.092
2977,9.076
2978,9.092
2979,9.103
2980,9.114
2981,9.103
2982,9.103
2983,9.103
2984,9.103
2985,9.114
2986,9.103
2987,9.103
2988,9.076
2989,9.103
2990,9.124
2991,9.124
2992,9.124
2993,9.114
2994,9.114
2995,9.124
2996,9.135
2997,9.146
2998,9.146
2999,9.146
3000,9.162
3001,9.184
3002,9.195
3003,9.200
3004,9.173
3005,9.200
3006,9.227
3007,9.249
3008,9.259
3009,9.259
3010,9.238
3011,9.227
3012,9.227
3013,9.227
3014,9.211
3015,9.222
3016,9.222
3017,9.222
3018,9.222
3019,9.222
3020,9.195
3021,9.195
3022,9.162
3023,9.184
3024,9.184
3025,9.162
3026,9.162
3027,9.162
3028,9.173
3029,9.162
3030,9.195
3031,9.184
3032,9.195
3033,9.195
3034,9.184
3035,9.157
3036,9.086
3037,9.135
3038,9.238
3039,9.427
3040,9.719
3041,10.049
3042,10.427
3043,10.632
3044,10.686
3045,10.686
3046,10.665
3047,10.654
3048,10.562
3049,10.292
3050,9.654
3051,8.886
3052,8.584
3053,8.768
3054,8.968
3055,9.076
3056,9.070
3057,9.070
3058,9.086
3059,9.146
3060,9.222
3061,9.259
3062,9.270
3063,9.297
3064,9.292
3065,9.281
3066,9.308
3067,9.308
3068,9.308
3069,9.335
3070,9.324
3071,9.346
3072,9.346
3073,9.346
3074,9.357
3075,9.373
3076,9.373
3077,9.384
3078,9.384
3079,9.405
3080,9.416
3081,9.416
3082,9.432
3083,9.432
3084,9.443
3085,9.449
3086,9.449
3087,9.459
3088,9.481
3089,9.470
3090,9.541
3091,9.508
3092,9.530
3093,9.541
3094,9.551
3095,9.573
3096,9.605
3097,9.616
3098,9.643
3099,9.665
3100,9.692
3101,9.730
3102,9.768
3103,9.811
3104,9.843
3105,9.876
3106,9.962
3107,9.962
3108,10.000
3109,10.038
3110,10.070
3111,10.086
3112,10.146
3113,10.157
3114,10.195
3115,10.211
3116,10.211
3117,10.222
3118,10.238
3119,10.238
3120,10.249
3121,10.227
3122,10.259
3123,10.222
3124,10.195
3125,10.157
3126,10.124
3127,10.092
3128,10.076
3129,10.022
3130,9.962
3131,9.892
3132,9.843
3133,9.800
3134,9.751
3135,9.697
3136,9.654
3137,9.584
3138,9.562
3139,9.519
3140,9.470
3141,9.449
3142,9.427
3143,9.395
3144,9.384
3145,9.373
3146,9.362
3147,9.346
3148,9.324
3149,9.373
3150,9.324
3151,9.319
3152,9.324
3153,9.319
3154,9.319
3155,9.324
3156,9.324
3157,9.308
3158,9.308
3159,9.297
3160,9.308
3161,9.308
3162,9.297
3163,9.308
3164,9.308
3165,9.335
3166,9.297
3167,9.281
3168,9.292
3169,9.281
3170,9.259
3171,9.270
3172,9.270
3173,9.259
3174,9.259
3175,9.259
3176,9.238
3177,9.227
3178,9.211
3179,9.222
3180,9.222
3181,9.184
3182,9.195
3183,9.184
3184,9.195
3185,9.162
3186,9.162
3187,9.157
3188,9.157
3189,9.146
3190,9.146
3191,9.146
3192,9.135
3193,9.146
3194,9.135
3195,9.114
3196,9.114
3197,9.103
3198,9.103
3199,9.103
3200,9.114
3201,9.103
3202,9.103
3203,9.092
3204,9.092
3205,9.086
3206,9.076
3207,9.086
3208,9.059
3209,9.086
3210,9.092
3211,9.076
3212,9.086
3213,9.070
3214,9.086
3215,9.076
3216,9.070
3217,9.070
3218,9.086
3219,9.076
3220,9.076
3221,9.076
3222,9.070
3223,9.076
3224,9.049
3225,9.076
3226,9.076
3227,9.059
3228,9.076
3229,9.076
3230,9.076
3231,9.070
3232,9.070
3233,9.070
3234,9.076
3235,9.076
3236,9.076
3237,9.076
3238,9.076
3239,9.076
3240,9.070
3241,9.070
3242,9.076
3243,9.086
3244,9.076
3245,9.086
3246,9.086
3247,9.086
3248,9.076
3249,9.076
3250,9.086
3251,9.070
3252,9.076
3253,9.086
3254,9.076
3255,9.076
3256,9.076
3257,9.076
3258,9.070
3259,9.059
3260,9.070
3261,9.070
3262,9.070
3263,9.076
3264,9.076
3265,9.070
3266,9.076
3267,9.049
3268,9.076
3269,9.070
3270,9.070
3271,9.076
3272,9.076
3273,9.076
3274,9.086
3275,9.070
3276,9.076
3277,9.086
3278,9.076
3279,9.070
3280,9.076
3281,9.076
3282,9.076
3283,9.049
3284,9.076
3285,9.086
3286,9.070
3287,9.076
3288,9.076
3289,9.076
3290,9.070
3291,9.076
3292,9.076
3293,9.086
3294,9.092
3295,9.086
3296,9.092
3297,9.076
3298,9.086
3299,9.086
3300,9.092
3301,9.103
3302,9.114
3303,9.103
3304,9.114
3305,9.086
3306,9.092
3307,9.103
3308,9.103
3309,9.103
3310,9.070
3311,9.103
3312,9.114
3313,9.124
3314,9.114
3315,9.103
3316,9.124
3317,9.124
3318,9.124
3319,9.146
3320,9.146
3321,9.146
3322,9.135
3323,9.146
3324,9.146
3325,9.146
3326,9.103
3327,9.146
3328,9.157
3329,9.146
3330,9.146
3331,9.162
3332,9.157
3333,9.162
3334,9.157
3335,9.162
3336,9.162
3337,9.162
3338,9.162
3339,9.162
3340,9.184
3341,9.184
3342,9.162
3343,9.195
3344,9.184
3345,9.195
3346,9.222
3347,9.238
3348,9.249
3349,9.259
3350,9.270
3351,9.281
3352,9.270
3353,9.281
3354,9.259
3355,9.259
3356,9.259
3357,9.259
3358,9.259
3359,9.270
3360,9.249
3361,9.259
3362,9.238
3363,9.259
3364,9.259
3365,9.238
3366,9.222
3367,9.200
3368,9.222
3369,9.162
3370,9.200
3371,9.200
3372,9.211
3373,9.222
3374,9.195
3375,9.211
3376,9.227
3377,9.238
3378,9.238
3379,9.227
3380,9.195
3381,9.195
3382,9.259
3383,9.373
3384,9.605
3385,9.951
3386,10.270
3387,10.573
3388,10.692
3389,10.697
3390,10.692
3391,10.665
3392,10.616
3393,10.459
3394,10.011
3395,9.270
3396,8.665
3397,8.627
3398,8.832
3399,9.011
3400,9.092
3401,9.070
3402,9.086
3403,9.124
3404,9.195
3405,9.270
3406,9.297
3407,9.319
3408,9.324
3409,9.308
3410,9.324
3411,9.346
3412,9.384
3413,9.357
3414,9.357
3415,9.373
3416,9.384
3417,9.384
3418,9.395
3419,9.416
3420,9.416
3421,9.427
3422,9.432
3423,9.432
3424,9.443
3425,9.449
3426,9.449
3427,9.449
3428,9.497
3429,9.470
3430,9.492
3431,9.470
3432,9.492
3433,9.508
3434,9.508
3435,9.519
3436,9.541
3437,9.568
3438,9.568
3439,9.595
3440,9.627
3441,9.654
3442,9.686
3443,9.719
3444,9.789
3445,9.789
3446,9.822
3447,9.854
3448,9.914
3449,9.946
3450,9.989
3451,10.027
3452,10.059
3453,10.103
3454,10.146
3455,10.157
3456,10.195
3457,10.227
3458,10.281
3459,10.281
3460,10.297
3461,10.292
3462,10.297
3463,10.292
3464,10.297
3465,10.270
3466,10.270
3467,10.249
3468,10.227
3469,10.200
3470,10.162
3471,10.162
3472,10.092
3473,10.038
3474,9.978
3475,9.946
3476,9.886
3477,9.827
3478,9.768
3479,9.719
3480,9.676
3481,9.616
3482,9.605
3483,9.568
3484,9.541
3485,9.497
3486,9.449
3487,9.492
3488,9.443
3489,9.427
3490,9.416
3491,9.395
3492,9.405
3493,9.395
3494,9.395
3495,9.384
3496,9.384
3497,9.373
3498,9.384
3499,9.362
3500,9.384
3501,9.373
3502,9.373
3503,9.416
3504,9.373
3505,9.373
3506,9.357
3507,9.373
3508,9.373
3509,9.357
3510,9.362
3511,9.357
3512,9.357
3513,9.335
3514,9.357
3515,9.346
3516,9.324
3517,9.308
3518,9.297
3519,9.319
3520,9.292
3521,9.281
3522,9.281
3523,9.292
3524,9.259
3525,9.259
3526,9.238
3527,9.227
3528,9.249
3529,9.238
3530,9.195
3531,9.211
3532,9.222
3533,9.222
3534,9.200
3535,9.173
3536,9.184
3537,9.184
3538,9.184
3539,9.184
3540,9.184
3541,9.184
3542,9.162
3543,9.157
3544,9.157
3545,9.157
3546,9.124
3547,9.162
3548,9.157
3549,9.146
3550,9.146
3551,9.157
3552,9.135
3553,9.146
3554,9.146
3555,9.135
3556,9.135
3557,9.124
3558,9.157
3559,9.124
3560,9.135
3561,9.114
3562,9.114
3563,9.114
3564,9.114
3565,9.124
3566,9.124
3567,9.135
3568,9.124
3569,9.124
3570,9.114
3571,9.124
3572,9.135
3573,9.114
3574,9.114
3575,9.103
3576,9.114
3577,9.114
3578,9.103
3579,9.124
3580,9.114
3581,9.114
3582,9.114
3583,9.124
3584,9.114
3585,9.103
3586,9.135
3587,9.114
3588,9.135
3589,9.086
3590,9.114
3591,9.114
3592,9.114
3593,9.114
3594,9.114
3595,9.114
3596,9.124
3597,9.114
3598,9.114
3599,9.124
3600,9.114
3601,9.114
3602,9.114
3603,9.124
3604,9.114
3605,9.076
3606,9.114
3607,9.103
3608,9.114
3609,9.124
3610,9.124
3611,9.114
3612,9.114
3613,9.124
3614,9.114
3615,9.124
3616,9.103
3617,9.114
3618,9.103
3619,9.114
3620,9.103
3621,9.103
3622,9.124
3623,9.114
3624,9.135
3625,9.114
3626,9.124
3627,9.124
3628,9.135
3629,9.114
3630,9.135
3631,9.146
3632,9.103
3633,9.135
3634,9.124
3635,9.124
3636,9.135
3637,9.114
3638,9.135
3639,9.124
3640,9.124
3641,9.135
3642,9.135
3643,9.124
3644,9.146
3645,9.146
3646,9.135
3647,9.146
3648,9.103
3649,9.146
3650,9.146
3651,9.162
3652,9.157
3653,9.146
3654,9.146
3655,9.146
3656,9.162
3657,9.157
3658,9.173
3659,9.162
3660,9.173
3661,9.157
3662,9.173
3663,9.184
3664,9.135
3665,9.162
3666,9.162
3667,9.162
3668,9.184
3669,9.195
3670,9.184
3671,9.184
3672,9.184
3673,9.184
3674,9.195
3675,9.184
3676,9.195
3677,9.184
3678,9.184
3679,9.195
3680,9.195
3681,9.200
3682,9.200
3683,9.222
3684,9.222
3685,9.222
3686,9.222
3687,9.238
3688,9.259
3689,9.270
3690,9.292
3691,9.335
3692,9.308
3693,9.308
3694,9.292
3695,9.281
3696,9.281
3697,9.259
3698,9.238
3699,9.270
3700,9.292
3701,9.259
3702,9.259
3703,9.270
3704,9.292
3705,9.259
3706,9.249
3707,9.184
3708,9.227
3709,9.222
3710,9.211
3711,9.211
3712,9.222
3713,9.222
3714,9.227
3715,9.238
3716,9.249
3717,9.259
3718,9.249
3719,9.238
3720,9.200
3721,9.157
3722,9.200
3723,9.308
3724,9.481
3725,9.800
3726,10.157
3727,10.519
3728,10.692
3729,10.697
3730,10.719
3731,10.692
3732,10.654
3733,10.562
3734,10.227
3735,9.541
3736,8.789
3737,8.654
3738,8.914
3739,9.086
3740,9.173
3741,9.146
3742,9.135
3743,9.162
3744,9.249
3745,9.319
3746,9.335
3747,9.319
3748,9.346
3749,9.357
3750,9.395
3751,9.373
3752,9.384
3753,9.395
3754,9.395
3755,9.416
3756,9.416
3757,9.416
3758,9.432
3759,9.432
3760,9.443
3761,9.449
3762,9.459
3763,9.470
3764,9.470
3765,9.481
3766,9.530
3767,9.497
3768,9.519
3769,9.519
3770,9.541
3771,9.530
3772,9.551
3773,9.568
3774,9.568
3775,9.584
3776,9.595
3777,9.616
3778,9.643
3779,9.665
3780,9.676
3781,9.692
3782,9.730
3783,9.762
3784,9.800
3785,9.822
3786,9.843
3787,9.876
3788,9.924
3789,9.962
3790,10.011
3791,10.049
3792,10.086
3793,10.157
3794,10.162
3795,10.184
3796,10.211
3797,10.259
3798,10.270
3799,10.319
3800,10.319
3801,10.324
3802,10.335
3803,10.335
3804,10.324
3805,10.319
3806,10.297
3807,10.297
3808,10.270
3809,10.259
3810,10.195
3811,10.162
3812,10.124
3813,10.076
3814,10.027
3815,9.951
3816,9.903
3817,9.832
3818,9.768
3819,9.708
3820,9.665
3821,9.627
3822,9.605
3823,9.551
3824,9.519
3825,9.508
3826,9.459
3827,9.449
3828,9.416
3829,9.395
3830,9.362
3831,9.373
3832,9.373
3833,9.357
3834,9.357
3835,9.346
3836,9.346
3837,9.346
3838,9.346
3839,9.346
3840,9.335
3841,9.357
3842,9.362
3843,9.357
3844,9.346
3845,9.335
3846,9.335
3847,9.357
3848,9.346
3849,9.335
3850,9.346
3851,9.335
3852,9.373
3853,9.335
3854,9.335
3855,9.335
3856,9.308
3857,9.308
3858,9.297
3859,9.308
3860,9.292
3861,9.281
3862,9.259
3863,9.270
3864,9.259
3865,9.259
3866,9.249
3867,9.238
3868,9.195
3869,9.222
3870,9.222
3871,9.184
3872,9.195
3873,9.184
3874,9.184
3875,9.184
3876,9.162
3877,9.184
3878,9.162
3879,9.162
3880,9.157
3881,9.157
3882,9.146
3883,9.146
3884,9.114
3885,9.146
3886,9.135
3887,9.135
3888,9.124
3889,9.135
3890,9.124
3891,9.135
3892,9.135
3893,9.114
3894,9.124
3895,9.124
3896,9.114
3897,9.114
3898,9.103
3899,9.103
3900,9.103
3901,9.103
3902,9.103
3903,9.103
3904,9.103
3905,9.114
3906,9.103
3907,9.092
3908,9.092
3909,9.086
3910,9.103
3911,9.049
3912,9.086
3913,9.092
3914,9.092
3915,9.086
3916,9.076
3917,9.086
3918,9.092
3919,9.086
3920,9.086
3921,9.076
3922,9.092
3923,9.092
3924,9.092
3925,9.086
3926,9.086
3927,9.049
3928,9.092
3929,9.086
3930,9.086
3931,9.092
3932,9.092
3933,9.092
3934,9.103
3935,9.092
3936,9.092
3937,9.092
3938,9.086
3939,9.086
3940,9.092
3941,9.086
3942,9.086
3943,9.076
3944,9.086
3945,9.086
3946,9.076
3947,9.086
3948,9.092
3949,9.086
3950,9.086
3951,9.086
3952,9.086
3953,9.092
3954,9.086
3955,9.086
3956,9.086
3957,9.086
3958,9.092
3959,9.086
3960,9.086
3961,9.076
3962,9.076
3963,9.086
3964,9.086
3965,9.086
3966,9.076
3967,9.086
3968,9.092
3969,9.092
3970,9.070
3971,9.103
3972,9.086
3973,9.103
3974,9.103
3975,9.086
3976,9.103
3977,9.103
3978,9.103
3979,9.114
3980,9.103
3981,9.114
3982,9.103
3983,9.114
3984,9.103
3985,9.135
3986,9.076
3987,9.103
3988,9.114
3989,9.114
3990,9.103
3991,9.124
3992,9.124
3993,9.114
3994,9.124
3995,9.124
3996,9.124
3997,9.124
3998,9.124
3999,9.124
4000,9.124
4001,9.146
4002,9.135
4003,9.146
4004,9.135
4005,9.146
4006,9.146
4007,9.146
4008,9.146
4009,9.146
4010,9.146
4011,9.146
4012,9.157
4013,9.124
4014,9.157
4015,9.162
4016,9.162
4017,9.162
4018,9.162
4019,9.157
4020,9.162
4021,9.162
4022,9.173
4023,9.184
4024,9.173
4025,9.184
4026,9.184
4027,9.195
4028,9.200
4029,9.162
4030,9.222
4031,9.238
4032,9.259
4033,9.259
4034,9.259
4035,9.281
4036,9.292
4037,9.292
4038,9.270
4039,9.259
4040,9.281
4041,9.270
4042,9.281
4043,9.259
4044,9.259
4045,9.227
4046,9.259
4047,9.281
4048,9.259
4049,9.238
4050,9.227
4051,9.200
4052,9.222
4053,9.222
4054,9.222
4055,9.200
4056,9.211
4057,9.200
4058,9.222
4059,9.227
4060,9.249
4061,9.238
4062,9.227
4063,9.200
4064,9.157
4065,9.135
4066,9.222
4067,9.362
4068,9.616
4069,9.962
4070,10.324
4071,10.627
4072,10.730
4073,10.697
4074,10.697
4075,10.676
4076,10.616
4077,10.432
4078,9.914
4079,9.114
4080,8.632
4081,8.768
4082,9.000
4083,9.114
4084,9.124
4085,9.124
4086,9.124
4087,9.195
4088,9.222
4089,9.292
4090,9.297
4091,9.319
4092,9.308
4093,9.319
4094,9.346
4095,9.357
4096,9.357
4097,9.373
4098,9.373
4099,9.384
4100,9.384
4101,9.384
4102,9.395
4103,9.395
4104,9.443
4105,9.416
4106,9.432
4107,9.449
4108,9.443
4109,9.443
4110,9.449
4111,9.470
4112,9.481
4113,9.492
4114,9.497
4115,9.497
4116,9.519
4117,9.519
4118,9.541
4119,9.551
4120,9.573
4121,9.584
4122,9.616
4123,9.627
4124,9.654
4125,9.654
4126,9.697
4127,9.719
4128,9.768
4129,9.800
4130,9.832
4131,9.914
4132,9.914
4133,9.962
4134,9.989
4135,10.027
4136,10.070
4137,10.103
4138,10.146
4139,10.184
4140,10.200
4141,10.211
4142,10.222
4143,10.259
4144,10.292
4145,10.270
4146,10.281
4147,10.308
4148,10.270
4149,10.259
4150,10.238
4151,10.227
4152,10.184
4153,10.162
4154,10.124
4155,10.086
4156,10.049
4157,10.000
4158,9.951
4159,9.892
4160,9.843
4161,9.778
4162,9.730
4163,9.676
4164,9.632
4165,9.584
4166,9.541
4167,9.497
4168,9.459
4169,9.449
4170,9.427
4171,9.395
4172,9.373
4173,9.357
4174,9.384
4175,9.346
4176,9.357
4177,9.335
4178,9.335
4179,9.346
4180,9.324
4181,9.319
4182,9.335
4183,9.335
4184,9.324
4185,9.335
4186,9.335
4187,9.335
4188,9.324
4189,9.319
4190,9.357
4191,9.335
4192,9.324
4193,9.319
4194,9.319
4195,9.319
4196,9.319
4197,9.319
4198,9.297
4199,9.297
4200,9.270
4201,9.281
4202,9.292
4203,9.270
4204,9.249
4205,9.238
4206,9.222
4207,9.238
4208,9.227
4209,9.211
4210,9.222
4211,9.200
4212,9.200
4213,9.184
4214,9.184
4215,9.162
4216,9.184
4217,9.162
4218,9.162
4219,9.157
4220,9.157
4221,9.157
4222,9.135
4223,9.157
4224,9.157
4225,9.135
4226,9.135
4227,9.124
4228,9.146
4229,9.124
4230,9.135
4231,9.124
4232,9.135
4233,9.076
4234,9.124
4235,9.114
4236,9.114
4237,9.124
4238,9.103
4239,9.114
4240,9.114
4241,9.114
4242,9.103
4243,9.114
4244,9.103
4245,9.124
4246,9.114
4247,9.103
4248,9.114
4249,9.070
4250,9.103
4251,9.103
4252,9.114
4253,9.103
4254,9.103
4255,9.103
4256,9.092
4257,9.103
4258,9.092
4259,9.114
4260,9.092
4261,9.092
4262,9.092
4263,9.092
4264,9.103
4265,9.086
4266,9.114
4267,9.114
4268,9.103
4269,9.124
4270,9.103
4271,9.103
4272,9.103
4273,9.103
4274,9.103
4275,9.114
4276,9.114
4277,9.103
4278,9.103
4279,9.114
4280,9.103
4281,9.103
4282,9.086
4283,9.103
4284,9.103
4285,9.124
4286,9.114
4287,9.103
4288,9.103
4289,9.114
4290,9.103
4291,9.114
4292,9.070
4293,9.103
4294,9.103
4295,9.103
4296,9.114
4297,9.086
4298,9.103
4299,9.103
4300,9.114
4301,9.103
4302,9.103
4303,9.103
4304,9.114
4305,9.114
4306,9.114
4307,9.124
4308,9.076
4309,9.103
4310,9.103
4311,9.114
4312,9.114
4313,9.114
4314,9.124
4315,9.103
4316,9.124
4317,9.124
4318,9.135
4319,9.124
4320,9.114
4321,9.124
4322,9.124
4323,9.124
4324,9.114
4325,9.124
4326,9.114
4327,9.124
4328,9.135
4329,9.135
4330,9.146
4331,9.146
4332,9.135
4333,9.135
4334,9.146
4335,9.146
4336,9.135
4337,9.146
4338,9.146
4339,9.135
4340,9.124
4341,9.162
4342,9.157
4343,9.162
4344,9.162
4345,9.162
4346,9.157
4347,9.162
4348,9.173
4349,9.173
4350,9.184
4351,9.135
4352,9.184
4353,9.184
4354,9.184
4355,9.184
4356,9.184
4357,9.200
4358,9.200
4359,9.195
4360,9.184
4361,9.222
4362,9.200
4363,9.200
4364,9.222
4365,9.222
4366,9.222
4367,9.200
4368,9.227
4369,9.222
4370,9.238
4371,9.270
4372,9.281
4373,9.281
4374,9.292
4375,9.308
4376,9.308
4377,9.319
4378,9.297
4379,9.281
4380,9.270
4381,9.281
4382,9.281
4383,9.319
4384,9.297
4385,9.292
4386,9.281
4387,9.292
4388,9.270
4389,9.259
4390,9.249
4391,9.238
4392,9.249
4393,9.259
4394,9.211
4395,9.238
4396,9.238
4397,9.259
4398,9.259
4399,9.259
4400,9.259
4401,9.270
4402,9.270
4403,9.249
4404,9.195
4405,9.195
4406,9.319
4407,9.492
4408,9.768
4409,10.114
4410,10.519
4411,10.697
4412,10.730
4413,10.741
4414,10.719
4415,10.692
4416,10.605
4417,10.335
4418,9.676
4419,8.924
4420,8.665
4421,8.886
4422,9.076
4423,9.157
4424,9.157
4425,9.146
4426,9.162
4427,9.238
4428,9.308
4429,9.335
4430,9.335
4431,9.357
4432,9.362
4433,9.373
4434,9.384
4435,9.395
4436,9.405
4437,9.416
4438,9.427
4439,9.443
4440,9.443
4441,9.432
4442,9.449
4443,9.449
4444,9.459
4445,9.459
4446,9.470
4447,9.470
4448,9.497
4449,9.497
4450,9.508
4451,9.508
4452,9.519
4453,9.573
4454,9.562
4455,9.562
4456,9.568
4457,9.573
4458,9.595
4459,9.616
4460,9.627
4461,9.643
4462,9.665
4463,9.665
4464,9.692
4465,9.719
4466,9.741
4467,9.789
4468,9.811
4469,9.876
4470,9.886
4471,9.924
4472,9.951
4473,9.978
4474,10.027
4475,10.086
4476,10.114
4477,10.157
4478,10.184
4479,10.211
4480,10.222
4481,10.249
4482,10.270
4483,10.297
4484,10.308
4485,10.297
4486,10.308
4487,10.308
4488,10.297
4489,10.270
4490,10.259
4491,10.259
4492,10.211
4493,10.184
4494,10.124
4495,10.086
4496,10.038
4497,9.968
4498,9.924
4499,9.854
4500,9.778
4501,9.730
4502,9.692
4503,9.654
4504,9.605
4505,9.562
4506,9.508
4507,9.497
4508,9.459
4509,9.443
4510,9.427
4511,9.416
4512,9.443
4513,9.395
4514,9.384
4515,9.373
4516,9.373
4517,9.362
4518,9.373
4519,9.373
4520,9.362
4521,9.357
4522,9.357
4523,9.373
4524,9.357
4525,9.357
4526,9.357
4527,9.346
4528,9.405
4529,9.357
4530,9.373
4531,9.357
4532,9.335
4533,9.335
4534,9.357
4535,9.335
4536,9.335
4537,9.324
4538,9.319
4539,9.324
4540,9.308
4541,9.308
4542,9.297
4543,9.281
4544,9.270
4545,9.270
4546,9.270
4547,9.259
4548,9.249
4549,9.238
4550,9.211
4551,9.222
4552,9.222
4553,9.222
4554,9.200
4555,9.173
4556,9.184
4557,9.184
4558,9.173
4559,9.173
4560,9.157
4561,9.162
4562,9.157
4563,9.146
4564,9.157
4565,9.162
4566,9.135
4567,9.157
4568,9.135
4569,9.135
4570,9.146
4571,9.103
4572,9.146
4573,9.135
4574,9.146
4575,9.135
4576,9.124
4577,9.135
4578,9.124
4579,9.124
4580,9.114
4581,9.124
4582,9.124
4583,9.124
4584,9.124
4585,9.114
4586,9.124
4587,9.086
4588,9.114
4589,9.114
4590,9.124
4591,9.114
4592,9.114
4593,9.114
4594,9.114
4595,9.114
4596,9.114
4597,9.124
4598,9.114
4599,9.114
4600,9.114
4601,9.103
4602,9.114
4603,9.103
4604,9.114
4605,9.114
4606,9.103
4607,9.114
4608,9.114
4609,9.114
4610,9.114
4611,9.114
4612,9.114
4613,9.124
4614,9.070
4615,9.103
4616,9.103
4617,9.103
4618,9.103
4619,9.103
4620,9.114
4621,9.124
4622,9.103
4623,9.103
4624,9.124
4625,9.103
4626,9.103
4627,9.086
4628,9.092
4629,9.124
4630,9.070
4631,9.103
4632,9.103
4633,9.114
4634,9.092
4635,9.114
4636,9.103
4637,9.124
4638,9.114
4639,9.103
4640,9.114
4641,9.103
4642,9.103
4643,9.092
4644,9.086
4645,9.124
4646,9.092
4647,9.114
4648,9.124
4649,9.124
4650,9.114
4651,9.114
4652,9.114
4653,9.114
4654,9.135
4655,9.124
4656,9.135
4657,9.124
4658,9.114
4659,9.114
4660,9.114
4661,9.124
4662,9.124
4663,9.135
4664,9.135
4665,9.135
4666,9.135
4667,9.124
4668,9.135
4669,9.146
4670,9.135
4671,9.124
4672,9.135
4673,9.103
4674,9.146
4675,9.146
4676,9.135
4677,9.135
4678,9.135
4679,9.146
4680,9.146
4681,9.146
4682,9.146
4683,9.162
4684,9.146
4685,9.146
4686,9.146
4687,9.146
4688,9.157
4689,9.114
4690,9.157
4691,9.162
4692,9.162
4693,9.162
4694,9.162
4695,9.157
4696,9.162
4697,9.162
4698,9.162
4699,9.173
4700,9.173
4701,9.173
4702,9.184
4703,9.184
4704,9.195
4705,9.184
4706,9.222
4707,9.222
4708,9.227
4709,9.227
4710,9.259
4711,9.259
4712,9.270
4713,9.270
4714,9.270
4715,9.270
4716,9.249
4717,9.259
4718,9.238
4719,9.259
4720,9.259
4721,9.227
4722,9.238
4723,9.238
4724,9.238
4725,9.238
4726,9.238
4727,9.200
4728,9.195
4729,9.222
4730,9.222
4731,9.195
4732,9.162
4733,9.200
4734,9.200
4735,9.222
4736,9.227
4737,9.227
4738,9.238
4739,9.238
4740,9.227
4741,9.195
4742,9.200
4743,9.270
4744,9.416
4745,9.627
4746,9.951
4747,10.297
4748,10.654
4749,10.730
4750,10.741
4751,10.730
4752,10.692
4753,10.616
4754,10.405
4755,9.822
4756,9.038
4757,8.551
4758,8.627
4759,8.865
4760,9.027
4761,9.070
4762,9.070
4763,9.070
4764,9.114
4765,9.222
4766,9.281
4767,9.297
4768,9.308
4769,9.308
4770,9.335
4771,9.335
4772,9.335
4773,9.373
4774,9.373
4775,9.432
4776,9.395
4777,9.384
4778,9.405
4779,9.384
4780,9.416
4781,9.416
4782,9.432
4783,9.427
4784,9.443
4785,9.443
4786,9.449
4787,9.459
4788,9.481
4789,9.492
4790,9.492
4791,9.541
4792,9.519
4793,9.530
4794,9.541
4795,9.541
4796,9.568
4797,9.584
4798,9.605
4799,9.632
4800,9.654
4801,9.686
4802,9.697
4803,9.741
4804,9.789
4805,9.811
4806,9.843
4807,9.903
4808,9.946
4809,9.968
4810,10.022
4811,10.049
4812,10.092
4813,10.135
4814,10.195
4815,10.200
4816,10.238
4817,10.270
4818,10.281
4819,10.319
4820,10.335
4821,10.346
4822,10.346
4823,10.346
4824,10.346
4825,10.324
4826,10.308
4827,10.297
4828,10.259
4829,10.227
4830,10.184
4831,10.135
4832,10.092
4833,10.038
4834,10.022
4835,9.935
4836,9.854
4837,9.811
4838,9.751
4839,9.692
4840,9.654
4841,9.584
4842,9.562
4843,9.508
4844,9.481
4845,9.449
4846,9.432
4847,9.416
4848,9.405
4849,9.362
4850,9.395
4851,9.362
4852,9.346
4853,9.346
4854,9.335
4855,9.346
4856,9.346
4857,9.335
4858,9.335
4859,9.335
4860,9.319
4861,9.335
4862,9.335
4863,9.335
4864,9.335
4865,9.319
4866,9.346
4867,9.335
4868,9.335
4869,9.319
4870,9.319
4871,9.308
4872,9.319
4873,9.308
4874,9.308
4875,9.292
4876,9.292
4877,9.297
4878,9.270
4879,9.270
4880,9.259
4881,9.238
4882,9.238
4883,9.249
4884,9.227
4885,9.222
4886,9.222
4887,9.211
4888,9.200
4889,9.184
4890,9.184
4891,9.162
4892,9.184
4893,9.124
4894,9.146
4895,9.146
4896,9.146
4897,9.146
4898,9.124
4899,9.135
4900,9.146
4901,9.114
4902,9.114
4903,9.114
4904,9.114
4905,9.103
4906,9.114
4907,9.103
4908,9.092
4909,9.059
4910,9.092
4911,9.103
4912,9.092
4913,9.103
4914,9.103
4915,9.086
4916,9.086
4917,9.086
4918,9.103
4919,9.092
4920,9.092
4921,9.092
4922,9.086
4923,9.086
4924,9.076
4925,9.076
4926,9.092
4927,9.086
4928,9.086
4929,9.092
4930,9.086
4931,9.086
4932,9.092
4933,9.076
4934,9.086
4935,9.086
4936,9.070
4937,9.086
4938,9.092
4939,9.086
4940,9.092
4941,9.076
4942,9.086
4943,9.086
4944,9.092
4945,9.103
4946,9.114
4947,9.086
4948,9.103
4949,9.103
4950,9.103
4951,9.103
4952,9.070
4953,9.103
4954,9.092
4955,9.103
4956,9.103
4957,9.103
4958,9.086
4959,9.103
4960,9.103
4961,9.103
4962,9.092
4963,9.103
4964,9.092
4965,9.092
4966,9.092
4967,9.092
4968,9.076
4969,9.114
4970,9.114
4971,9.092
4972,9.103
4973,9.114
4974,9.103
4975,9.103
4976,9.103
4977,9.114
4978,9.103
4979,9.103
4980,9.114
4981,9.114
4982,9.114
4983,9.114
4984,9.114
4985,9.103
4986,9.114
4987,9.114
4988,9.114
4989,9.124
4990,9.124
4991,9.114
4992,9.114
4993,9.114
4994,9.146
4995,9.076
4996,9.103
4997,9.114
4998,9.114
4999,9.135
5000,9.135
5001,9.146
5002,9.135
5003,9.135
5004,9.124
5005,9.146
5006,9.135
5007,9.135
5008,9.146
5009,9.146
5010,9.135
5011,9.103
5012,9.135
5013,9.146
5014,9.157
5015,9.146
5016,9.157
5017,9.146
5018,9.157
5019,9.157
5020,9.162
5021,9.173
5022,9.173
5023,9.157
5024,9.162
5025,9.162
5026,9.173
5027,9.162
5028,9.184
5029,9.184
5030,9.184
5031,9.184
5032,9.195
5033,9.184
5034,9.184
5035,9.195
5036,9.195
5037,9.200
5038,9.195
5039,9.200
5040,9.200
5041,9.200
5042,9.222
5043,9.211
5044,9.222
5045,9.222
5046,9.238
5047,9.238
5048,9.270
5049,9.270
5050,9.281
5051,9.308
5052,9.297
5053,9.292
5054,9.238
5055,9.270
5056,9.270
5057,9.259
5058,9.270
5059,9.281
5060,9.292
5061,9.270
5062,9.270
5063,9.281
5064,9.259
5065,9.259
5066,9.238
5067,9.222
5068,9.227
5069,9.238
5070,9.200
5071,9.227
5072,9.227
5073,9.227
5074,9.249
5075,9.249
5076,9.249
5077,9.281
5078,9.259
5079,9.222
5080,9.184
5081,9.173
5082,9.259
5083,9.432
5084,9.697
5085,10.070
5086,10.470
5087,10.730
5088,10.789
5089,10.800
5090,10.768
5091,10.741
5092,10.654
5093,10.432
5094,9.843
5095,9.022
5096,8.632
5097,8.854
5098,9.086
5099,9.162
5100,9.173
5101,9.162
5102,9.184
5103,9.238
5104,9.319
5105,9.335
5106,9.346
5107,9.346
5108,9.373
5109,9.395
5110,9.395
5111,9.405
5112,9.405
5113,9.449
5114,9.432
5115,9.443
5116,9.449
5117,9.449
5118,9.481
5119,9.481
5120,9.481
5121,9.492
5122,9.492
5123,9.497
5124,9.508
5125,9.530
5126,9.541
5127,9.551
5128,9.541
5129,9.584
5130,9.573
5131,9.584
5132,9.584
5133,9.595
5134,9.616
5135,9.643
5136,9.654
5137,9.686
5138,9.692
5139,9.708
5140,9.730
5141,9.762
5142,9.778
5143,9.822
5144,9.843
5145,9.876
5146,9.903
5147,9.962
5148,9.989
5149,10.038
5150,10.076
5151,10.103
5152,10.157
5153,10.184
5154,10.227
5155,10.270
5156,10.324
5157,10.335
5158,10.346
5159,10.357
5160,10.384
5161,10.384
5162,10.405
5163,10.416
5164,10.416
5165,10.395
5166,10.373
5167,10.357
5168,10.324
5169,10.281
5170,10.238
5171,10.195
5172,10.173
5173,10.076
5174,10.022
5175,9.962
5176,9.886
5177,9.832
5178,9.778
5179,9.719
5180,9.686
5181,9.627
5182,9.568
5183,9.530
5184,9.519
5185,9.492
5186,9.459
5187,9.432
5188,9.459
5189,9.416
5190,9.395
5191,9.384
5192,9.373
5193,9.373
5194,9.362
5195,9.373
5196,9.373
5197,9.373
5198,9.373
5199,9.373
5200,9.384
5201,9.373
5202,9.362
5203,9.373
5204,9.384
5205,9.373
5206,9.373
5207,9.373
5208,9.373
5209,9.373
5210,9.362
5211,9.362
5212,9.373
5213,9.346
5214,9.335
5215,9.384
5216,9.335
5217,9.319
5218,9.319
5219,9.308
5220,9.308
5221,9.281
5222,9.292
5223,9.270
5224,9.270
5225,9.259
5226,9.238
5227,9.238
5228,9.238
5229,9.222
5230,9.222
5231,9.184
5232,9.211
5233,9.200
5234,9.195
5235,9.195
5236,9.184
5237,9.184
5238,9.173
5239,9.173
5240,9.173
5241,9.157
5242,9.157
5243,9.157
5244,9.157
5245,9.146
5246,9.146
5247,9.135
5248,9.157
5249,9.146
5250,9.135
5251,9.135
5252,9.135
5253,9.135
5254,9.135
5255,9.135
5256,9.124
5257,9.135
5258,9.135
5259,9.114
5260,9.114
5261,9.114
5262,9.114
5263,9.114
5264,9.114
5265,9.114
5266,9.103
5267,9.103
5268,9.114
5269,9.103
5270,9.103
5271,9.103
5272,9.114
5273,9.114
5274,9.076
5275,9.103
5276,9.103
5277,9.103
5278,9.103
5279,9.086
5280,9.092
5281,9.103
5282,9.114
5283,9.092
5284,9.092
5285,9.103
5286,9.103
5287,9.103
5288,9.103
5289,9.103
5290,9.076
5291,9.114
5292,9.114
5293,9.103
5294,9.103
5295,9.103
5296,9.103
5297,9.103
5298,9.114
5299,9.103
5300,9.092
5301,9.092
5302,9.103
5303,9.103
5304,9.092
5305,9.086
5306,9.086
5307,9.103
5308,9.092
5309,9.103
5310,9.103
5311,9.103
5312,9.092
5313,9.103
5314,9.092
5315,9.086
5316,9.114
5317,9.059
5318,9.092
5319,9.103
5320,9.092
5321,9.103
5322,9.086
5323,9.103
5324,9.086
5325,9.086
5326,9.092
5327,9.103
5328,9.076
5329,9.103
5330,9.103
5331,9.103
5332,9.103
5333,9.059
5334,9.103
5335,9.103
5336,9.103
5337,9.103
5338,9.103
5339,9.103
5340,9.114
5341,9.103
5342,9.103
5343,9.114
5344,9.114
5345,9.114
5346,9.114
5347,9.114
5348,9.114
5349,9.086
5350,9.124
5351,9.124
5352,9.124
5353,9.135
5354,9.146
5355,9.135
5356,9.146
5357,9.146
5358,9.146
5359,9.146
5360,9.157
5361,9.146
5362,9.146
5363,9.157
5364,9.146
5365,9.146
5366,9.146
5367,9.157
5368,9.157
5369,9.157
5370,9.162
5371,9.157
5372,9.173
5373,9.157
5374,9.162
5375,9.184
5376,9.135
5377,9.173
5378,9.162
5379,9.184
5380,9.184
5381,9.184
5382,9.184
5383,9.195
5384,9.200
5385,9.200
5386,9.222
5387,9.222
5388,9.227
5389,9.227
5390,9.259
5391,9.259
5392,9.227
5393,9.281
5394,9.281
5395,9.308
5396,9.292
5397,9.292
5398,9.281
5399,9.281
5400,9.292
5401,9.292
5402,9.270
5403,9.281
5404,9.292
5405,9.270
5406,9.281
5407,9.281
5408,9.297
5409,9.249
5410,9.227
5411,9.227
5412,9.249
5413,9.227
5414,9.227
5415,9.227
5416,9.238
5417,9.238
5418,9.238
5419,9.238
5420,9.259
5421,9.259
5422,9.249
5423,9.238
5424,9.184
5425,9.162
5426,9.259
5427,9.427
5428,9.692
5429,10.038
5430,10.416
5431,10.692
5432,10.751
5433,10.762
5434,10.762
5435,10.741
5436,10.654
5437,10.459
5438,9.924
5439,9.114
5440,8.632
5441,8.762
5442,8.978
5443,9.114
5444,9.124
5445,9.124
5446,9.124
5447,9.195
5448,9.270
5449,9.308
5450,9.319
5451,9.346
5452,9.324
5453,9.335
5454,9.357
5455,9.357
5456,9.373
5457,9.384
5458,9.384
5459,9.405
5460,9.395
5461,9.384
5462,9.416
5463,9.432
5464,9.432
5465,9.427
5466,9.443
5467,9.443
5468,9.449
5469,9.459
5470,9.459
5471,9.449
5472,9.481
5473,9.492
5474,9.497
5475,9.508
5476,9.508
5477,9.519
5478,9.562
5479,9.551
5480,9.568
5481,9.568
5482,9.616
5483,9.616
5484,9.632
5485,9.654
5486,9.686
5487,9.697
5488,9.730
5489,9.768
5490,9.822
5491,9.843
5492,9.886
5493,9.924
5494,10.000
5495,10.011
5496,10.049
5497,10.086
5498,10.124
5499,10.162
5500,10.211
5501,10.227
5502,10.259
5503,10.270
5504,10.292
5505,10.281
5506,10.297
5507,10.308
5508,10.297
5509,10.281
5510,10.308
5511,10.259
5512,10.227
5513,10.200
5514,10.162
5515,10.114
5516,10.076
5517,10.011
5518,9.962
5519,9.903
5520,9.832
5521,9.778
5522,9.730
5523,9.676
5524,9.632
5525,9.573
5526,9.551
5527,9.508
5528,9.497
5529,9.459
5530,9.432
5531,9.416
5532,9.384
5533,9.373
5534,9.373
5535,9.346
5536,9.324
5537,9.373
5538,9.335
5539,9.346
5540,9.324
5541,9.319
5542,9.335
5543,9.335
5544,9.324
5545,9.335
5546,9.335
5547,9.319
5548,9.324
5549,9.324
5550,9.319
5551,9.324
5552,9.324
5553,9.346
5554,9.308
5555,9.308
5556,9.308
5557,9.292
5558,9.297
5559,9.281
5560,9.292
5561,9.281
5562,9.281
5563,9.270
5564,9.249
5565,9.259
5566,9.238
5567,9.238
5568,9.227
5569,9.195
5570,9.222
5571,9.200
5572,9.195
5573,9.184
5574,9.184
5575,9.173
5576,9.184
5577,9.157
5578,9.157
5579,9.157
5580,9.157
5581,9.146
5582,9.124
5583,9.135
5584,9.124
5585,9.114
5586,9.114
5587,9.114
5588,9.114
5589,9.103
5590,9.092
5591,9.086
5592,9.103
5593,9.092
5594,9.086
5595,9.103
5596,9.070
5597,9.103
5598,9.076
5599,9.076
5600,9.076
5601,9.076
5602,9.076
5603,9.076
5604,9.076
5605,9.076
5606,9.076
5607,9.076
5608,9.070
5609,9.070
5610,9.076
5611,9.076
5612,9.038
5613,9.059
5614,9.070
5615,9.076
5616,9.076
5617,9.076
5618,9.070
5619,9.070
5620,9.076
5621,9.086
5622,9.086
5623,9.076
5624,9.070
5625,9.070
5626,9.070
5627,9.076
5628,9.070
5629,9.076
5630,9.076
5631,9.059
5632,9.076
5633,9.070
5634,9.070
5635,9.059
5636,9.076
5637,9.076
5638,9.086
5639,9.086
5640,9.086
5641,9.076
5642,9.076
5643,9.059
5644,9.070
5645,9.070
5646,9.070
5647,9.076
5648,9.076
5649,9.076
5650,9.070
5651,9.076
5652,9.070
5653,9.086
5654,9.070
5655,9.038
5656,9.076
5657,9.076
5658,9.076
5659,9.076
5660,9.076
5661,9.076
5662,9.086
5663,9.070
5664,9.076
5665,9.086
5666,9.086
5667,9.086
5668,9.086
5669,9.076
5670,9.086
5671,9.049
5672,9.086
5673,9.076
5674,9.086
5675,9.086
5676,9.103
5677,9.103
5678,9.092
5679,9.086
5680,9.092
5681,9.103
5682,9.092
5683,9.086
5684,9.103
5685,9.092
5686,9.103
5687,9.092
5688,9.103
5689,9.092
5690,9.114
5691,9.103
5692,9.103
5693,9.124
5694,9.135
5695,9.124
5696,9.114
5697,9.114
5698,9.086
5699,9.124
5700,9.135
5701,9.114
5702,9.135
5703,9.124
5704,9.135
5705,9.146
5706,9.146
5707,9.146
5708,9.157
5709,9.135
5710,9.146
5711,9.157
5712,9.157
5713,9.157
5714,9.124
5715,9.162
5716,9.162
5717,9.157
5718,9.162
5719,9.157
5720,9.173
5721,9.184
5722,9.184
5723,9.173
5724,9.195
5725,9.184
5726,9.184
5727,9.184
5728,9.195
5729,9.222
5730,9.173
5731,9.222
5732,9.249
5733,9.227
5734,9.259
5735,9.259
5736,9.292
5737,9.292
5738,9.281
5739,9.281
5740,9.259
5741,9.227
5742,9.227
5743,9.259
5744,9.281
5745,9.270
5746,9.238
5747,9.259
5748,9.270
5749,9.270
5750,9.227
5751,9.222
5752,9.222
5753,9.227
5754,9.222
5755,9.222
5756,9.222
5757,9.184
5758,9.222
5759,9.227
5760,9.259
5761,9.238
5762,9.249
5763,9.259
5764,9.238
5765,9.211
5766,9.222
5767,9.297
5768,9.449
5769,9.686
5770,10.011
5771,10.357
5772,10.654
5773,10.762
5774,10.762
5775,10.741
5776,10.697
5777,10.643
5778,10.470
5779,9.951
5780,9.184
5781,8.616
5782,8.616
5783,8.843
5784,9.022
5785,9.103
5786,9.086
5787,9.092
5788,9.135
5789,9.200
5790,9.292
5791,9.319
5792,9.324
5793,9.308
5794,9.335
5795,9.357
5796,9.373
5797,9.373
5798,9.384
5799,9.373
5800,9.405
5801,9.405
5802,9.416
5803,9.427
5804,9.427
5805,9.449
5806,9.449
5807,9.443
5808,9.449
5809,9.470
5810,9.470
5811,9.497
5812,9.497
5813,9.508
5814,9.508
5815,9.508
5816,9.562
5817,9.541
5818,9.568
5819,9.573
5820,9.584
5821,9.616
5822,9.643
5823,9.654
5824,9.686
5825,9.692
5826,9.697
5827,9.762
5828,9.800
5829,9.811
5830,9.854
5831,9.886
5832,9.962
5833,9.962
5834,10.022
5835,10.038
5836,10.076
5837,10.114
5838,10.162
5839,10.200
5840,10.227
5841,10.270
5842,10.292
5843,10.319
5844,10.346
5845,10.357
5846,10.362
5847,10.395
5848,10.384
5849,10.384
5850,10.362
5851,10.357
5852,10.346
5853,10.308
5854,10.308
5855,10.270
5856,10.227
5857,10.184
5858,10.114
5859,10.086
5860,10.000
5861,9.935
5862,9.854
5863,9.811
5864,9.751
5865,9.697
5866,9.654
5867,9.616
5868,9.573
5869,9.541
5870,9.508
5871,9.492
5872,9.459
5873,9.443
5874,9.432
5875,9.443
5876,9.416
5877,9.416
5878,9.416
5879,9.395
5880,9.395
5881,9.395
5882,9.395
5883,9.395
5884,9.395
5885,9.373
5886,9.384
5887,9.395
5888,9.395
5889,9.373
5890,9.373
5891,9.432
5892,9.395
5893,9.384
5894,9.373
5895,9.373
5896,9.384
5897,9.384
5898,9.373
5899,9.373
5900,9.357
5901,9.357
5902,9.346
5903,9.335
5904,9.335
5905,9.324
5906,9.319
5907,9.324
5908,9.308
5909,9.297
5910,9.292
5911,9.281
5912,9.270
5913,9.259
5914,9.259
5915,9.259
5916,9.249
5917,9.238
5918,9.184
5919,9.227
5920,9.227
5921,9.222
5922,9.222
5923,9.200
5924,9.211
5925,9.195
5926,9.184
5927,9.195
5928,9.195
5929,9.184
5930,9.184
5931,9.184
5932,9.173
5933,9.184
5934,9.146
5935,9.162
5936,9.173
5937,9.157
5938,9.162
5939,9.162
5940,9.157
5941,9.162
5942,9.162
5943,9.162
5944,9.162
5945,9.146
5946,9.157
5947,9.146
5948,9.157
5949,9.157
5950,9.146
5951,9.162
5952,9.157
5953,9.135
5954,9.135
5955,9.146
5956,9.135
5957,9.146
5958,9.146
5959,9.146
5960,9.135
5961,9.135
5962,9.146
5963,9.124
5964,9.135
5965,9.135
5966,9.135
5967,9.146
5968,9.135
5969,9.146
5970,9.146
5971,9.146
5972,9.157
5973,9.146
5974,9.146
5975,9.146
5976,9.157
5977,9.103
5978,9.146
5979,9.146
5980,9.135
5981,9.146
5982,9.135
5983,9.146
5984,9.135
5985,9.135
5986,9.135
5987,9.135
5988,9.135
5989,9.146
5990,9.135
5991,9.146
5992,9.146
5993,9.086
5994,9.135
5995,9.124
5996,9.135
5997,9.135
5998,9.146
5999,9.135
6000,9.135
6001,9.135
6002,9.135
6003,9.135
6004,9.135
6005,9.135
6006,9.146
6007,9.146
6008,9.157
6009,9.135
6010,9.146
6011,9.146
6012,9.135
6013,9.146
6014,9.146
6015,9.146
6016,9.157
6017,9.146
6018,9.146
6019,9.157
6020,9.173
6021,9.146
6022,9.157
6023,9.146
6024,9.162
6025,9.146
6026,9.157
6027,9.162
6028,9.157
6029,9.162
6030,9.162
6031,9.157
6032,9.173
6033,9.162
6034,9.184
6035,9.184
6036,9.135
6037,9.173
6038,9.173
6039,9.173
6040,9.184
6041,9.184
6042,9.184
6043,9.184
6044,9.195
6045,9.200
6046,9.195
6047,9.195
6048,9.195
6049,9.184
6050,9.195
6051,9.222
6052,9.173
6053,9.222
6054,9.222
6055,9.222
6056,9.222
6057,9.222
6058,9.222
6059,9.211
6060,9.227
6061,9.238
6062,9.227
6063,9.227
6064,9.227
6065,9.238
6066,9.238
6067,9.249
6068,9.249
6069,9.259
6070,9.259
6071,9.281
6072,9.297
6073,9.297
6074,9.308
6075,9.335
6076,9.346
6077,9.357
6078,9.335
6079,9.346
6080,9.324
6081,9.308
6082,9.297
6083,9.308
6084,9.335
6085,9.319
6086,9.308
6087,9.297
6088,9.308
6089,9.297
6090,9.297
6091,9.281
6092,9.270
6093,9.281
6094,9.281
6095,9.297
6096,9.259
6097,9.270
6098,9.270
6099,9.292
6100,9.292
6101,9.281
6102,9.297
6103,9.292
6104,9.270
6105,9.222
6106,9.195
6107,9.259
6108,9.395
6109,9.627
6110,9.962
6111,10.384
6112,10.676
6113,10.762
6114,10.778
6115,10.768
6116,10.762
6117,10.692
6118,10.573
6119,10.184
6120,9.395
6121,8.719
6122,8.751
6123,9.038
6124,9.195
6125,9.238
6126,9.222
6127,9.195
6128,9.249
6129,9.324
6130,9.373
6131,9.384
6132,9.384
6133,9.395
6134,9.405
6135,9.427
6136,9.432
6137,9.427
6138,9.481
6139,9.459
6140,9.459
6141,9.470
6142,9.470
6143,9.492
6144,9.497
6145,9.508
6146,9.508
6147,9.497
6148,9.519
6149,9.541
6150,9.562
6151,9.568
6152,9.568
6153,9.568
6154,9.627
6155,9.605
6156,9.616
6157,9.616
6158,9.627
6159,9.643
6160,9.686
6161,9.686
6162,9.692
6163,9.719
6164,9.741
6165,9.751
6166,9.778
6167,9.811
6168,9.843
6169,9.865
6170,9.903
6171,9.935
6172,9.962
6173,10.000
6174,10.049
6175,10.086
6176,10.135
6177,10.162
6178,10.200
6179,10.238
6180,10.281
6181,10.297
6182,10.335
6183,10.373
6184,10.395
6185,10.416
6186,10.432
6187,10.432
6188,10.449
6189,10.449
6190,10.449
6191,10.427
6192,10.427
6193,10.405
6194,10.384
6195,10.346
6196,10.308
6197,10.292
6198,10.200
6199,10.157
6200,10.086
6201,10.027
6202,9.962
6203,9.892
6204,9.843
6205,9.778
6206,9.719
6207,9.665
6208,9.632
6209,9.584
6210,9.551
6211,9.530
6212,9.470
6213,9.497
6214,9.449
6215,9.427
6216,9.405
6217,9.395
6218,9.384
6219,9.405
6220,9.384
6221,9.373
6222,9.373
6223,9.373
6224,9.373
6225,9.373
6226,9.373
6227,9.384
6228,9.384
6229,9.395
6230,9.395
6231,9.395
6232,9.384
6233,9.384
6234,9.395
6235,9.395
6236,9.384
6237,9.384
6238,9.384
6239,9.362
6240,9.405
6241,9.373
6242,9.373
6243,9.357
6244,9.346
6245,9.346
6246,9.335
6247,9.324
6248,9.319
6249,9.297
6250,9.292
6251,9.281
6252,9.270
6253,9.270
6254,9.259
6255,9.270
6256,9.200
6257,9.227
6258,9.238
6259,9.222
6260,9.222
6261,9.200
6262,9.211
6263,9.211
6264,9.195
6265,9.195
6266,9.200
6267,9.173
6268,9.173
6269,9.162
6270,9.157
6271,9.162
6272,9.124
6273,9.157
6274,9.157
6275,9.146
6276,9.146
6277,9.146
6278,9.146
6279,9.135
6280,9.135
6281,9.114
6282,9.135
6283,9.124
6284,9.135
6285,9.114
6286,9.135
6287,9.114
6288,9.114
6289,9.114
6290,9.103
6291,9.114
6292,9.114
6293,9.114
6294,9.103
6295,9.103
6296,9.103
6297,9.103
6298,9.092
6299,9.070
6300,9.092
6301,9.103
6302,9.103
6303,9.114
6304,9.092
6305,9.103
6306,9.086
6307,9.086
6308,9.092
6309,9.092
6310,9.086
6311,9.092
6312,9.092
6313,9.086
6314,9.086
6315,9.070
6316,9.092
6317,9.086
6318,9.086
6319,9.086
6320,9.092
6321,9.076
6322,9.076
6323,9.076
6324,9.086
6325,9.076
6326,9.070
6327,9.070
6328,9.076
6329,9.076
6330,9.076
6331,9.049
6332,9.076
6333,9.070
6334,9.070
6335,9.070
6336,9.070
6337,9.070
6338,9.059
6339,9.070
6340,9.070
6341,9.070
6342,9.070
6343,9.049
6344,9.049
6345,9.049
6346,9.049
6347,9.038
6348,9.038
6349,9.038
6350,9.038
6351,9.049
6352,9.049
6353,9.049
6354,9.038
6355,9.038
6356,9.038
6357,9.049
6358,9.022
6359,9.027
6360,9.038
6361,9.038
6362,9.038
6363,9.038
6364,9.038
6365,9.027
6366,9.038
6367,9.038
6368,9.038
6369,9.027
6370,9.038
6371,9.038
6372,9.038
6373,9.049
6374,9.022
6375,9.038
6376,9.027
6377,9.027
6378,9.038
6379,9.049
6380,9.038
6381,9.049
6382,9.038
6383,9.049
6384,9.038
6385,9.038
6386,9.038
6387,9.038
6388,9.038
6389,9.027
6390,9.027
6391,9.049
6392,9.038
6393,9.038
6394,9.049
6395,9.070
6396,9.070
6397,9.049
6398,9.070
6399,9.070
6400,9.070
6401,9.070
6402,9.070
6403,9.070
6404,9.070
6405,9.059
6406,9.070
6407,9.070
6408,9.076
6409,9.070
6410,9.059
6411,9.086
6412,9.086
6413,9.086
6414,9.086
6415,9.103
6416,9.114
6417,9.086
6418,9.124
6419,9.157
6420,9.173
6421,9.184
6422,9.162
6423,9.157
6424,9.135
6425,9.135
6426,9.114
6427,9.124
6428,9.146
6429,9.146
6430,9.135
6431,9.135
6432,9.157
6433,9.103
6434,9.114
6435,9.103
6436,9.086
6437,9.086
6438,9.092
6439,9.086
6440,9.092
6441,9.086
6442,9.086
6443,9.103
6444,9.103
6445,9.103
6446,9.114
6447,9.124
6448,9.103
6449,9.049
6450,9.027
6451,9.070
6452,9.162
6453,9.373
6454,9.654
6455,10.038
6456,10.405
6457,10.632
6458,10.676
6459,10.676
6460,10.676
6461,10.605
6462,10.497
6463,10.157
6464,9.459
6465,8.697
6466,8.508
6467,8.741
6468,8.924
6469,9.000
6470,9.000
6471,8.962
6472,9.022
6473,9.076
6474,9.157
6475,9.184
6476,9.157
6477,9.195
6478,9.200
6479,9.222
6480,9.227
6481,9.227
6482,9.238
6483,9.238
6484,9.259
6485,9.259
6486,9.270
6487,9.281
6488,9.281
6489,9.281
6490,9.297
6491,9.297
6492,9.357
6493,9.324
6494,9.335
6495,9.346
6496,9.346
6497,9.357
6498,9.373
6499,9.384
6500,9.384
6501,9.384
6502,9.405
6503,9.416
6504,9.443
6505,9.449
6506,9.449
6507,9.459
6508,9.492
6509,9.508
6510,9.519
6511,9.551
6512,9.568
6513,9.573
6514,9.627
6515,9.665
6516,9.692
6517,9.730
6518,9.778
6519,9.854
6520,9.865
6521,9.892
6522,9.946
6523,9.978
6524,10.022
6525,10.049
6526,10.086
6527,10.114
6528,10.146
6529,10.157
6530,10.162
6531,10.195
6532,10.211
6533,10.200
6534,10.211
6535,10.227
6536,10.195
6537,10.162
6538,10.135
6539,10.114
6540,10.070
6541,10.027
6542,9.968
6543,9.924
6544,9.865
6545,9.778
6546,9.719
6547,9.665
6548,9.616
6549,9.541
6550,9.497
6551,9.481
6552,9.416
6553,9.373
6554,9.335
6555,9.297
6556,9.292
6557,9.249
6558,9.238
6559,9.211
6560,9.211
6561,9.200
6562,9.195
6563,9.184
6564,9.184
6565,9.184
6566,9.184
6567,9.162
6568,9.173
6569,9.184
6570,9.184
6571,9.195
6572,9.195
6573,9.184
6574,9.184
6575,9.184
6576,9.184
6577,9.184
6578,9.146
6579,9.173
6580,9.162
6581,9.162
6582,9.162
6583,9.162
6584,9.157
6585,9.146
6586,9.146
6587,9.135
6588,9.135
6589,9.114
6590,9.114
6591,9.114
6592,9.092
6593,9.086
6594,9.049
6595,9.076
6596,9.076
6597,9.070
6598,9.070
6599,9.049
6600,9.049
6601,9.038
6602,9.022
6603,9.027
6604,9.022
6605,9.011
6606,9.000
6607,8.978
6608,8.989
6609,8.978
6610,8.978
6611,8.978
6612,8.968
6613,8.968
6614,8.968
6615,8.968
6616,8.968
6617,8.962
6618,8.962
6619,8.968
6620,8.978
6621,8.951
6622,8.968
6623,8.951
6624,8.978
6625,8.962
6626,8.962
6627,8.962
6628,8.962
6629,8.951
6630,8.962
6631,8.968
6632,8.946
6633,8.962
6634,8.962
6635,8.962
6636,8.962
6637,8.914
6638,8.951
6639,8.951
6640,8.951
6641,8.962
6642,8.951
6643,8.951
6644,8.962
6645,8.962
6646,8.962
6647,8.968
6648,8.951
6649,8.962
6650,8.968
6651,8.978
6652,8.968
6653,8.935
6654,8.968
6655,8.962
6656,8.968
6657,8.962
6658,8.962
6659,8.968
6660,8.978
6661,8.962
6662,8.968
6663,8.968
6664,8.968
6665,8.962
6666,8.962
6667,8.962
6668,8.962
6669,8.962
6670,8.978
6671,8.968
6672,8.978
6673,8.962
6674,8.978
6675,8.968
6676,8.962
6677,8.968
6678,8.978
6679,8.978
6680,8.946
6681,8.968
6682,8.968
6683,8.978
6684,8.962
6685,8.962
6686,8.968
6687,8.968
6688,8.968
6689,8.968
6690,8.989
6691,8.978
6692,8.962
6693,8.978
6694,8.978
6695,8.989
6696,8.951
6697,8.989
6698,8.989
6699,9.011
6700,9.011
6701,8.989
6702,8.989
6703,8.968
6704,9.011
6705,9.000
6706,9.011
6707,9.000
6708,9.000
6709,8.989
6710,8.989
6711,9.000
6712,9.000
6713,9.011
6714,9.011
6715,9.011
6716,9.022
6717,9.027
6718,9.027
6719,9.027
6720,9.027
6721,9.038
6722,9.027
6723,9.022
6724,9.038
6725,9.038
6726,9.038
6727,9.038
6728,9.027
6729,9.027
6730,9.027
6731,9.059
6732,9.038
6733,9.049
6734,9.049
6735,9.070
6736,9.049
6737,9.049
6738,9.059
6739,9.038
6740,9.070
6741,9.059
6742,9.070
6743,9.076
6744,9.076
6745,9.070
6746,9.076
6747,9.076
6748,9.076
6749,9.103
6750,9.103
6751,9.103
6752,9.114
6753,9.124
6754,9.146
6755,9.103
6756,9.162
6757,9.184
6758,9.184
6759,9.200
6760,9.200
6761,9.195
6762,9.195
6763,9.184
6764,9.200
6765,9.222
6766,9.184
6767,9.173
6768,9.184
6769,9.184
6770,9.162
6771,9.157
6772,9.173
6773,9.173
6774,9.162
6775,9.146
6776,9.135
6777,9.146
6778,9.146
6779,9.124
6780,9.124
6781,9.135
6782,9.135
6783,9.162
6784,9.157
6785,9.162
6786,9.162
6787,9.157
6788,9.162
6789,9.146
6790,9.157
6791,9.195
6792,9.292
6793,9.470
6794,9.762
6795,10.092
6796,10.470
6797,10.654
6798,10.708
6799,10.692
6800,10.665
6801,10.595
6802,10.492
6803,10.146
6804,9.443
6805,8.719
6806,8.492
6807,8.676
6808,8.886
6809,9.000
6810,9.027
6811,9.000
6812,9.027
6813,9.086
6814,9.124
6815,9.238
6816,9.238
6817,9.259
6818,9.292
6819,9.270
6820,9.292
6821,9.308
6822,9.319
6823,9.335
6824,9.324
6825,9.335
6826,9.335
6827,9.346
6828,9.346
6829,9.373
6830,9.395
6831,9.373
6832,9.395
6833,9.384
6834,9.405
6835,9.416
6836,9.427
6837,9.427
6838,9.449
6839,9.449
6840,9.459
6841,9.497
6842,9.470
6843,9.492
6844,9.497
6845,9.497
6846,9.541
6847,9.551
6848,9.605
6849,9.616
6850,9.627
6851,9.665
6852,9.692
6853,9.730
6854,9.768
6855,9.811
6856,9.822
6857,9.903
6858,9.935
6859,9.968
6860,10.022
6861,10.038
6862,10.086
6863,10.135
6864,10.184
6865,10.222
6866,10.238
6867,10.259
6868,10.270
6869,10.297
6870,10.319
6871,10.319
6872,10.335
6873,10.362
6874,10.335
6875,10.319
6876,10.297
6877,10.297
6878,10.259
6879,10.238
6880,10.200
6881,10.157
6882,10.103
6883,10.070
6884,10.000
6885,9.951
6886,9.886
6887,9.832
6888,9.768
6889,9.708
6890,9.654
6891,9.605
6892,9.568
6893,9.519
6894,9.492
6895,9.459
6896,9.432
6897,9.416
6898,9.395
6899,9.373
6900,9.405
6901,9.357
6902,9.362
6903,9.357
6904,9.346
6905,9.335
6906,9.335
6907,9.335
6908,9.346
6909,9.335
6910,9.335
6911,9.346
6912,9.362
6913,9.335
6914,9.335
6915,9.319
6916,9.373
6917,9.346
6918,9.335
6919,9.335
6920,9.335
6921,9.335
6922,9.335
6923,9.319
6924,9.324
6925,9.319
6926,9.297
6927,9.308
6928,9.292
6929,9.292
6930,9.281
6931,9.297
6932,9.281
6933,9.270
6934,9.249
6935,9.259
6936,9.249
6937,9.222
6938,9.222
6939,9.222
6940,9.222
6941,9.200
6942,9.195
6943,9.195
6944,9.184
6945,9.184
6946,9.162
6947,9.162
6948,9.162
6949,9.162
6950,9.162
6951,9.157
6952,9.146
6953,9.157
6954,9.146
6955,9.146
6956,9.157
6957,9.162
6958,9.146
6959,9.086
6960,9.135
6961,9.114
6962,9.114
6963,9.135
6964,9.114
6965,9.135
6966,9.124
6967,9.114
6968,9.114
6969,9.114
6970,9.114
6971,9.124
6972,9.114
6973,9.124
6974,9.135
6975,9.086
6976,9.124
6977,9.114
6978,9.114
6979,9.114
6980,9.124
6981,9.146
6982,9.124
6983,9.114
6984,9.114
6985,9.124
6986,9.114
6987,9.114
6988,9.124
6989,9.114
6990,9.114
6991,9.103
6992,9.124
6993,9.124
6994,9.135
6995,9.124
6996,9.124
6997,9.135
6998,9.114
6999,9.114
7000,9.124
7001,9.146
7002,9.103
7003,9.124
7004,9.135
7005,9.146
7006,9.135
7007,9.124
7008,9.135
7009,9.135
7010,9.124
7011,9.124
7012,9.157
7013,9.124
7014,9.124
7015,9.135
7016,9.135
7017,9.135
7018,9.086
7019,9.135
7020,9.124
7021,9.135
7022,9.146
7023,9.135
7024,9.135
7025,9.124
7026,9.135
7027,9.124
7028,9.135
7029,9.124
7030,9.135
7031,9.124
7032,9.124
7033,9.124
7034,9.103
7035,9.124
7036,9.146
7037,9.146
7038,9.146
7039,9.146
7040,9.157
7041,9.146
7042,9.135
7043,9.135
7044,9.146
7045,9.146
7046,9.146
7047,9.146
7048,9.157
7049,9.146
7050,9.146
7051,9.146
7052,9.157
7053,9.146
7054,9.157
7055,9.162
7056,9.157
7057,9.162
7058,9.173
7059,9.162
7060,9.173
7061,9.124
7062,9.162
7063,9.162
7064,9.173
7065,9.162
7066,9.162
7067,9.162
7068,9.162
7069,9.157
7070,9.184
7071,9.195
7072,9.184
7073,9.173
7074,9.184
7075,9.195
7076,9.195
7077,9.146
7078,9.184
7079,9.184
7080,9.195
7081,9.195
7082,9.195
7083,9.184
7084,9.195
7085,9.195
7086,9.195
7087,9.200
7088,9.195
7089,9.200
7090,9.200
7091,9.222
7092,9.227
7093,9.222
7094,9.238
7095,9.259
7096,9.259
7097,9.281
7098,9.281
7099,9.308
7100,9.308
7101,9.292
7102,9.292
7103,9.281
7104,9.292
7105,9.259
7106,9.259
7107,9.281
7108,9.270
7109,9.270
7110,9.270
7111,9.270
7112,9.270
7113,9.281
7114,9.238
7115,9.227
7116,9.222
7117,9.238
7118,9.227
7119,9.227
7120,9.195
7121,9.227
7122,9.238
7123,9.238
7124,9.249
7125,9.238
7126,9.259
7127,9.238
7128,9.195
7129,9.135
7130,9.184
7131,9.281
7132,9.459
7133,9.762
7134,10.146
7135,10.508
7136,10.692
7137,10.697
7138,10.708
7139,10.692
7140,10.632
7141,10.562
7142,10.259
7143,9.584
7144,8.822
7145,8.665
7146,8.951
7147,9.135
7148,9.184
7149,9.157
7150,9.162
7151,9.195
7152,9.238
7153,9.319
7154,9.335
7155,9.335
7156,9.335
7157,9.357
7158,9.373
7159,9.373
7160,9.395
7161,9.395
7162,9.395
7163,9.443
7164,9.432
7165,9.432
7166,9.443
7167,9.443
7168,9.459
7169,9.470
7170,9.492
7171,9.497
7172,9.497
7173,9.497
7174,9.530
7175,9.541
7176,9.562
7177,9.562
7178,9.568
7179,9.595
7180,9.573
7181,9.584
7182,9.605
7183,9.616
7184,9.643
7185,9.654
7186,9.665
7187,9.692
7188,9.697
7189,9.730
7190,9.751
7191,9.778
7192,9.827
7193,9.843
7194,9.886
7195,9.962
7196,9.968
7197,10.011
7198,10.038
7199,10.086
7200,10.103
7201,10.184
7202,10.211
7203,10.259
7204,10.292
7205,10.308
7206,10.324
7207,10.357
7208,10.362
7209,10.373
7210,10.395
7211,10.395
7212,10.405
7213,10.395
7214,10.384
7215,10.362
7216,10.335
7217,10.308
7218,10.297
7219,10.259
7220,10.195
7221,10.135
7222,10.124
7223,10.027
7224,9.962
7225,9.886
7226,9.832
7227,9.778
7228,9.730
7229,9.665
7230,9.616
7231,9.568
7232,9.519
7233,9.508
7234,9.470
7235,9.443
7236,9.432
7237,9.405
7238,9.432
7239,9.384
7240,9.384
7241,9.384
7242,9.373
7243,9.373
7244,9.373
7245,9.373
7246,9.362
7247,9.362
7248,9.373
7249,9.373
7250,9.373
7251,9.384
7252,9.384
7253,9.362
7254,9.416
7255,9.384
7256,9.395
7257,9.373
7258,9.395
7259,9.373
7260,9.384
7261,9.384
7262,9.373
7263,9.362
7264,9.362
7265,9.373
7266,9.373
7267,9.373
7268,9.335
7269,9.319
7270,9.335
7271,9.319
7272,9.319
7273,9.292
7274,9.292
7275,9.259
7276,9.281
7277,9.270
7278,9.259
7279,9.259
7280,9.238
7281,9.200
7282,9.227
7283,9.227
7284,9.222
7285,9.222
7286,9.200
7287,9.200
7288,9.200
7289,9.195
7290,9.195
7291,9.195
7292,9.184
7293,9.195
7294,9.184
7295,9.184
7296,9.184
7297,9.146
7298,9.162
7299,9.162
7300,9.173
7301,9.157
7302,9.162
7303,9.146
7304,9.157
7305,9.157
7306,9.157
7307,9.157
7308,9.146
7309,9.146
7310,9.146
7311,9.146
7312,9.157
7313,9.135
7314,9.146
7315,9.146
7316,9.135
7317,9.135
7318,9.124
7319,9.124
7320,9.124
7321,9.135
7322,9.135
7323,9.135
7324,9.135
7325,9.135
7326,9.124
7327,9.124
7328,9.114
7329,9.114
7330,9.114
7331,9.124
7332,9.114
7333,9.114
7334,9.135
7335,9.114
7336,9.124
7337,9.114
7338,9.124
7339,9.114
7340,9.076
7341,9.124
7342,9.114
7343,9.114
7344,9.114
7345,9.114
7346,9.114
7347,9.114
7348,9.103
7349,9.124
7350,9.135
7351,9.103
7352,9.114
7353,9.103
7354,9.114
7355,9.124
7356,9.086
7357,9.103
7358,9.114
7359,9.135
7360,9.114
7361,9.124
7362,9.114
7363,9.114
7364,9.114
7365,9.114
7366,9.135
7367,9.114
7368,9.114
7369,9.124
7370,9.114
7371,9.114
7372,9.103
7373,9.124
7374,9.114
7375,9.124
7376,9.124
7377,9.114
7378,9.135
7379,9.124
7380,9.114
7381,9.114
7382,9.135
7383,9.086
7384,9.124
7385,9.114
7386,9.135
7387,9.146
7388,9.124
7389,9.135
7390,9.135
7391,9.135
7392,9.135
7393,9.135
7394,9.124
7395,9.135
7396,9.146
7397,9.146
7398,9.146
7399,9.114
7400,9.157
7401,9.146
7402,9.146
7403,9.146
7404,9.157
7405,9.157
7406,9.157
7407,9.157
7408,9.162
7409,9.162
7410,9.157
7411,9.146
7412,9.157
7413,9.162
7414,9.184
7415,9.146
7416,9.162
7417,9.162
7418,9.184
7419,9.162
7420,9.173
7421,9.162
7422,9.173
7423,9.184
7424,9.184
7425,9.195
7426,9.195
7427,9.200
7428,9.222
7429,9.227
7430,9.227
7431,9.227
7432,9.238
7433,9.238
7434,9.238
7435,9.238
7436,9.238
7437,9.249
7438,9.259
7439,9.308
7440,9.308
7441,9.281
7442,9.222
7443,9.238
7444,9.238
7445,9.238
7446,9.238
7447,9.227
7448,9.238
7449,9.259
7450,9.238
7451,9.227
7452,9.222
7453,9.200
7454,9.222
7455,9.200
7456,9.195
7457,9.195
7458,9.162
7459,9.200
7460,9.222
7461,9.222
7462,9.227
7463,9.222
7464,9.195
7465,9.124
7466,9.146
7467,9.238
7468,9.395
7469,9.665
7470,10.000
7471,10.346
7472,10.616
7473,10.654
7474,10.676
7475,10.643
7476,10.616
7477,10.541
7478,10.308
7479,9.708
7480,8.951
7481,8.573
7482,8.762
7483,8.989
7484,9.086
7485,9.076
7486,9.059
7487,9.103
7488,9.173
7489,9.238
7490,9.259
7491,9.281
7492,9.270
7493,9.281
7494,9.297
7495,9.292
7496,9.319
7497,9.335
7498,9.335
7499,9.335
7500,9.335
7501,9.384
7502,9.373
7503,9.373
7504,9.384
7505,9.384
7506,9.395
7507,9.416
7508,9.416
7509,9.432
7510,9.427
7511,9.427
7512,9.449
7513,9.459
7514,9.470
7515,9.481
7516,9.492
7517,9.530
7518,9.508
7519,9.508
7520,9.541
7521,9.551
7522,9.551
7523,9.573
7524,9.616
7525,9.616
7526,9.643
7527,9.665
7528,9.697
7529,9.730
7530,9.751
7531,9.800
7532,9.832
7533,9.876
7534,9.903
7535,9.951
7536,10.000
7537,10.027
7538,10.070
7539,10.114
7540,10.146
7541,10.162
7542,10.200
7543,10.211
7544,10.270
7545,10.259
7546,10.281
7547,10.270
7548,10.270
7549,10.259
7550,10.259
7551,10.249
7552,10.211
7553,10.195
7554,10.146
7555,10.103
7556,10.059
7557,10.011
7558,9.951
7559,9.892
7560,9.865
7561,9.768
7562,9.719
7563,9.665
7564,9.616
7565,9.573
7566,9.530
7567,9.492
7568,9.459
7569,9.427
7570,9.384
7571,9.357
7572,9.346
7573,9.335
7574,9.319
7575,9.308
7576,9.346
7577,9.297
7578,9.308
7579,9.297
7580,9.292
7581,9.297
7582,9.308
7583,9.308
7584,9.292
7585,9.297
7586,9.308
7587,9.297
7588,9.292
7589,9.308
7590,9.292
7591,9.308
7592,9.297
7593,9.292
7594,9.292
7595,9.281
7596,9.281
7597,9.259
7598,9.270
7599,9.259
7600,9.259
7601,9.238
7602,9.238
7603,9.200
7604,9.227
7605,9.227
7606,9.222
7607,9.211
7608,9.195
7609,9.195
7610,9.184
7611,9.162
7612,9.173
7613,9.146
7614,9.146
7615,9.146
7616,9.135
7617,9.114
7618,9.135
7619,9.086
7620,9.103
7621,9.092
7622,9.103
7623,9.103
7624,9.103
7625,9.086
7626,9.086
7627,9.076
7628,9.076
7629,9.086
7630,9.076
7631,9.076
7632,9.070
7633,9.070
7634,9.070
7635,9.038
7636,9.070
7637,9.070
7638,9.070
7639,9.070
7640,9.070
7641,9.070
7642,9.070
7643,9.070
7644,9.070
7645,9.070
7646,9.070
7647,9.070
7648,9.059
7649,9.038
7650,9.059
7651,9.038
7652,9.038
7653,9.049
7654,9.070
7655,9.070
7656,9.049
7657,9.038
7658,9.038
7659,9.038
7660,9.038
7661,9.038
7662,9.000
7663,9.049
7664,9.049
7665,9.038
7666,9.038
7667,9.049
7668,9.038
7669,9.038
7670,9.038
7671,9.059
7672,9.038
7673,9.038
7674,9.038
7675,9.027
7676,9.038
7677,9.038
7678,9.000
7679,9.038
7680,9.038
7681,9.038
7682,9.027
7683,9.049
7684,9.027
7685,9.049
7686,9.027
7687,9.027
7688,9.038
7689,9.038
7690,9.027
7691,9.027
7692,9.027
7693,9.022
7694,9.011
7695,9.027
7696,9.038
7697,9.027
7698,9.027
7699,9.027
7700,9.011
7701,9.011
7702,9.022
7703,9.027
7704,9.027
7705,9.027
7706,9.022
7707,9.022
7708,9.038
7709,9.027
7710,9.011
7711,9.022
7712,9.027
7713,9.027
7714,9.038
7715,9.038
7716,9.038
7717,9.038
7718,9.038
7719,9.038
7720,9.038
7721,8.989
7722,9.027
7723,9.038
7724,9.038
7725,9.038
7726,9.027
7727,9.049
7728,9.038
7729,9.027
7730,9.038
7731,9.059
7732,9.038
7733,9.070
7734,9.070
7735,9.059
7736,9.076
7737,9.027
7738,9.070
7739,9.049
7740,9.076
7741,9.059
7742,9.086
7743,9.076
7744,9.076
7745,9.070
7746,9.076
7747,9.086
7748,9.076
7749,9.076
7750,9.076
7751,9.086
7752,9.086
7753,9.076
7754,9.086
7755,9.086
7756,9.086
7757,9.092
7758,9.086
7759,9.086
7760,9.103
7761,9.114
7762,9.103
7763,9.103
7764,9.076
7765,9.103
7766,9.103
7767,9.114
7768,9.124
7769,9.135
7770,9.146
7771,9.146
7772,9.146
7773,9.157
7774,9.184
7775,9.184
7776,9.195
7777,9.222
7778,9.227
7779,9.227
7780,9.195
7781,9.200
7782,9.200
7783,9.184
7784,9.184
7785,9.200
7786,9.222
7787,9.200
7788,9.195
7789,9.200
7790,9.222
7791,9.195
7792,9.184
7793,9.157
7794,9.162
7795,9.157
7796,9.135
7797,9.146
7798,9.135
7799,9.162
7800,9.173
7801,9.184
7802,9.173
7803,9.184
7804,9.184
7805,9.184
7806,9.157
7807,9.135
7808,9.200
7809,9.308
7810,9.519
7811,9.827
7812,10.157
7813,10.497
7814,10.616
7815,10.627
7816,10.632
7817,10.605
7818,10.530
7819,10.395
7820,9.951
7821,9.184
7822,8.573
7823,8.508
7824,8.768
7825,8.951
7826,9.027
7827,9.011
7828,9.000
7829,9.049
7830,9.135
7831,9.222
7832,9.249
7833,9.259
7834,9.270
7835,9.270
7836,9.281
7837,9.292
7838,9.308
7839,9.335
7840,9.324
7841,9.324
7842,9.335
7843,9.335
7844,9.335
7845,9.346
7846,9.357
7847,9.357
7848,9.373
7849,9.373
7850,9.384
7851,9.395
7852,9.395
7853,9.416
7854,9.416
7855,9.449
7856,9.443
7857,9.443
7858,9.459
7859,9.470
7860,9.492
7861,9.508
7862,9.530
7863,9.541
7864,9.568
7865,9.573
7866,9.605
7867,9.627
7868,9.654
7869,9.692
7870,9.719
7871,9.762
7872,9.800
7873,9.832
7874,9.886
7875,9.924
7876,9.962
7877,10.011
7878,10.059
7879,10.086
7880,10.114
7881,10.146
7882,10.200
7883,10.200
7884,10.222
7885,10.259
7886,10.270
7887,10.281
7888,10.292
7889,10.270
7890,10.259
7891,10.259
7892,10.227
7893,10.195
7894,10.184
7895,10.135
7896,10.092
7897,10.059
7898,10.049
7899,9.951
7900,9.914
7901,9.843
7902,9.778
7903,9.730
7904,9.686
7905,9.616
7906,9.573
7907,9.541
7908,9.492
7909,9.459
7910,9.432
7911,9.395
7912,9.373
7913,9.346
7914,9.346
7915,9.319
7916,9.308
7917,9.297
7918,9.297
7919,9.292
7920,9.292
7921,9.297
7922,9.297
7923,9.292
7924,9.292
7925,9.324
7926,9.292
7927,9.292
7928,9.297
7929,9.292
7930,9.281
7931,9.297
7932,9.308
7933,9.292
7934,9.297
7935,9.270
7936,9.292
7937,9.292
7938,9.281
7939,9.281
7940,9.292
7941,9.297
7942,9.259
7943,9.270
7944,9.259
7945,9.238
7946,9.227
7947,9.222
7948,9.222
7949,9.222
7950,9.211
7951,9.200
7952,9.195
7953,9.184
7954,9.162
7955,9.162
7956,9.157
7957,9.114
7958,9.135
7959,9.124
7960,9.135
7961,9.135
7962,9.135
7963,9.114
7964,9.092
7965,9.086
7966,9.092
7967,9.103
7968,9.092
7969,9.092
7970,9.092
7971,9.092
7972,9.086
7973,9.070
7974,9.076
7975,9.059
7976,9.076
7977,9.070
7978,9.070
7979,9.070
7980,9.070
7981,9.070
7982,9.070
7983,9.070
7984,9.022
7985,9.070
7986,9.070
7987,9.070
7988,9.070
7989,9.070
7990,9.070
7991,9.049
7992,9.059
7993,9.070
7994,9.070
7995,9.049
7996,9.070
7997,9.059
7998,9.049
7999,9.049
8000,9.011
8001,9.049
8002,9.049
8003,9.038
8004,9.049
8005,9.070
8006,9.049
8007,9.049
8008,9.038
8009,9.049
8010,9.059
8011,9.049
8012,9.059
8013,9.049
8014,9.070
8015,9.049
8016,9.038
8017,9.049
8018,9.049
8019,9.049
8020,9.038
8021,9.049
8022,9.038
8023,9.038
8024,9.038
8025,9.027
8026,9.049
8027,9.027
8028,9.038
8029,9.049
8030,9.049
8031,9.038
8032,9.038
8033,9.027
8034,9.027
8035,9.038
8036,9.038
8037,9.049
8038,9.049
8039,9.027
8040,9.038
8041,9.038
8042,9.038
8043,9.000
8044,9.038
8045,9.038
8046,9.038
8047,9.038
8048,9.038
8049,9.049
8050,9.049
8051,9.038
8052,9.038
8053,9.038
8054,9.038
8055,9.038
8056,9.038
8057,9.038
8058,9.049
8059,9.027
8060,9.038
8061,9.038
8062,9.038
8063,9.059
8064,9.059
8065,9.049
8066,9.070
8067,9.049
8068,9.070
8069,9.070
8070,9.059
8071,9.070
8072,9.070
8073,9.049
8074,9.070
8075,9.049
8076,9.070
8077,9.070
8078,9.070
8079,9.076
8080,9.076
8081,9.070
8082,9.070
8083,9.086
8084,9.076
8085,9.092
8086,9.086
8087,9.086
8088,9.086
8089,9.086
8090,9.103
8091,9.076
8092,9.092
8093,9.092
8094,9.114
8095,9.114
8096,9.124
8097,9.124
8098,9.114
8099,9.114
8100,9.114
8101,9.114
8102,9.086
8103,9.124
8104,9.124
8105,9.124
8106,9.146
8107,9.146
8108,9.173
8109,9.184
8110,9.184
8111,9.184
8112,9.200
8113,9.195
8114,9.222
8115,9.211
8116,9.227
8117,9.238
8118,9.195
8119,9.238
8120,9.227
8121,9.222
8122,9.195
8123,9.200
8124,9.200
8125,9.195
8126,9.211
8127,9.200
8128,9.222
8129,9.222
8130,9.195
8131,9.173
8132,9.157
8133,9.162
8134,9.162
8135,9.162
8136,9.173
8137,9.162
8138,9.173
8139,9.173
8140,9.173
8141,9.184
8142,9.195
8143,9.184
8144,9.135
8145,9.038
8146,9.124
8147,9.222
8148,9.416
8149,9.719
8150,10.103
8151,10.481
8152,10.676
8153,10.686
8154,10.692
8155,10.665
8156,10.605
8157,10.508
8158,10.157
8159,9.443
8160,8.676
8161,8.573
8162,8.914
8163,9.070
8164,9.103
8165,9.076
8166,9.103
8167,9.146
8168,9.222
8169,9.259
8170,9.270
8171,9.259
8172,9.281
8173,9.281
8174,9.292
8175,9.308
8176,9.324
8177,9.373
8178,9.346
8179,9.357
8180,9.357
8181,9.357
8182,9.373
8183,9.384
8184,9.395
8185,9.416
8186,9.416
8187,9.427
8188,9.443
8189,9.443
8190,9.459
8191,9.470
8192,9.470
8193,9.492
8194,9.508
8195,9.519
8196,9.530
8197,9.541
8198,9.551
8199,9.573
8200,9.573
8201,9.584
8202,9.595
8203,9.627
8204,9.686
8205,9.686
8206,9.697
8207,9.730
8208,9.751
8209,9.789
8210,9.827
8211,9.876
8212,9.914
8213,9.935
8214,9.989
8215,10.027
8216,10.076
8217,10.114
8218,10.124
8219,10.162
8220,10.222
8221,10.227
8222,10.259
8223,10.281
8224,10.308
8225,10.308
8226,10.319
8227,10.319
8228,10.308
8229,10.308
8230,10.297
8231,10.259
8232,10.249
8233,10.200
8234,10.162
8235,10.114
8236,10.070
8237,10.000
8238,9.935
8239,9.865
8240,9.800
8241,9.730
8242,9.686
8243,9.627
8244,9.568
8245,9.508
8246,9.449
8247,9.449
8248,9.395
8249,9.373
8250,9.346
8251,9.319
8252,9.324
8253,9.297
8254,9.281
8255,9.270
8256,9.270
8257,9.259
8258,9.259
8259,9.270
8260,9.249
8261,9.259
8262,9.270
8263,9.222
8264,9.270
8265,9.259
8266,9.270
8267,9.270
8268,9.259
8269,9.281
8270,9.259
8271,9.270
8272,9.270
8273,9.259
8274,9.270
8275,9.259
8276,9.259
8277,9.259
8278,9.249
8279,9.200
8280,9.227
8281,9.227
8282,9.222
8283,9.222
8284,9.222
8285,9.195
8286,9.184
8287,9.195
8288,9.195
8289,9.173
8290,9.157
8291,9.146
8292,9.146
8293,9.146
8294,9.135
8295,9.114
8296,9.103
8297,9.103
8298,9.103
8299,9.086
8300,9.092
8301,9.086
8302,9.076
8303,9.059
8304,9.070
8305,9.070
8306,9.038
8307,9.059
8308,9.070
8309,9.070
8310,9.049
8311,9.038
8312,9.038
8313,9.049
8314,9.049
8315,9.049
8316,9.070
8317,9.027
8318,9.049
8319,9.038
8320,9.038
8321,9.038
8322,9.000
8323,9.027
8324,9.027
8325,9.027
8326,9.027
8327,9.027
8328,9.027
8329,9.011
8330,9.027
8331,9.027
8332,9.038
8333,9.027
8334,9.027
8335,9.027
8336,9.027
8337,9.027
8338,8.989
8339,9.027
8340,9.027
8341,9.027
8342,9.027
8343,9.038
8344,9.011
8345,9.027
8346,9.027
8347,9.038
8348,9.022
8349,9.027
8350,9.027
8351,9.027
8352,9.038
8353,9.027
8354,9.027
8355,9.038
8356,9.027
8357,9.027
8358,9.027
8359,9.038
8360,9.038
8361,9.027
8362,9.027
8363,9.011
8364,9.022
8365,8.968
8366,9.022
8367,9.011
8368,9.027
8369,9.027
8370,9.022
8371,9.011
8372,9.011
8373,9.011
8374,9.011
8375,9.027
8376,9.022
8377,9.027
8378,9.027
8379,9.022
8380,9.022
8381,8.978
8382,9.027
8383,9.027
8384,9.022
8385,9.027
8386,9.027
8387,9.011
8388,9.027
8389,9.027
8390,9.027
8391,9.027
8392,9.027
8393,9.027
8394,9.027
8395,9.027
8396,9.027
8397,9.011
8398,9.011
8399,9.027
8400,9.027
8401,9.027
8402,9.027
8403,9.027
8404,9.027
8405,9.027
8406,9.027
8407,9.027
8408,9.038
8409,9.027
8410,9.038
8411,9.027
8412,9.038
8413,9.049
8414,9.049
8415,9.038
8416,9.038
8417,9.038
8418,9.038
8419,9.049
8420,9.038
8421,9.038
8422,9.070
8423,9.059
8424,9.022
8425,9.049
8426,9.070
8427,9.049
8428,9.070
8429,9.070
8430,9.070
8431,9.059
8432,9.070
8433,9.076
8434,9.076
8435,9.070
8436,9.076
8437,9.076
8438,9.076
8439,9.086
8440,9.049
8441,9.076
8442,9.086
8443,9.086
8444,9.076
8445,9.086
8446,9.086
8447,9.086
8448,9.103
8449,9.103
8450,9.114
8451,9.114
8452,9.135
8453,9.157
8454,9.162
8455,9.162
8456,9.173
8457,9.200
8458,9.222
8459,9.200
8460,9.184
8461,9.184
8462,9.162
8463,9.157
8464,9.173
8465,9.184
8466,9.184
8467,9.162
8468,9.184
8469,9.184
8470,9.157
8471,9.146
8472,9.124
8473,9.135
8474,9.135
8475,9.124
8476,9.114
8477,9.146
8478,9.114
8479,9.146
8480,9.135
8481,9.157
8482,9.173
8483,9.114
8484,9.135
8485,9.092
8486,9.076
8487,9.124
8488,9.249
8489,9.459
8490,9.778
8491,10.157
8492,10.519
8493,10.643
8494,10.654
8495,10.665
8496,10.643
8497,10.573
8498,10.443
8499,10.011
8500,9.222
8501,8.584
8502,8.632
8503,8.886
8504,9.038
8505,9.070
8506,9.038
8507,9.059
8508,9.086
8509,9.184
8510,9.227
8511,9.249
8512,9.238
8513,9.259
8514,9.281
8515,9.281
8516,9.292
8517,9.308
8518,9.319
8519,9.324
8520,9.324
8521,9.335
8522,9.346
8523,9.357
8524,9.357
8525,9.373
8526,9.416
8527,9.384
8528,9.405
8529,9.395
8530,9.405
8531,9.427
8532,9.427
8533,9.427
8534,9.432
8535,9.432
8536,9.449
8537,9.449
8538,9.470
8539,9.497
8540,9.497
8541,9.497
8542,9.568
8543,9.551
8544,9.568
8545,9.584
8546,9.616
8547,9.643
8548,9.676
8549,9.719
8550,9.751
8551,9.789
8552,9.827
8553,9.843
8554,9.914
8555,9.951
8556,9.989
8557,10.027
8558,10.086
8559,10.103
8560,10.146
8561,10.173
8562,10.195
8563,10.200
8564,10.227
8565,10.238
8566,10.259
8567,10.259
8568,10.270
8569,10.249
8570,10.238
8571,10.238
8572,10.211
8573,10.200
8574,10.157
8575,10.114
8576,10.059
8577,10.011
8578,9.962
8579,9.886
8580,9.822
8581,9.751
8582,9.686
8583,9.654
8584,9.605
8585,9.568
8586,9.492
8587,9.449
8588,9.427
8589,9.373
8590,9.357
8591,9.324
8592,9.308
8593,9.292
8594,9.281
8595,9.259
8596,9.270
8597,9.259
8598,9.259
8599,9.259
8600,9.249
8601,9.222
8602,9.238
8603,9.238
8604,9.249
8605,9.238
8606,9.238
8607,9.238
8608,9.249
8609,9.249
8610,9.238
8611,9.259
8612,9.238
8613,9.238
8614,9.227
8615,9.227
8616,9.222
8617,9.222
8618,9.222
8619,9.200
8620,9.195
8621,9.195
8622,9.184
8623,9.184
8624,9.173
8625,9.157
8626,9.157
8627,9.157
8628,9.157
8629,9.135
8630,9.124
8631,9.114
8632,9.135
8633,9.076
8634,9.076
8635,9.070
8636,9.070
8637,9.070
8638,9.070
8639,9.059
8640,9.070
8641,9.059
8642,9.070
8643,9.049
8644,9.022
8645,9.049
8646,9.049
8647,9.038
8648,9.038
8649,9.027
8650,9.027
8651,9.027
8652,9.027
8653,9.027
8654,9.027
8655,9.022
8656,9.022
8657,9.027
8658,9.011
8659,9.011
8660,8.978
8661,9.011
8662,9.022
8663,9.011
8664,9.000
8665,9.011
8666,9.011
8667,9.011
8668,9.011
8669,9.011
8670,9.027
8671,9.011
8672,9.000
8673,9.000
8674,8.989
8675,9.011
8676,9.000
8677,9.027
8678,9.022
8679,9.011
8680,9.011
8681,9.011
8682,8.989
8683,9.000
8684,9.011
8685,9.011
8686,9.011
8687,8.968
8688,9.022
8689,9.000
8690,9.011
8691,9.000
8692,9.000
8693,9.011
8694,9.011
8695,9.011
8696,9.022
8697,9.027
8698,8.989
8699,9.011
8700,9.011
8701,9.011
8702,9.022
8703,8.968
8704,9.022
8705,9.011
8706,9.000
8707,8.989
8708,9.011
8709,9.011
8710,9.011
8711,9.011
8712,9.000
8713,9.011
8714,9.000
8715,9.000
8716,9.000
8717,9.000
8718,9.011
8719,8.968
8720,9.011
8721,9.000
8722,9.022
8723,9.011
8724,9.011
8725,9.022
8726,9.011
8727,9.011
8728,9.022
8729,9.027
8730,9.027
8731,9.027
8732,9.022
8733,9.027
8734,9.027
8735,9.011
8736,9.027
8737,9.022
8738,9.027
8739,9.038
8740,9.027
8741,9.027
8742,9.027
8743,9.027
8744,9.038
8745,9.038
8746,9.000
8747,9.038
8748,9.038
8749,9.049
8750,9.049
8751,9.038
8752,9.038
8753,9.038
8754,9.070
8755,9.049
8756,9.049
8757,9.049
8758,9.070
8759,9.070
8760,9.070
8761,9.059
8762,9.027
8763,9.059
8764,9.070
8765,9.086
8766,9.076
8767,9.086
8768,9.076
8769,9.076
8770,9.086
8771,9.076
8772,9.092
8773,9.086
8774,9.092
8775,9.086
8776,9.086
8777,9.086
8778,9.076
8779,9.086
8780,9.092
8781,9.114
8782,9.135
8783,9.162
8784,9.157
8785,9.157
8786,9.162
8787,9.162
8788,9.162
8789,9.162
8790,9.162
8791,9.162
8792,9.184
8793,9.222
8794,9.227
8795,9.222
8796,9.173
8797,9.157
8798,9.157
8799,9.157
8800,9.157
8801,9.162
8802,9.184
8803,9.184
8804,9.173
8805,9.103
8806,9.124
8807,9.135
8808,9.135
8809,9.114
8810,9.124
8811,9.124
8812,9.135
8813,9.124
8814,9.146
8815,9.146
8816,9.157
8817,9.135
8818,9.114
8819,9.103
8820,9.173
8821,9.324
8822,9.492
8823,9.778
8824,10.114
8825,10.459
8826,10.627
8827,10.627
8828,10.627
8829,10.605
8830,10.551
8831,10.416
8832,9.968
8833,9.222
8834,8.551
8835,8.481
8836,8.692
8837,8.886
8838,9.000
8839,8.978
8840,9.000
8841,9.027
8842,9.124
8843,9.195
8844,9.222
8845,9.227
8846,9.238
8847,9.270
8848,9.297
8849,9.270
8850,9.292
8851,9.297
8852,9.297
8853,9.319
8854,9.319
8855,9.324
8856,9.346
8857,9.346
8858,9.357
8859,9.373
8860,9.384
8861,9.384
8862,9.395
8863,9.395
8864,9.443
8865,9.427
8866,9.443
8867,9.449
8868,9.432
8869,9.449
8870,9.459
8871,9.470
8872,9.492
8873,9.497
8874,9.508
8875,9.551
8876,9.573
8877,9.584
8878,9.605
8879,9.627
8880,9.697
8881,9.697
8882,9.741
8883,9.778
8884,9.822
8885,9.843
8886,9.914
8887,9.951
8888,9.989
8889,10.027
8890,10.070
8891,10.086
8892,10.157
8893,10.173
8894,10.200
8895,10.238
8896,10.259
8897,10.270
8898,10.281
8899,10.308
8900,10.308
8901,10.297
8902,10.297
8903,10.281
8904,10.270
8905,10.238
8906,10.211
8907,10.211
8908,10.157
8909,10.103
8910,10.059
8911,10.000
8912,9.951
8913,9.876
8914,9.822
8915,9.751
8916,9.708
8917,9.643
8918,9.595
8919,9.568
8920,9.541
8921,9.492
8922,9.449
8923,9.459
8924,9.405
8925,9.373
8926,9.357
8927,9.346
8928,9.346
8929,9.346
8930,9.335
8931,9.319
8932,9.319
8933,9.308
8934,9.319
8935,9.324
8936,9.319
8937,9.308
8938,9.308
8939,9.357
8940,9.324
8941,9.319
8942,9.319
8943,9.319
8944,9.319
8945,9.319
8946,9.319
8947,9.319
8948,9.324
8949,9.319
8950,9.297
8951,9.292
8952,9.292
8953,9.292
8954,9.292
8955,9.270
8956,9.270
8957,9.281
8958,9.259
8959,9.249
8960,9.238
8961,9.238
8962,9.211
8963,9.200
8964,9.222
8965,9.200
8966,9.162
8967,9.184
8968,9.184
8969,9.157
8970,9.162
8971,9.146
8972,9.157
8973,9.146
8974,9.146
8975,9.146
8976,9.146
8977,9.135
8978,9.124
8979,9.114
8980,9.114
8981,9.124
8982,9.076
8983,9.103
8984,9.114
8985,9.114
8986,9.103
8987,9.103
8988,9.103
8989,9.103
8990,9.086
8991,9.086
8992,9.114
8993,9.103
8994,9.086
8995,9.076
8996,9.086
8997,9.086
8998,9.059
8999,9.076
9000,9.076
9001,9.076
9002,9.086
9003,9.076
9004,9.070
9005,9.059
9006,9.076
9007,9.059
9008,9.076
9009,9.076
9010,9.070
9011,9.076
9012,9.076
9013,9.076
9014,9.070
9015,9.059
9016,9.076
9017,9.076
9018,9.076
9019,9.076
9020,9.070
9021,9.086
9022,9.070
9023,9.059
9024,9.076
9025,9.027
9026,9.070
9027,9.076
9028,9.076
9029,9.076
9030,9.070
9031,9.086
9032,9.076
9033,9.070
9034,9.070
9035,9.076
9036,9.076
9037,9.076
9038,9.076
9039,9.076
9040,9.076
9041,9.038
9042,9.070
9043,9.059
9044,9.070
9045,9.070
9046,9.070
9047,9.059
9048,9.076
9049,9.070
9050,9.070
9051,9.076
9052,9.076
9053,9.076
9054,9.070
9055,9.086
9056,9.076
9057,9.070
9058,9.076
9059,9.076
9060,9.076
9061,9.086
9062,9.092
9063,9.076
9064,9.076
9065,9.086
9066,9.086
9067,9.086
9068,9.070
9069,9.086
9070,9.086
9071,9.086
9072,9.092
9073,9.076
9074,9.092
9075,9.103
9076,9.092
9077,9.086
9078,9.103
9079,9.086
9080,9.086
9081,9.103
9082,9.103
9083,9.114
9084,9.070
9085,9.124
9086,9.114
9087,9.103
9088,9.114
9089,9.114
9090,9.114
9091,9.124
9092,9.114
9093,9.124
9094,9.135
9095,9.124
9096,9.124
9097,9.114
9098,9.124
9099,9.124
9100,9.114
9101,9.146
9102,9.135
9103,9.146
9104,9.135
9105,9.157
9106,9.157
9107,9.157
9108,9.157
9109,9.157
9110,9.162
9111,9.162
9112,9.162
9113,9.162
9114,9.162
9115,9.162
9116,9.157
9117,9.162
9118,9.184
9119,9.173
9120,9.184
9121,9.173
9122,9.184
9123,9.184
9124,9.184
9125,9.184
9126,9.184
9127,9.146
9128,9.200
9129,9.200
9130,9.200
9131,9.238
9132,9.222
9133,9.238
9134,9.259
9135,9.281
9136,9.292
9137,9.259
9138,9.270
9139,9.259
9140,9.249
9141,9.227
9142,9.227
9143,9.227
9144,9.270
9145,9.259
9146,9.238
9147,9.238
9148,9.238
9149,9.227
9150,9.222
9151,9.195
9152,9.211
9153,9.195
9154,9.200
9155,9.195
9156,9.195
9157,9.200
9158,9.222
9159,9.200
9160,9.222
9161,9.211
9162,9.222
9163,9.200
9164,9.157
9165,9.114
9166,9.184
9167,9.308
9168,9.541
9169,9.892
9170,10.259
9171,10.584
9172,10.686
9173,10.692
9174,10.692
9175,10.654
9176,10.605
9177,10.492
9178,10.011
9179,9.222
9180,8.605
9181,8.697
9182,8.978
9183,9.114
9184,9.135
9185,9.114
9186,9.070
9187,9.162
9188,9.238
9189,9.281
9190,9.297
9191,9.292
9192,9.308
9193,9.319
9194,9.335
9195,9.346
9196,9.346
9197,9.373
9198,9.373
9199,9.384
9200,9.395
9201,9.373
9202,9.443
9203,9.427
9204,9.427
9205,9.432
9206,9.427
9207,9.443
9208,9.449
9209,9.470
9210,9.470
9211,9.492
9212,9.470
9213,9.492
9214,9.519
9215,9.508
9216,9.541
9217,9.530
9218,9.562
9219,9.568
9220,9.584
9221,9.595
9222,9.616
9223,9.627
9224,9.654
9225,9.686
9226,9.686
9227,9.719
9228,9.751
9229,9.832
9230,9.827
9231,9.865
9232,9.886
9233,9.924
9234,9.978
9235,10.011
9236,10.070
9237,10.086
9238,10.124
9239,10.162
9240,10.200
9241,10.227
9242,10.259
9243,10.281
9244,10.308
9245,10.335
9246,10.324
9247,10.335
9248,10.335
9249,10.319
9250,10.308
9251,10.281
9252,10.270
9253,10.227
9254,10.200
9255,10.162
9256,10.103
9257,10.070
9258,10.027
9259,9.968
9260,9.876
9261,9.865
9262,9.778
9263,9.719
9264,9.654
9265,9.605
9266,9.568
9267,9.530
9268,9.492
9269,9.449
9270,9.427
9271,9.395
9272,9.384
9273,9.373
9274,9.346
9275,9.335
9276,9.319
9277,9.335
9278,9.319
9279,9.319
9280,9.324
9281,9.319
9282,9.319
9283,9.319
9284,9.324
9285,9.319
9286,9.319
9287,9.319
9288,9.373
9289,9.335
9290,9.324
9291,9.335
9292,9.324
9293,9.335
9294,9.335
9295,9.335
9296,9.335
9297,9.324
9298,9.308
9299,9.308
9300,9.308
9301,9.292
9302,9.281
9303,9.281
9304,9.308
9305,9.259
9306,9.270
9307,9.259
9308,9.249
9309,9.238
9310,9.211
9311,9.200
9312,9.200
9313,9.184
9314,9.184
9315,9.162
9316,9.173
9317,9.157
9318,9.146
9319,9.157
9320,9.135
9321,9.146
9322,9.146
9323,9.124
9324,9.135
9325,9.124
9326,9.114
9327,9.103
9328,9.103
9329,9.103
9330,9.114
9331,9.103
9332,9.092
9333,9.086
9334,9.086
9335,9.103
9336,9.086
9337,9.086
9338,9.076
9339,9.076
9340,9.086
9341,9.076
9342,9.070
9343,9.076
9344,9.076
9345,9.070
9346,9.076
9347,9.027
9348,9.070
9349,9.086
9350,9.076
9351,9.076
9352,9.070
9353,9.070
9354,9.059
9355,9.059
9356,9.070
9357,9.076
9358,9.070
9359,9.070
9360,9.070
9361,9.070
9362,9.070
9363,9.027
9364,9.070
9365,9.070
9366,9.070
9367,9.059
9368,9.059
9369,9.070
9370,9.049
9371,9.049
9372,9.059
9373,9.070
9374,9.049
9375,9.038
9376,9.049
9377,9.070
9378,9.049
9379,9.027
9380,9.059
9381,9.049
9382,9.049
9383,9.038
9384,9.049
9385,9.038
9386,9.038
9387,9.038
9388,9.038
9389,9.038
9390,9.038
9391,9.049
9392,9.038
9393,9.027
9394,9.038
9395,9.027
9396,9.038
9397,9.027
9398,9.038
9399,9.027
9400,9.038
9401,9.027
9402,9.038
9403,9.038
9404,9.038
9405,9.038
9406,8.989
9407,9.049
9408,9.038
9409,9.038
9410,9.049
9411,9.049
9412,9.059
9413,9.049
9414,9.049
9415,9.049
9416,9.049
9417,9.038
9418,9.038
9419,9.059
9420,9.049
9421,9.049
9422,9.027
9423,9.049
9424,9.070
9425,9.049
9426,9.038
9427,9.049
9428,9.059
9429,9.070
9430,9.049
9431,9.070
9432,9.070
9433,9.070
9434,9.070
9435,9.070
9436,9.070
9437,9.070
9438,9.059
9439,9.076
9440,9.076
9441,9.076
9442,9.076
9443,9.086
9444,9.086
9445,9.076
9446,9.086
9447,9.086
9448,9.092
9449,9.070
9450,9.103
9451,9.092
9452,9.086
9453,9.103
9454,9.086
9455,9.103
9456,9.103
9457,9.103
9458,9.103
9459,9.124
9460,9.114
9461,9.124
9462,9.114
9463,9.124
9464,9.135
9465,9.086
9466,9.124
9467,9.124
9468,9.135
9469,9.146
9470,9.162
9471,9.157
9472,9.157
9473,9.157
9474,9.184
9475,9.200
9476,9.195
9477,9.200
9478,9.222
9479,9.211
9480,9.227
9481,9.238
9482,9.259
9483,9.238
9484,9.238
9485,9.238
9486,9.259
9487,9.249
9488,9.227
9489,9.227
9490,9.222
9491,9.222
9492,9.222
9493,9.222
9494,9.211
9495,9.200
9496,9.184
9497,9.162
9498,9.184
9499,9.184
9500,9.162
9501,9.162
9502,9.162
9503,9.173
9504,9.195
9505,9.184
9506,9.195
9507,9.200
9508,9.162
9509,9.195
9510,9.135
9511,9.114
9512,9.162
9513,9.324
9514,9.562
9515,9.876
9516,10.249
9517,10.551
9518,10.654
9519,10.643
9520,10.676
9521,10.643
9522,10.573
9523,10.427
9524,10.000
9525,9.227
9526,8.632
9527,8.654
9528,8.914
9529,9.070
9530,9.086
9531,9.070
9532,9.076
9533,9.124
9534,9.200
9535,9.238
9536,9.270
9537,9.281
9538,9.270
9539,9.292
9540,9.308
9541,9.319
9542,9.324
9543,9.335
9544,9.346
9545,9.335
9546,9.357
9547,9.357
9548,9.373
9549,9.362
9550,9.373
9551,9.384
9552,9.395
9553,9.395
9554,9.395
9555,9.395
9556,9.427
9557,9.432
9558,9.443
9559,9.432
9560,9.449
9561,9.449
9562,9.470
9563,9.492
9564,9.492
9565,9.492
9566,9.497
9567,9.568
9568,9.562
9569,9.568
9570,9.573
9571,9.616
9572,9.632
9573,9.654
9574,9.686
9575,9.719
9576,9.751
9577,9.768
9578,9.827
9579,9.865
9580,9.914
9581,9.946
9582,9.968
9583,10.049
9584,10.059
9585,10.076
9586,10.135
9587,10.162
9588,10.162
9589,10.200
9590,10.222
9591,10.227
9592,10.238
9593,10.227
9594,10.227
9595,10.249
9596,10.227
9597,10.200
9598,10.200
9599,10.162
9600,10.146
9601,10.103
9602,10.070
9603,10.011
9604,9.946
9605,9.886
9606,9.843
9607,9.778
9608,9.719
9609,9.654
9610,9.654
9611,9.573
9612,9.530
9613,9.481
9614,9.449
9615,9.427
9616,9.405
9617,9.373
9618,9.335
9619,9.335
9620,9.319
9621,9.319
9622,9.308
9623,9.308
9624,9.292
9625,9.297
9626,9.335
9627,9.297
9628,9.292
9629,9.292
9630,9.292
9631,9.292
9632,9.308
9633,9.308
9634,9.308
9635,9.308
9636,9.292
9637,9.292
9638,9.292
9639,9.281
9640,9.292
9641,9.292
9642,9.308
9643,9.281
9644,9.270
9645,9.270
9646,9.259
9647,9.259
9648,9.238
9649,9.227
9650,9.238
9651,9.227
9652,9.222
9653,9.211
9654,9.200
9655,9.195
9656,9.195
9657,9.173
9658,9.162
9659,9.162
9660,9.146
9661,9.146
9662,9.146
9663,9.146
9664,9.135
9665,9.124
9666,9.114
9667,9.114
9668,9.103
9669,9.070
9670,9.103
9671,9.103
9672,9.103
9673,9.086
9674,9.076
9675,9.076
9676,9.070
9677,9.070
9678,9.059
9679,9.076
9680,9.070
9681,9.070
9682,9.070
9683,9.049
9684,9.070
9685,9.027
9686,9.070
9687,9.049
9688,9.070
9689,9.070
9690,9.070
9691,9.049
9692,9.049
9693,9.038
9694,9.049
9695,9.049
9696,9.059
9697,9.049
9698,9.049
9699,9.049
9700,9.038
9701,9.027
9702,9.049
9703,9.038
9704,9.038
9705,9.027
9706,9.038
9707,9.027
9708,9.038
9709,9.049
9710,9.038
9711,9.049
9712,9.038
9713,9.038
9714,9.027
9715,9.049
9716,9.038
9717,9.027
9718,9.038
9719,9.038
9720,9.027
9721,9.038
9722,9.038
9723,9.038
9724,9.038
9725,9.038
9726,9.027
9727,9.027
9728,8.989
9729,9.027
9730,9.027
9731,9.027
9732,9.027
9733,9.022
9734,9.027
9735,9.027
9736,9.038
9737,9.027
9738,9.027
9739,9.027
9740,9.038
9741,9.027
9742,9.011
9743,9.011
9744,8.989
9745,9.027
9746,9.027
9747,9.022
9748,9.027
9749,9.027
9750,9.011
9751,9.011
9752,9.022
9753,9.027
9754,9.049
9755,9.049
9756,9.027
9757,9.027
9758,9.027
9759,9.027
9760,9.022
9761,9.027
9762,9.038
9763,9.038
9764,9.049
9765,9.038
9766,9.038
9767,9.049
9768,9.049
9769,9.070
9770,9.038
9771,9.049
9772,9.070
9773,9.059
9774,9.070
9775,9.059
9776,9.070
9777,9.070
9778,9.070
9779,9.076
9780,9.076
9781,9.076
9782,9.070
9783,9.086
9784,9.086
9785,9.076
9786,9.086
9787,9.049
9788,9.086
9789,9.086
9790,9.103
9791,9.086
9792,9.086
9793,9.086
9794,9.103
9795,9.092
9796,9.092
9797,9.092
9798,9.114
9799,9.114
9800,9.114
9801,9.103
9802,9.114
9803,9.076
9804,9.114
9805,9.103
9806,9.114
9807,9.114
9808,9.114
9809,9.124
9810,9.124
9811,9.124
9812,9.146
9813,9.157
9814,9.157
9815,9.157
9816,9.173
9817,9.195
9818,9.200
9819,9.200
9820,9.227
9821,9.259
9822,9.249
9823,9.227
9824,9.222
9825,9.200
9826,9.195
9827,9.195
9828,9.227
9829,9.227
9830,9.173
9831,9.222
9832,9.211
9833,9.222
9834,9.222
9835,9.162
9836,9.157
9837,9.157
9838,9.162
9839,9.157
9840,9.162
9841,9.146
9842,9.173
9843,9.162
9844,9.184
9845,9.195
9846,9.157
9847,9.184
9848,9.184
9849,9.157
9850,9.124
9851,9.184
9852,9.292
9853,9.492
9854,9.778
9855,10.092
9856,10.449
9857,10.605
9858,10.665
9859,10.654
9860,10.627
9861,10.584
9862,10.497
9863,10.162
9864,9.449
9865,8.692
9866,8.492
9867,8.676
9868,8.886
9869,9.000
9870,9.027
9871,9.011
9872,9.059
9873,9.114
9874,9.195
9875,9.238
9876,9.270
9877,9.281
9878,9.281
9879,9.292
9880,9.308
9881,9.308
9882,9.335
9883,9.346
9884,9.357
9885,9.346
9886,9.357
9887,9.357
9888,9.357
9889,9.427
9890,9.395
9891,9.395
9892,9.405
9893,9.416
9894,9.432
9895,9.432
9896,9.432
9897,9.443
9898,9.449
9899,9.443
9900,9.459
9901,9.459
9902,9.492
9903,9.497
9904,9.519
9905,9.562
9906,9.551
9907,9.568
9908,9.573
9909,9.616
9910,9.643
9911,9.665
9912,9.692
9913,9.719
9914,9.762
9915,9.789
9916,9.832
9917,9.892
9918,9.924
9919,9.968
9920,10.000
9921,10.038
9922,10.086
9923,10.124
9924,10.157
9925,10.184
9926,10.200
9927,10.238
9928,10.259
9929,10.270
9930,10.281
9931,10.308
9932,10.308
9933,10.297
9934,10.297
9935,10.292
9936,10.270
9937,10.270
9938,10.249
9939,10.200
9940,10.173
9941,10.124
9942,10.070
9943,10.038
9944,9.989
9945,9.935
9946,9.876
9947,9.811
9948,9.778
9949,9.692
9950,9.632
9951,9.584
9952,9.541
9953,9.497
9954,9.470
9955,9.443
9956,9.427
9957,9.395
9958,9.362
9959,9.357
9960,9.346
9961,9.335
9962,9.335
9963,9.324
9964,9.373
9965,9.335
9966,9.335
9967,9.324
9968,9.319
9969,9.308
9970,9.319
9971,9.319
9972,9.319
9973,9.319
9974,9.319
9975,9.324
9976,9.319
9977,9.319
9978,9.319
9979,9.308
9980,9.319
9981,9.319
9982,9.297
9983,9.308
9984,9.292
9985,9.281
9986,9.281
9987,9.281
9988,9.270
9989,9.281
9990,9.259
9991,9.211
9992,9.249
9993,9.227
9994,9.227
9995,9.222
9996,9.200
9997,9.200
9998,9.195
9999,9.195
10000,9.184
10001,9.184
10002,9.157
10003,9.162
10004,9.157
10005,9.146
10006,9.157
10007,9.103
10008,9.146
10009,9.135
10010,9.135
10011,9.124
10012,9.114
10013,9.114
10014,9.103
10015,9.114
10016,9.103
10017,9.114
10018,9.103
10019,9.092
10020,9.092
10021,9.092
10022,9.103
10023,9.070
10024,9.086
10025,9.086
10026,9.086
10027,9.086
10028,9.092
10029,9.086
10030,9.076
10031,9.086
10032,9.086
10033,9.086
10034,9.086
10035,9.086
10036,9.092
10037,9.086
10038,9.086
10039,9.076
10040,9.086
10041,9.070
10042,9.086
10043,9.086
10044,9.070
10045,9.086
10046,9.076
10047,9.076
10048,9.076
10049,9.076
10050,9.038
10051,9.086
10052,9.076
10053,9.076
10054,9.076
10055,9.070
10056,9.076
10057,9.076
10058,9.076
10059,9.076
10060,9.076
10061,9.076
10062,9.070
10063,9.086
10064,9.076
10065,9.070
10066,9.049
10067,9.086
10068,9.076
10069,9.076
10070,9.086
10071,9.086
10072,9.086
10073,9.086
10074,9.076
10075,9.086
10076,9.092
10077,9.076
10078,9.070
10079,9.086
10080,9.076
10081,9.076
10082,9.070
10083,9.076
10084,9.086
10085,9.086
10086,9.076
10087,9.086
10088,9.076
10089,9.076
10090,9.070
10091,9.086
10092,9.076
10093,9.086
10094,9.076
10095,9.086
10096,9.076
10097,9.076
10098,9.070
10099,9.076
10100,9.076
10101,9.076
10102,9.086
10103,9.086
10104,9.086
10105,9.076
10106,9.076
10107,9.076
10108,9.076
10109,9.049
10110,9.086
10111,9.086
10112,9.086
10113,9.076
10114,9.086
10115,9.092
10116,9.092
10117,9.086
10118,9.092
10119,9.114
10120,9.103
10121,9.103
10122,9.103
10123,9.103
10124,9.114
10125,9.076
10126,9.124
10127,9.103
10128,9.103
10129,9.103
10130,9.103
10131,9.103
10132,9.114
10133,9.114
10134,9.114
10135,9.124
10136,9.114
10137,9.114
10138,9.114
10139,9.124
10140,9.135
10141,9.124
10142,9.124
10143,9.124
10144,9.124
10145,9.135
10146,9.146
10147,9.146
10148,9.146
10149,9.146
10150,9.146
10151,9.146
10152,9.146
10153,9.146
10154,9.157
10155,9.146
10156,9.157
10157,9.162
10158,9.184
10159,9.200
10160,9.195
10161,9.222
10162,9.222
10163,9.222
10164,9.227
10165,9.238
10166,9.259
10167,9.270
10168,9.211
10169,9.222
10170,9.249
10171,9.259
10172,9.227
10173,9.211
10174,9.238
10175,9.227
10176,9.227
10177,9.222
10178,9.227
10179,9.222
10180,9.222
10181,9.195
10182,9.184
10183,9.195
10184,9.157
10185,9.184
10186,9.184
10187,9.184
10188,9.195
10189,9.184
10190,9.195
10191,9.195
10192,9.195
10193,9.184
10194,9.173
10195,9.114
10196,9.092
10197,9.162
10198,9.335
10199,9.616
10200,9.989
10201,10.346
10202,10.643
10203,10.692
10204,10.708
10205,10.692
10206,10.665
10207,10.584
10208,10.405
10209,9.827
10210,9.022
10211,8.497
10212,8.741
10213,8.978
10214,9.086
10215,9.092
10216,9.070
10217,9.092
10218,9.146
10219,9.227
10220,9.270
10221,9.281
10222,9.281
10223,9.297
10224,9.319
10225,9.308
10226,9.319
10227,9.373
10228,9.346
10229,9.357
10230,9.362
10231,9.373
10232,9.373
10233,9.384
10234,9.395
10235,9.395
10236,9.395
10237,9.395
10238,9.427
10239,9.432
10240,9.443
10241,9.449
10242,9.449
10243,9.492
10244,9.481
10245,9.481
10246,9.492
10247,9.497
10248,9.497
10249,9.530
10250,9.530
10251,9.551
10252,9.568
10253,9.584
10254,9.605
10255,9.627
10256,9.654
10257,9.686
10258,9.708
10259,9.741
10260,9.768
10261,9.789
10262,9.822
10263,9.876
10264,9.903
10265,9.951
10266,9.989
10267,10.027
10268,10.059
10269,10.092
10270,10.173
10271,10.162
10272,10.211
10273,10.222
10274,10.238
10275,10.270
10276,10.281
10277,10.297
10278,10.319
10279,10.319
10280,10.297
10281,10.297
10282,10.308
10283,10.281
10284,10.259
10285,10.227
10286,10.211
10287,10.146
10288,10.092
10289,10.027
10290,9.951
10291,9.886
10292,9.827
10293,9.762
10294,9.697
10295,9.643
10296,9.605
10297,9.551
10298,9.497
10299,9.449
10300,9.427
10301,9.395
10302,9.395
10303,9.357
10304,9.335
10305,9.308
10306,9.281
10307,9.281
10308,9.292
10309,9.270
10310,9.270
10311,9.270
10312,9.270
10313,9.281
10314,9.281
10315,9.292
10316,9.292
10317,9.292
10318,9.281
10319,9.281
10320,9.281
10321,9.270
10322,9.281
10323,9.270
10324,9.292
10325,9.281
10326,9.270
10327,9.281
10328,9.270
10329,9.222
10330,9.270
10331,9.249
10332,9.259
10333,9.238
10334,9.227
10335,9.227
10336,9.222
10337,9.222
10338,9.200
10339,9.195
10340,9.173
10341,9.173
10342,9.184
10343,9.162
10344,9.162
10345,9.103
10346,9.135
10347,9.124
10348,9.124
10349,9.114
10350,9.114
10351,9.103
10352,9.114
10353,9.092
10354,9.086
10355,9.086
10356,9.092
10357,9.076
10358,9.076
10359,9.076
10360,9.070
10361,9.049
10362,9.070
10363,9.070
10364,9.070
10365,9.070
10366,9.049
10367,9.049
10368,9.070
10369,9.049
10370,9.038
10371,9.059
10372,9.011
10373,9.038
10374,9.027
10375,9.027
10376,9.038
10377,9.027
10378,9.038
10379,9.038
10380,9.038
10381,9.038
10382,9.038
10383,9.038
10384,9.027
10385,9.027
10386,9.027
10387,9.027
10388,9.000
10389,9.027
10390,9.027
10391,9.027
10392,9.038
10393,9.027
10394,9.027
10395,9.011
10396,9.022
10397,9.038
10398,9.027
10399,9.027
10400,9.011
10401,9.027
10402,9.022
10403,9.011
10404,8.989
10405,9.011
10406,9.022
10407,9.022
10408,9.022
10409,9.027
10410,9.011
10411,9.027
10412,9.022
10413,9.011
10414,9.027
10415,9.011
10416,9.011
10417,9.011
10418,9.011
10419,9.011
10420,9.000
10421,9.011
10422,9.011
10423,9.011
10424,9.000
10425,9.011
10426,9.011
10427,9.022
10428,9.022
10429,9.000
10430,9.022
10431,8.968
10432,9.000
10433,9.000
10434,9.000
10435,9.000
10436,9.011
10437,9.011
10438,9.011
10439,9.000
10440,9.000
10441,9.011
10442,9.011
10443,9.000
10444,9.000
10445,9.011
10446,9.011
10447,8.968
10448,9.022
10449,9.000
10450,9.022
10451,9.011
10452,9.027
10453,9.022
10454,9.011
10455,9.011
10456,9.022
10457,9.022
10458,9.011
10459,9.027
10460,9.022
10461,9.011
10462,9.027
10463,9.011
10464,9.027
10465,9.022
10466,9.038
10467,9.038
10468,9.038
10469,9.038
10470,9.027
10471,9.049
10472,9.038
10473,9.070
10474,9.038
10475,9.038
10476,9.059
10477,9.049
10478,9.049
10479,9.038
10480,9.059
10481,9.070
10482,9.070
10483,9.070
10484,9.059
10485,9.049
10486,9.049
10487,9.070
10488,9.059
10489,9.070
10490,9.022
10491,9.070
10492,9.070
10493,9.059
10494,9.076
10495,9.070
10496,9.076
10497,9.076
10498,9.076
10499,9.076
10500,9.092
10501,9.086
10502,9.092
10503,9.086
10504,9.103
10505,9.103
10506,9.076
10507,9.114
10508,9.146
10509,9.146
10510,9.157
10511,9.162
10512,9.195
10513,9.195
10514,9.195
10515,9.195
10516,9.173
10517,9.162
10518,9.146
10519,9.146
10520,9.173
10521,9.184
10522,9.162
10523,9.146
10524,9.162
10525,9.157
10526,9.157
10527,9.157
10528,9.103
10529,9.114
10530,9.135
10531,9.114
10532,9.114
10533,9.103
10534,9.124
10535,9.124
10536,9.157
10537,9.146
10538,9.146
10539,9.146
10540,9.146
10541,9.103
10542,9.059
10543,9.086
10544,9.195
10545,9.416
10546,9.730
10547,10.103
10548,10.459
10549,10.665
10550,10.686
10551,10.665
10552,10.654
10553,10.605
10554,10.508
10555,10.195
10556,9.497
10557,8.730
10558,8.519
10559,8.751
10560,8.962
10561,9.038
10562,9.027
10563,9.011
10564,9.070
10565,9.103
10566,9.211
10567,9.238
10568,9.227
10569,9.227
10570,9.259
10571,9.270
10572,9.270
10573,9.281
10574,9.297
10575,9.292
10576,9.319
10577,9.319
10578,9.319
10579,9.335
10580,9.335
10581,9.373
10582,9.373
10583,9.362
10584,9.384
10585,9.384
10586,9.395
10587,9.416
10588,9.416
10589,9.432
10590,9.427
10591,9.432
10592,9.481
10593,9.449
10594,9.459
10595,9.470
10596,9.492
10597,9.492
10598,9.508
10599,9.508
10600,9.541
10601,9.551
10602,9.551
10603,9.595
10604,9.616
10605,9.654
10606,9.686
10607,9.697
10608,9.768
10609,9.768
10610,9.822
10611,9.865
10612,9.903
10613,9.935
10614,9.978
10615,10.022
10616,10.049
10617,10.076
10618,10.124
10619,10.146
10620,10.173
10621,10.200
10622,10.222
10623,10.211
10624,10.259
10625,10.238
10626,10.238
10627,10.227
10628,10.211
10629,10.195
10630,10.184
10631,10.157
10632,10.114
10633,10.076
10634,10.038
10635,9.968
10636,9.946
10637,9.876
10638,9.822
10639,9.762
10640,9.697
10641,9.643
10642,9.605
10643,9.562
10644,9.492
10645,9.459
10646,9.443
10647,9.395
10648,9.373
10649,9.335
10650,9.308
10651,9.346
10652,9.292
10653,9.281
10654,9.270
10655,9.270
10656,9.238
10657,9.259
10658,9.249
10659,9.259
10660,9.259
10661,9.259
10662,9.259
10663,9.238
10664,9.249
10665,9.259
10666,9.259
10667,9.222
10668,9.249
10669,9.238
10670,9.249
10671,9.249
10672,9.238
10673,9.227
10674,9.249
10675,9.227
10676,9.227
10677,9.211
10678,9.211
10679,9.200
10680,9.195
10681,9.184
10682,9.162
10683,9.157
10684,9.162
10685,9.157
10686,9.146
10687,9.124
10688,9.135
10689,9.114
10690,9.103
10691,9.103
10692,9.076
10693,9.092
10694,9.076
10695,9.076
10696,9.070
10697,9.070
10698,9.070
10699,9.038
10700,9.049
10701,9.049
10702,9.070
10703,9.038
10704,9.070
10705,9.027
10706,9.027
10707,9.027
10708,9.027
10709,9.027
10710,8.978
10711,9.011
10712,9.011
10713,9.011
10714,9.011
10715,9.000
10716,9.022
10717,9.000
10718,9.011
10719,9.011
10720,9.011
10721,9.000
10722,9.011
10723,9.000
10724,9.000
10725,8.978
10726,8.962
10727,8.989
10728,8.989
10729,8.989
10730,8.989
10731,9.000
10732,8.989
10733,9.011
10734,9.000
10735,9.000
10736,9.000
10737,8.978
10738,8.989
10739,9.000
10740,9.000
10741,8.989
10742,8.989
10743,8.989
10744,9.000
10745,8.978
10746,8.989
10747,9.000
10748,9.000
10749,9.000
10750,8.989
10751,8.989
10752,9.000
10753,8.962
10754,9.000
10755,9.000
10756,9.000
10757,9.011
10758,8.989
10759,9.011
10760,9.011
10761,9.000
10762,9.000
10763,9.011
10764,8.989
10765,8.989
10766,8.989
10767,9.000
10768,9.011
10769,8.951
10770,8.989
10771,9.000
10772,9.000
10773,9.011
10774,9.000
10775,9.000
10776,9.000
10777,8.989
10778,8.989
10779,9.011
10780,9.000
10781,8.989
10782,9.000
10783,9.000
10784,9.022
10785,8.968
10786,9.000
10787,9.000
10788,9.011
10789,9.000
10790,9.011
10791,9.000
10792,9.000
10793,9.011
10794,9.011
10795,9.027
10796,9.022
10797,9.000
10798,9.011
10799,9.011
10800,9.011
10801,9.000
10802,9.011
10803,9.027
10804,9.011
10805,9.011
10806,9.011
10807,9.011
10808,9.011
10809,9.011
10810,9.022
10811,9.027
10812,8.978
10813,9.049
10814,9.027
10815,9.027
10816,9.038
10817,9.027
10818,9.027
10819,9.038
10820,9.049
10821,9.038
10822,9.059
10823,9.049
10824,9.049
10825,9.049
10826,9.038
10827,9.070
10828,9.022
10829,9.049
10830,9.070
10831,9.049
10832,9.070
10833,9.070
10834,9.070
10835,9.059
10836,9.076
