'sample interval','ECG1','ECG2'
'0.004 sec','mV','mV'
0,0.135,0.155
1,0.155,0.160
2,0.155,0.165
3,0.170,0.175
4,0.185,0.185
5,0.200,0.200
6,0.215,0.215
7,0.230,0.215
8,0.245,0.215
9,0.260,0.230
10,0.280,0.245
11,0.305,0.255
12,0.330,0.270
13,0.350,0.290
14,0.375,0.305
15,0.405,0.305
16,0.425,0.305
17,0.430,0.315
18,0.435,0.325
19,0.445,0.335
20,0.455,0.345
21,0.470,0.350
22,0.475,0.355
23,0.480,0.350
24,0.485,0.345
25,0.490,0.340
26,0.490,0.335
27,0.480,0.330
28,0.465,0.320
29,0.445,0.310
30,0.410,0.280
31,0.375,0.245
32,0.325,0.210
33,0.270,0.175
34,0.210,0.135
35,0.145,0.095
36,0.105,0.055
37,0.060,0.010
38,0.010,-0.020
39,-0.040,-0.050
40,-0.055,-0.075
41,-0.070,-0.100
42,-0.095,-0.115
43,-0.115,-0.125
44,-0.120,-0.130
45,-0.125,-0.135
46,-0.120,-0.145
47,-0.115,-0.155
48,-0.125,-0.155
49,-0.135,-0.155
50,-0.145,-0.160
51,-0.155,-0.165
52,-0.160,-0.165
53,-0.165,-0.165
54,-0.175,-0.170
55,-0.185,-0.175
56,-0.185,-0.175
57,-0.185,-0.175
58,-0.175,-0.170
59,-0.165,-0.165
60,-0.165,-0.165
61,-0.165,-0.165
62,-0.155,-0.165
63,-0.150,-0.165
64,-0.160,-0.160
65,-0.165,-0.155
66,-0.165,-0.155
67,-0.165,-0.155
68,-0.165,-0.155
69,-0.165,-0.155
70,-0.160,-0.155
71,-0.155,-0.155
72,-0.155,-0.155
73,-0.155,-0.155
74,-0.150,-0.150
75,-0.145,-0.145
76,-0.150,-0.140
77,-0.155,-0.135
78,-0.155,-0.140
79,-0.155,-0.145
80,-0.150,-0.150
81,-0.145,-0.155
82,-0.145,-0.150
83,-0.145,-0.145
84,-0.135,-0.145
85,-0.140,-0.150
86,-0.145,-0.155
87,-0.145,-0.160
88,-0.145,-0.165
89,-0.145,-0.160
90,-0.145,-0.155
91,-0.145,-0.150
92,-0.145,-0.145
93,-0.155,-0.150
94,-0.165,-0.155
95,-0.160,-0.160
96,-0.155,-0.165
97,-0.155,-0.165
98,-0.155,-0.165
99,-0.155,-0.160
100,-0.155,-0.155
101,-0.155,-0.165
102,-0.155,-0.175
103,-0.160,-0.175
104,-0.165,-0.175
105,-0.160,-0.180
106,-0.155,-0.180
107,-0.155,-0.170
108,-0.155,-0.170
109,-0.160,-0.180
110,-0.165,-0.185
111,-0.160,-0.185
112,-0.155,-0.185
113,-0.155,-0.185
114,-0.155,-0.180
115,-0.155,-0.170
116,-0.155,-0.165
117,-0.150,-0.170
118,-0.150,-0.175
119,-0.160,-0.180
120,-0.160,-0.185
121,-0.150,-0.185
122,-0.145,-0.180
123,-0.150,-0.170
124,-0.155,-0.165
125,-0.155,-0.165
126,-0.150,-0.180
127,-0.145,-0.185
128,-0.150,-0.180
129,-0.155,-0.175
130,-0.150,-0.175
131,-0.145,-0.175
132,-0.145,-0.180
133,-0.145,-0.185
134,-0.150,-0.185
135,-0.155,-0.185
136,-0.155,-0.185
137,-0.155,-0.185
138,-0.150,-0.175
139,-0.145,-0.165
140,-0.150,-0.170
141,-0.155,-0.175
142,-0.145,-0.180
143,-0.135,-0.185
144,-0.140,-0.185
145,-0.145,-0.185
146,-0.145,-0.180
147,-0.145,-0.175
148,-0.145,-0.180
149,-0.145,-0.185
150,-0.145,-0.185
151,-0.145,-0.185
152,-0.145,-0.185
153,-0.145,-0.180
154,-0.140,-0.170
155,-0.135,-0.165
156,-0.140,-0.170
157,-0.140,-0.175
158,-0.130,-0.180
159,-0.130,-0.185
160,-0.140,-0.180
161,-0.145,-0.175
162,-0.140,-0.175
163,-0.135,-0.175
164,-0.135,-0.175
165,-0.135,-0.175
166,-0.140,-0.175
167,-0.140,-0.180
168,-0.135,-0.185
169,-0.135,-0.175
170,-0.135,-0.165
171,-0.135,-0.170
172,-0.135,-0.175
173,-0.130,-0.175
174,-0.125,-0.175
175,-0.125,-0.175
176,-0.125,-0.175
177,-0.125,-0.170
178,-0.125,-0.165
179,-0.125,-0.170
180,-0.125,-0.175
181,-0.125,-0.175
182,-0.125,-0.175
183,-0.115,-0.170
184,-0.105,-0.160
185,-0.100,-0.145
186,-0.090,-0.135
187,-0.075,-0.145
188,-0.055,-0.155
189,-0.035,-0.150
190,-0.020,-0.135
191,-0.010,-0.110
192,-0.010,-0.095
193,-0.025,-0.090
194,-0.020,-0.090
195,0.005,-0.100
196,0.015,-0.105
197,0.015,-0.105
198,-0.005,-0.105
199,-0.035,-0.105
200,-0.065,-0.125
201,-0.090,-0.150
202,-0.095,-0.160
203,-0.100,-0.170
204,-0.095,-0.175
205,-0.080,-0.170
206,-0.095,-0.160
207,-0.120,-0.150
208,-0.140,-0.150
209,-0.165,-0.165
210,-0.170,-0.180
211,-0.175,-0.195
212,-0.170,-0.200
213,-0.165,-0.205
214,-0.160,-0.195
215,-0.155,-0.185
216,-0.140,-0.180
217,-0.125,-0.175
218,-0.115,-0.175
219,-0.105,-0.175
220,-0.115,-0.175
221,-0.120,-0.175
222,-0.090,-0.165
223,-0.045,-0.130
224,0.015,-0.055
225,0.130,0.045
226,0.330,0.170
227,0.545,0.305
228,0.780,0.455
229,1.030,0.425
230,1.300,0.195
231,1.225,-0.075
232,0.845,-0.375
233,0.265,-0.590
234,-0.460,-0.745
235,-0.825,-0.885
236,-0.975,-1.020
237,-0.915,-0.945
238,-0.755,-0.760
239,-0.605,-0.620
240,-0.460,-0.495
241,-0.335,-0.395
242,-0.210,-0.305
243,-0.145,-0.195
244,-0.095,-0.085
245,-0.080,-0.035
246,-0.070,0.000
247,-0.065,0.005
248,-0.065,0.005
249,-0.060,0.005
250,-0.065,0.005
251,-0.050,-0.005
252,-0.055,-0.005
253,-0.045,0.000
254,-0.035,0.005
255,-0.030,0.010
256,-0.025,0.015
257,-0.025,0.015
258,-0.025,0.015
259,-0.025,0.020
260,-0.025,0.025
261,-0.015,0.030
262,-0.005,0.035
263,0.000,0.040
264,0.005,0.045
265,0.010,0.045
266,0.015,0.045
267,0.015,0.050
268,0.015,0.055
269,0.015,0.055
270,0.015,0.055
271,0.030,0.070
272,0.035,0.075
273,0.035,0.075
274,0.040,0.075
275,0.050,0.075
276,0.055,0.075
277,0.055,0.080
278,0.065,0.095
279,0.080,0.110
280,0.085,0.115
281,0.090,0.120
282,0.105,0.125
283,0.120,0.130
284,0.125,0.140
285,0.125,0.150
286,0.135,0.160
287,0.150,0.170
288,0.165,0.175
289,0.180,0.180
290,0.190,0.190
291,0.200,0.200
292,0.225,0.215
293,0.245,0.225
294,0.265,0.245
295,0.285,0.265
296,0.300,0.270
297,0.315,0.275
298,0.340,0.285
299,0.365,0.295
300,0.385,0.310
301,0.405,0.325
302,0.420,0.335
303,0.440,0.345
304,0.460,0.345
305,0.475,0.345
306,0.470,0.345
307,0.465,0.345
308,0.475,0.350
309,0.485,0.355
310,0.480,0.350
311,0.470,0.340
312,0.450,0.325
313,0.425,0.300
314,0.400,0.270
315,0.360,0.240
316,0.315,0.200
317,0.265,0.165
318,0.215,0.120
319,0.160,0.080
320,0.105,0.040
321,0.055,0.000
322,0.010,-0.040
323,-0.025,-0.075
324,-0.055,-0.105
325,-0.075,-0.125
326,-0.090,-0.140
327,-0.110,-0.155
328,-0.130,-0.170
329,-0.135,-0.180
330,-0.140,-0.190
331,-0.150,-0.195
332,-0.160,-0.200
333,-0.165,-0.205
334,-0.155,-0.205
335,-0.165,-0.210
336,-0.175,-0.215
337,-0.180,-0.215
338,-0.185,-0.215
339,-0.185,-0.220
340,-0.185,-0.225
341,-0.185,-0.215
342,-0.185,-0.205
343,-0.190,-0.210
344,-0.195,-0.215
345,-0.190,-0.215
346,-0.185,-0.215
347,-0.185,-0.215
348,-0.185,-0.215
349,-0.180,-0.210
350,-0.175,-0.205
351,-0.175,-0.200
352,-0.175,-0.195
353,-0.175,-0.200
354,-0.175,-0.205
355,-0.170,-0.200
356,-0.165,-0.190
357,-0.165,-0.180
358,-0.165,-0.175
359,-0.170,-0.180
360,-0.175,-0.185
361,-0.170,-0.185
362,-0.165,-0.185
363,-0.165,-0.185
364,-0.165,-0.185
365,-0.165,-0.180
366,-0.165,-0.175
367,-0.165,-0.175
368,-0.165,-0.175
369,-0.165,-0.180
370,-0.165,-0.185
371,-0.160,-0.180
372,-0.155,-0.175
373,-0.160,-0.175
374,-0.165,-0.175
375,-0.165,-0.175
376,-0.155,-0.185
377,-0.155,-0.185
378,-0.160,-0.185
379,-0.165,-0.185
380,-0.165,-0.185
381,-0.165,-0.185
382,-0.160,-0.185
383,-0.155,-0.185
384,-0.165,-0.190
385,-0.175,-0.195
386,-0.170,-0.190
387,-0.165,-0.185
388,-0.160,-0.185
389,-0.155,-0.185
390,-0.155,-0.185
391,-0.155,-0.185
392,-0.160,-0.185
393,-0.165,-0.185
394,-0.165,-0.190
395,-0.165,-0.195
396,-0.160,-0.180
397,-0.155,-0.175
398,-0.160,-0.180
399,-0.165,-0.185
400,-0.165,-0.185
401,-0.165,-0.185
402,-0.160,-0.185
403,-0.155,-0.185
404,-0.155,-0.180
405,-0.155,-0.175
406,-0.155,-0.175
407,-0.155,-0.175
408,-0.150,-0.180
409,-0.145,-0.185
410,-0.150,-0.180
411,-0.155,-0.175
412,-0.155,-0.175
413,-0.155,-0.175
414,-0.160,-0.180
415,-0.160,-0.185
416,-0.150,-0.185
417,-0.150,-0.180
418,-0.155,-0.175
419,-0.150,-0.170
420,-0.145,-0.165
421,-0.140,-0.170
422,-0.135,-0.175
423,-0.140,-0.175
424,-0.145,-0.175
425,-0.145,-0.175
426,-0.145,-0.175
427,-0.145,-0.170
428,-0.145,-0.165
429,-0.140,-0.170
430,-0.135,-0.175
431,-0.145,-0.175
432,-0.155,-0.175
433,-0.145,-0.175
434,-0.135,-0.175
435,-0.135,-0.170
436,-0.135,-0.165
437,-0.135,-0.165
438,-0.135,-0.165
439,-0.135,-0.165
440,-0.135,-0.165
441,-0.135,-0.165
442,-0.135,-0.165
443,-0.135,-0.165
444,-0.135,-0.165
445,-0.135,-0.170
446,-0.135,-0.175
447,-0.135,-0.170
448,-0.135,-0.165
449,-0.135,-0.165
450,-0.135,-0.165
451,-0.130,-0.160
452,-0.125,-0.155
453,-0.125,-0.160
454,-0.125,-0.165
455,-0.125,-0.165
456,-0.125,-0.165
457,-0.130,-0.165
458,-0.135,-0.165
459,-0.125,-0.155
460,-0.125,-0.155
461,-0.125,-0.155
462,-0.125,-0.160
463,-0.125,-0.165
464,-0.125,-0.165
465,-0.125,-0.165
466,-0.120,-0.155
467,-0.115,-0.145
468,-0.120,-0.150
469,-0.125,-0.155
470,-0.115,-0.155
471,-0.105,-0.155
472,-0.110,-0.155
473,-0.115,-0.155
474,-0.115,-0.150
475,-0.115,-0.145
476,-0.110,-0.150
477,-0.110,-0.155
478,-0.125,-0.155
479,-0.130,-0.155
480,-0.115,-0.155
481,-0.105,-0.155
482,-0.110,-0.150
483,-0.115,-0.145
484,-0.115,-0.145
485,-0.115,-0.145
486,-0.115,-0.145
487,-0.115,-0.145
488,-0.115,-0.145
489,-0.115,-0.145
490,-0.115,-0.145
491,-0.115,-0.145
492,-0.110,-0.150
493,-0.110,-0.155
494,-0.120,-0.155
495,-0.120,-0.155
496,-0.110,-0.155
497,-0.105,-0.150
498,-0.105,-0.140
499,-0.105,-0.135
500,-0.105,-0.135
501,-0.105,-0.150
502,-0.105,-0.155
503,-0.100,-0.150
504,-0.095,-0.145
505,-0.095,-0.140
506,-0.095,-0.135
507,-0.095,-0.135
508,-0.095,-0.135
509,-0.100,-0.140
510,-0.105,-0.145
511,-0.095,-0.135
512,-0.085,-0.125
513,-0.075,-0.115
514,-0.065,-0.105
515,-0.070,-0.110
516,-0.065,-0.115
517,-0.035,-0.115
518,-0.010,-0.105
519,0.010,-0.075
520,0.025,-0.055
521,0.020,-0.055
522,0.020,-0.055
523,0.030,-0.060
524,0.035,-0.065
525,0.040,-0.070
526,0.030,-0.075
527,0.000,-0.075
528,-0.030,-0.085
529,-0.055,-0.100
530,-0.070,-0.115
531,-0.080,-0.135
532,-0.075,-0.145
533,-0.060,-0.140
534,-0.070,-0.130
535,-0.090,-0.120
536,-0.110,-0.115
537,-0.130,-0.120
538,-0.135,-0.140
539,-0.140,-0.160
540,-0.145,-0.165
541,-0.150,-0.170
542,-0.150,-0.170
543,-0.145,-0.165
544,-0.130,-0.155
545,-0.115,-0.145
546,-0.105,-0.145
547,-0.095,-0.145
548,-0.105,-0.145
549,-0.110,-0.145
550,-0.075,-0.140
551,-0.035,-0.120
552,0.020,-0.030
553,0.115,0.070
554,0.310,0.205
555,0.515,0.340
556,0.740,0.455
557,0.975,0.430
558,1.235,0.135
559,1.250,-0.155
560,0.885,-0.430
561,0.365,-0.645
562,-0.340,-0.785
563,-0.770,-0.910
564,-0.925,-1.030
565,-0.910,-0.980
566,-0.750,-0.785
567,-0.595,-0.630
568,-0.445,-0.495
569,-0.310,-0.380
570,-0.185,-0.270
571,-0.120,-0.165
572,-0.080,-0.065
573,-0.060,-0.020
574,-0.050,0.005
575,-0.045,0.015
576,-0.050,0.015
577,-0.055,0.015
578,-0.050,0.015
579,-0.045,0.015
580,-0.045,0.010
581,-0.045,0.010
582,-0.040,0.020
583,-0.035,0.025
584,-0.025,0.035
585,-0.025,0.035
586,-0.025,0.035
587,-0.015,0.035
588,-0.005,0.035
589,-0.005,0.040
590,-0.005,0.045
591,0.000,0.055
592,0.005,0.065
593,0.010,0.065
594,0.015,0.065
595,0.020,0.065
596,0.025,0.065
597,0.025,0.065
598,0.025,0.070
599,0.030,0.085
600,0.035,0.095
601,0.045,0.095
602,0.055,0.095
603,0.055,0.090
604,0.055,0.090
605,0.060,0.105
606,0.070,0.120
607,0.080,0.130
608,0.085,0.135
609,0.090,0.135
610,0.100,0.135
611,0.115,0.140
612,0.130,0.150
613,0.140,0.160
614,0.145,0.175
615,0.150,0.190
616,0.170,0.195
617,0.190,0.200
618,0.195,0.210
619,0.200,0.220
620,0.225,0.230
621,0.250,0.240
622,0.265,0.260
623,0.280,0.280
624,0.295,0.285
625,0.285,0.285
626,0.345,0.305
627,0.375,0.315
628,0.385,0.330
629,0.395,0.345
630,0.415,0.355
631,0.435,0.365
632,0.445,0.370
633,0.455,0.375
634,0.460,0.375
635,0.465,0.375
636,0.475,0.375
637,0.485,0.375
638,0.485,0.375
639,0.480,0.370
640,0.455,0.345
641,0.425,0.315
642,0.395,0.280
643,0.355,0.240
644,0.305,0.200
645,0.255,0.155
646,0.210,0.110
647,0.160,0.065
648,0.100,0.020
649,0.055,-0.025
650,0.015,-0.060
651,-0.020,-0.090
652,-0.050,-0.115
653,-0.075,-0.130
654,-0.090,-0.140
655,-0.105,-0.155
656,-0.125,-0.175
657,-0.135,-0.190
658,-0.135,-0.200
659,-0.140,-0.205
660,-0.150,-0.205
661,-0.155,-0.205
662,-0.160,-0.205
663,-0.165,-0.205
664,-0.165,-0.210
665,-0.175,-0.215
666,-0.190,-0.215
667,-0.190,-0.215
668,-0.185,-0.215
669,-0.185,-0.215
670,-0.185,-0.215
671,-0.185,-0.215
672,-0.185,-0.215
673,-0.180,-0.220
674,-0.175,-0.225
675,-0.175,-0.220
676,-0.175,-0.215
677,-0.180,-0.210
678,-0.185,-0.205
679,-0.180,-0.205
680,-0.175,-0.205
681,-0.175,-0.210
682,-0.175,-0.215
683,-0.170,-0.205
684,-0.165,-0.195
685,-0.170,-0.190
686,-0.175,-0.185
687,-0.170,-0.190
688,-0.165,-0.195
689,-0.160,-0.195
690,-0.160,-0.195
691,-0.170,-0.190
692,-0.175,-0.185
693,-0.170,-0.185
694,-0.165,-0.185
695,-0.165,-0.185
696,-0.165,-0.185
697,-0.170,-0.190
698,-0.175,-0.195
699,-0.170,-0.190
700,-0.165,-0.185
701,-0.170,-0.185
702,-0.175,-0.185
703,-0.170,-0.185
704,-0.165,-0.185
705,-0.170,-0.190
706,-0.175,-0.195
707,-0.175,-0.195
708,-0.175,-0.195
709,-0.165,-0.195
710,-0.175,-0.195
711,-0.185,-0.195
712,-0.180,-0.200
713,-0.175,-0.205
714,-0.180,-0.200
715,-0.185,-0.195
716,-0.185,-0.195
717,-0.185,-0.195
718,-0.180,-0.200
719,-0.175,-0.205
720,-0.175,-0.205
721,-0.175,-0.205
722,-0.180,-0.200
723,-0.185,-0.195
724,-0.180,-0.200
725,-0.175,-0.205
726,-0.185,-0.200
727,-0.195,-0.195
728,-0.190,-0.205
729,-0.185,-0.215
730,-0.185,-0.200
731,-0.185,-0.195
732,-0.180,-0.195
733,-0.175,-0.195
734,-0.175,-0.195
735,-0.175,-0.195
736,-0.175,-0.195
737,-0.175,-0.195
738,-0.180,-0.190
739,-0.185,-0.185
740,-0.185,-0.185
741,-0.185,-0.185
742,-0.185,-0.190
743,-0.185,-0.195
744,-0.180,-0.195
745,-0.175,-0.195
746,-0.180,-0.195
747,-0.185,-0.195
748,-0.185,-0.190
749,-0.185,-0.185
750,-0.185,-0.185
751,-0.180,-0.185
752,-0.175,-0.185
753,-0.175,-0.185
754,-0.175,-0.185
755,-0.180,-0.180
756,-0.185,-0.175
757,-0.180,-0.180
758,-0.175,-0.185
759,-0.180,-0.185
760,-0.185,-0.185
761,-0.180,-0.185
762,-0.175,-0.185
763,-0.175,-0.180
764,-0.175,-0.175
765,-0.180,-0.175
766,-0.185,-0.175
767,-0.175,-0.175
768,-0.165,-0.175
769,-0.170,-0.175
770,-0.175,-0.175
771,-0.170,-0.170
772,-0.165,-0.165
773,-0.170,-0.170
774,-0.175,-0.175
775,-0.180,-0.175
776,-0.180,-0.175
777,-0.170,-0.175
778,-0.165,-0.175
779,-0.165,-0.170
780,-0.165,-0.165
781,-0.170,-0.165
782,-0.170,-0.170
783,-0.160,-0.180
784,-0.155,-0.185
785,-0.160,-0.180
786,-0.165,-0.170
787,-0.165,-0.160
788,-0.165,-0.160
789,-0.160,-0.170
790,-0.160,-0.175
791,-0.170,-0.175
792,-0.175,-0.175
793,-0.175,-0.175
794,-0.165,-0.165
795,-0.155,-0.155
796,-0.160,-0.160
797,-0.165,-0.165
798,-0.160,-0.165
799,-0.155,-0.165
800,-0.160,-0.160
801,-0.165,-0.155
802,-0.160,-0.150
803,-0.155,-0.145
804,-0.155,-0.150
805,-0.155,-0.155
806,-0.165,-0.155
807,-0.175,-0.155
808,-0.165,-0.155
809,-0.155,-0.155
810,-0.145,-0.150
811,-0.135,-0.145
812,-0.135,-0.140
813,-0.130,-0.135
814,-0.120,-0.135
815,-0.105,-0.135
816,-0.085,-0.135
817,-0.070,-0.120
818,-0.060,-0.090
819,-0.055,-0.075
820,-0.055,-0.070
821,-0.045,-0.075
822,-0.030,-0.090
823,-0.015,-0.095
824,0.000,-0.090
825,-0.015,-0.085
826,-0.040,-0.080
827,-0.075,-0.090
828,-0.115,-0.110
829,-0.125,-0.135
830,-0.130,-0.160
831,-0.130,-0.155
832,-0.120,-0.140
833,-0.125,-0.135
834,-0.145,-0.125
835,-0.165,-0.135
836,-0.185,-0.145
837,-0.195,-0.160
838,-0.205,-0.175
839,-0.200,-0.175
840,-0.195,-0.175
841,-0.185,-0.170
842,-0.175,-0.165
843,-0.175,-0.160
844,-0.175,-0.155
845,-0.160,-0.155
846,-0.145,-0.155
847,-0.145,-0.150
848,-0.145,-0.145
849,-0.140,-0.140
850,-0.115,-0.120
851,-0.065,-0.075
852,0.025,0.000
853,0.175,0.115
854,0.380,0.265
855,0.640,0.460
856,0.910,0.460
857,1.185,0.285
858,1.145,0.030
859,0.865,-0.275
860,0.340,-0.495
861,-0.325,-0.660
862,-0.675,-0.825
863,-0.875,-0.985
864,-0.910,-0.940
865,-0.865,-0.810
866,-0.750,-0.685
867,-0.605,-0.560
868,-0.490,-0.465
869,-0.385,-0.380
870,-0.280,-0.275
871,-0.175,-0.170
872,-0.145,-0.090
873,-0.120,-0.010
874,-0.115,0.000
875,-0.115,-0.005
876,-0.100,0.015
877,-0.095,0.015
878,-0.090,0.015
879,-0.085,0.015
880,-0.085,0.020
881,-0.085,0.025
882,-0.070,0.025
883,-0.055,0.025
884,-0.060,0.025
885,-0.065,0.025
886,-0.060,0.030
887,-0.055,0.035
888,-0.050,0.050
889,-0.045,0.065
890,-0.045,0.060
891,-0.045,0.055
892,-0.040,0.055
893,-0.035,0.055
894,-0.030,0.060
895,-0.025,0.065
896,-0.020,0.070
897,-0.015,0.075
898,-0.015,0.080
899,-0.015,0.085
900,-0.010,0.085
901,0.000,0.085
902,0.010,0.090
903,0.020,0.100
904,0.030,0.110
905,0.035,0.115
906,0.035,0.115
907,0.045,0.115
908,0.060,0.120
909,0.065,0.125
910,0.065,0.130
911,0.075,0.140
912,0.090,0.150
913,0.100,0.160
914,0.110,0.170
915,0.115,0.175
916,0.120,0.175
917,0.145,0.190
918,0.165,0.205
919,0.185,0.220
920,0.205,0.235
921,0.230,0.245
922,0.255,0.255
923,0.275,0.270
924,0.295,0.285
925,0.310,0.290
926,0.325,0.295
927,0.345,0.310
928,0.365,0.325
929,0.375,0.330
930,0.385,0.335
931,0.395,0.335
932,0.410,0.335
933,0.425,0.340
934,0.435,0.345
935,0.440,0.350
936,0.445,0.355
937,0.440,0.350
938,0.430,0.340
939,0.420,0.325
940,0.400,0.305
941,0.360,0.280
942,0.315,0.250
943,0.260,0.220
944,0.205,0.175
945,0.155,0.125
946,0.100,0.080
947,0.050,0.040
948,0.010,0.005
949,-0.025,-0.025
950,-0.055,-0.045
951,-0.080,-0.060
952,-0.110,-0.080
953,-0.140,-0.100
954,-0.145,-0.120
955,-0.150,-0.140
956,-0.160,-0.145
957,-0.170,-0.145
958,-0.175,-0.145
959,-0.185,-0.155
960,-0.195,-0.160
961,-0.205,-0.165
962,-0.210,-0.175
963,-0.215,-0.185
964,-0.215,-0.180
965,-0.215,-0.175
966,-0.210,-0.170
967,-0.205,-0.165
968,-0.215,-0.170
969,-0.225,-0.175
970,-0.210,-0.180
971,-0.195,-0.185
972,-0.200,-0.180
973,-0.205,-0.175
974,-0.200,-0.170
975,-0.195,-0.165
976,-0.200,-0.165
977,-0.205,-0.165
978,-0.210,-0.170
979,-0.215,-0.175
980,-0.210,-0.170
981,-0.205,-0.160
982,-0.200,-0.150
983,-0.195,-0.145
984,-0.200,-0.150
985,-0.200,-0.155
986,-0.190,-0.155
987,-0.185,-0.155
988,-0.185,-0.150
989,-0.185,-0.145
990,-0.185,-0.145
991,-0.185,-0.145
992,-0.185,-0.145
993,-0.185,-0.145
994,-0.190,-0.150
995,-0.195,-0.155
996,-0.190,-0.155
997,-0.185,-0.150
998,-0.185,-0.140
999,-0.185,-0.135
1000,-0.185,-0.135
1001,-0.185,-0.155
1002,-0.175,-0.165
1003,-0.180,-0.160
1004,-0.185,-0.155
1005,-0.185,-0.150
1006,-0.185,-0.145
1007,-0.190,-0.150
1008,-0.195,-0.155
1009,-0.195,-0.160
1010,-0.195,-0.165
1011,-0.190,-0.165
1012,-0.185,-0.165
1013,-0.190,-0.160
1014,-0.195,-0.155
1015,-0.200,-0.155
1016,-0.200,-0.155
1017,-0.185,-0.160
1018,-0.175,-0.165
1019,-0.185,-0.160
1020,-0.195,-0.155
1021,-0.180,-0.155
1022,-0.180,-0.155
1023,-0.190,-0.160
1024,-0.195,-0.165
1025,-0.200,-0.165
1026,-0.205,-0.165
1027,-0.200,-0.165
1028,-0.190,-0.165
1029,-0.180,-0.160
1030,-0.175,-0.155
1031,-0.180,-0.155
1032,-0.185,-0.155
1033,-0.185,-0.155
1034,-0.185,-0.155
1035,-0.185,-0.155
1036,-0.185,-0.155
1037,-0.180,-0.150
1038,-0.175,-0.145
1039,-0.175,-0.150
1040,-0.175,-0.155
1041,-0.175,-0.160
1042,-0.175,-0.160
1043,-0.175,-0.155
1044,-0.180,-0.150
1045,-0.185,-0.145
1046,-0.185,-0.150
1047,-0.185,-0.155
1048,-0.180,-0.155
1049,-0.175,-0.155
1050,-0.170,-0.155
1051,-0.165,-0.155
1052,-0.170,-0.150
1053,-0.175,-0.145
1054,-0.170,-0.145
1055,-0.165,-0.145
1056,-0.170,-0.155
1057,-0.175,-0.165
1058,-0.170,-0.155
1059,-0.165,-0.145
1060,-0.165,-0.145
1061,-0.165,-0.145
1062,-0.165,-0.150
1063,-0.160,-0.155
1064,-0.150,-0.155
1065,-0.145,-0.155
1066,-0.145,-0.150
1067,-0.145,-0.145
1068,-0.150,-0.145
1069,-0.155,-0.145
1070,-0.150,-0.145
1071,-0.145,-0.145
1072,-0.145,-0.145
1073,-0.145,-0.145
1074,-0.145,-0.145
1075,-0.145,-0.145
1076,-0.140,-0.140
1077,-0.135,-0.135
1078,-0.130,-0.130
1079,-0.120,-0.125
1080,-0.110,-0.125
1081,-0.085,-0.125
1082,-0.060,-0.120
1083,-0.050,-0.095
1084,-0.035,-0.065
1085,-0.040,-0.065
1086,-0.045,-0.065
1087,-0.035,-0.075
1088,-0.025,-0.085
1089,-0.010,-0.075
1090,0.005,-0.065
1091,-0.010,-0.065
1092,-0.030,-0.065
1093,-0.065,-0.085
1094,-0.095,-0.110
1095,-0.100,-0.135
1096,-0.105,-0.155
1097,-0.105,-0.140
1098,-0.110,-0.125
1099,-0.125,-0.120
1100,-0.145,-0.115
1101,-0.175,-0.125
1102,-0.195,-0.140
1103,-0.185,-0.155
1104,-0.175,-0.165
1105,-0.175,-0.165
1106,-0.175,-0.160
1107,-0.175,-0.150
1108,-0.170,-0.145
1109,-0.155,-0.150
1110,-0.145,-0.155
1111,-0.145,-0.150
1112,-0.145,-0.145
1113,-0.140,-0.140
1114,-0.135,-0.135
1115,-0.135,-0.130
1116,-0.105,-0.125
1117,-0.065,-0.120
1118,0.015,-0.030
1119,0.100,0.075
1120,0.330,0.235
1121,0.580,0.395
1122,0.850,0.445
1123,1.120,0.480
1124,1.150,0.190
1125,1.135,0.485
1126,0.630,-0.315
1127,0.085,-0.510
1128,-0.375,-0.690
1129,-0.800,-0.855
1130,-0.865,-0.885
1131,-0.910,-0.895
1132,-0.800,-0.750
1133,-0.685,-0.610
1134,-0.560,-0.510
1135,-0.435,-0.420
1136,-0.310,-0.335
1137,-0.200,-0.245
1138,-0.145,-0.135
1139,-0.100,-0.045
1140,-0.085,-0.010
1141,-0.075,0.015
1142,-0.070,0.020
1143,-0.065,0.025
1144,-0.065,0.025
1145,-0.065,0.025
1146,-0.050,0.025
1147,-0.045,0.025
1148,-0.050,0.030
1149,-0.055,0.035
1150,-0.050,0.030
1151,-0.045,0.030
1152,-0.040,0.040
1153,-0.035,0.045
1154,-0.030,0.050
1155,-0.025,0.055
1156,-0.025,0.050
1157,-0.020,0.045
1158,-0.010,0.050
1159,-0.005,0.060
1160,-0.005,0.070
1161,0.000,0.075
1162,0.010,0.080
1163,0.015,0.085
1164,0.020,0.080
1165,0.025,0.075
1166,0.025,0.080
1167,0.035,0.085
1168,0.045,0.085
1169,0.045,0.100
1170,0.045,0.115
1171,0.055,0.110
1172,0.065,0.105
1173,0.075,0.110
1174,0.085,0.115
1175,0.090,0.125
1176,0.095,0.135
1177,0.105,0.145
1178,0.115,0.155
1179,0.125,0.160
1180,0.135,0.165
1181,0.145,0.165
1182,0.160,0.165
1183,0.175,0.175
1184,0.190,0.190
1185,0.205,0.210
1186,0.220,0.225
1187,0.235,0.230
1188,0.255,0.240
1189,0.280,0.250
1190,0.305,0.260
1191,0.330,0.275
1192,0.350,0.290
1193,0.365,0.305
1194,0.385,0.315
1195,0.405,0.320
1196,0.420,0.325
1197,0.430,0.325
1198,0.445,0.330
1199,0.460,0.340
1200,0.470,0.345
1201,0.480,0.350
1202,0.485,0.355
1203,0.480,0.350
1204,0.475,0.340
1205,0.475,0.330
1206,0.450,0.315
1207,0.420,0.300
1208,0.375,0.270
1209,0.325,0.235
1210,0.265,0.195
1211,0.205,0.155
1212,0.155,0.105
1213,0.100,0.055
1214,0.055,0.025
1215,0.015,-0.005
1216,-0.020,-0.030
1217,-0.050,-0.055
1218,-0.080,-0.075
1219,-0.105,-0.095
1220,-0.110,-0.110
1221,-0.115,-0.125
1222,-0.130,-0.130
1223,-0.145,-0.135
1224,-0.150,-0.140
1225,-0.155,-0.145
1226,-0.160,-0.155
1227,-0.165,-0.165
1228,-0.175,-0.170
1229,-0.185,-0.175
1230,-0.180,-0.175
1231,-0.175,-0.170
1232,-0.175,-0.160
1233,-0.175,-0.155
1234,-0.180,-0.160
1235,-0.185,-0.165
1236,-0.185,-0.170
1237,-0.185,-0.175
1238,-0.185,-0.170
1239,-0.185,-0.165
1240,-0.180,-0.160
1241,-0.175,-0.155
1242,-0.175,-0.155
1243,-0.175,-0.155
1244,-0.180,-0.160
1245,-0.180,-0.165
1246,-0.170,-0.160
1247,-0.165,-0.155
1248,-0.165,-0.150
1249,-0.165,-0.145
1250,-0.165,-0.145
1251,-0.170,-0.145
1252,-0.165,-0.145
1253,-0.160,-0.140
1254,-0.155,-0.135
1255,-0.160,-0.135
1256,-0.165,-0.135
1257,-0.160,-0.135
1258,-0.155,-0.135
1259,-0.160,-0.135
1260,-0.165,-0.135
1261,-0.160,-0.135
1262,-0.155,-0.135
1263,-0.155,-0.135
1264,-0.155,-0.135
1265,-0.155,-0.135
1266,-0.155,-0.135
1267,-0.155,-0.140
1268,-0.155,-0.145
1269,-0.155,-0.140
1270,-0.155,-0.135
1271,-0.155,-0.135
1272,-0.155,-0.135
1273,-0.160,-0.140
1274,-0.165,-0.145
1275,-0.160,-0.150
1276,-0.155,-0.155
1277,-0.155,-0.150
1278,-0.155,-0.145
1279,-0.150,-0.140
1280,-0.145,-0.135
1281,-0.150,-0.140
1282,-0.155,-0.145
1283,-0.150,-0.145
1284,-0.150,-0.145
1285,-0.160,-0.145
1286,-0.160,-0.145
1287,-0.150,-0.140
1288,-0.145,-0.135
1289,-0.150,-0.140
1290,-0.155,-0.145
1291,-0.155,-0.145
1292,-0.155,-0.150
1293,-0.155,-0.155
1294,-0.155,-0.145
1295,-0.155,-0.135
1296,-0.150,-0.140
1297,-0.145,-0.145
1298,-0.150,-0.145
1299,-0.155,-0.145
1300,-0.150,-0.145
1301,-0.145,-0.145
1302,-0.145,-0.145
1303,-0.145,-0.145
1304,-0.145,-0.145
1305,-0.145,-0.145
1306,-0.150,-0.150
1307,-0.155,-0.155
1308,-0.145,-0.150
1309,-0.135,-0.145
1310,-0.140,-0.140
1311,-0.145,-0.135
1312,-0.145,-0.140
1313,-0.145,-0.145
1314,-0.140,-0.145
1315,-0.135,-0.145
1316,-0.135,-0.140
1317,-0.135,-0.135
1318,-0.135,-0.135
1319,-0.135,-0.135
1320,-0.135,-0.140
1321,-0.135,-0.145
1322,-0.140,-0.145
1323,-0.145,-0.145
1324,-0.140,-0.140
1325,-0.135,-0.135
1326,-0.130,-0.130
1327,-0.125,-0.125
1328,-0.130,-0.130
1329,-0.135,-0.135
1330,-0.130,-0.135
1331,-0.125,-0.135
1332,-0.130,-0.135
1333,-0.130,-0.135
1334,-0.115,-0.125
1335,-0.120,-0.130
1336,-0.125,-0.135
1337,-0.130,-0.135
1338,-0.135,-0.135
1339,-0.125,-0.135
1340,-0.115,-0.135
1341,-0.115,-0.130
1342,-0.115,-0.125
1343,-0.120,-0.125
1344,-0.125,-0.125
1345,-0.115,-0.130
1346,-0.105,-0.135
1347,-0.110,-0.130
1348,-0.115,-0.125
1349,-0.110,-0.120
1350,-0.105,-0.115
1351,-0.105,-0.120
1352,-0.105,-0.125
1353,-0.110,-0.125
1354,-0.115,-0.125
1355,-0.115,-0.125
1356,-0.115,-0.125
1357,-0.115,-0.120
1358,-0.115,-0.115
1359,-0.115,-0.115
1360,-0.115,-0.115
1361,-0.110,-0.120
1362,-0.105,-0.125
1363,-0.105,-0.120
1364,-0.105,-0.115
1365,-0.100,-0.115
1366,-0.095,-0.115
1367,-0.095,-0.115
1368,-0.100,-0.115
1369,-0.110,-0.120
1370,-0.110,-0.125
1371,-0.100,-0.120
1372,-0.095,-0.115
1373,-0.095,-0.110
1374,-0.095,-0.105
1375,-0.095,-0.105
1376,-0.100,-0.110
1377,-0.095,-0.115
1378,-0.095,-0.110
1379,-0.095,-0.105
1380,-0.090,-0.105
1381,-0.085,-0.105
1382,-0.085,-0.110
1383,-0.085,-0.115
1384,-0.085,-0.115
1385,-0.085,-0.115
1386,-0.075,-0.105
1387,-0.065,-0.095
1388,-0.055,-0.090
1389,-0.040,-0.085
1390,-0.015,-0.085
1391,0.010,-0.080
1392,0.025,-0.050
1393,0.035,-0.035
1394,0.030,-0.030
1395,0.030,-0.025
1396,0.055,-0.030
1397,0.065,-0.035
1398,0.060,-0.035
1399,0.040,-0.040
1400,0.010,-0.050
1401,-0.020,-0.065
1402,-0.050,-0.085
1403,-0.065,-0.095
1404,-0.065,-0.100
1405,-0.065,-0.105
1406,-0.060,-0.105
1407,-0.060,-0.105
1408,-0.070,-0.100
1409,-0.095,-0.100
1410,-0.120,-0.110
1411,-0.125,-0.120
1412,-0.130,-0.130
1413,-0.135,-0.135
1414,-0.135,-0.140
1415,-0.135,-0.145
1416,-0.130,-0.145
1417,-0.115,-0.135
1418,-0.105,-0.125
1419,-0.100,-0.120
1420,-0.095,-0.115
1421,-0.095,-0.115
1422,-0.095,-0.115
1423,-0.080,-0.115
1424,-0.060,-0.110
1425,-0.015,-0.050
1426,0.065,0.020
1427,0.245,0.150
1428,0.445,0.290
1429,0.685,0.465
1430,0.940,0.515
1431,1.230,0.290
1432,1.300,0.025
1433,0.965,-0.320
1434,0.470,-0.580
1435,-0.270,-0.715
1436,-0.745,-0.850
1437,-0.905,-0.980
1438,-0.915,-0.955
1439,-0.770,-0.770
1440,-0.625,-0.615
1441,-0.470,-0.480
1442,-0.330,-0.365
1443,-0.205,-0.265
1444,-0.130,-0.155
1445,-0.080,-0.045
1446,-0.055,0.010
1447,-0.040,0.035
1448,-0.035,0.045
1449,-0.035,0.045
1450,-0.030,0.045
1451,-0.020,0.050
1452,-0.015,0.055
1453,-0.015,0.050
1454,-0.015,0.045
1455,-0.015,0.050
1456,-0.015,0.055
1457,-0.010,0.060
1458,-0.005,0.065
1459,-0.005,0.075
1460,0.000,0.070
1461,0.005,0.065
1462,0.005,0.070
1463,0.005,0.075
1464,0.010,0.080
1465,0.015,0.085
1466,0.020,0.095
1467,0.025,0.105
1468,0.025,0.095
1469,0.025,0.085
1470,0.040,0.095
1471,0.055,0.105
1472,0.050,0.110
1473,0.045,0.115
1474,0.055,0.125
1475,0.065,0.135
1476,0.070,0.135
1477,0.075,0.135
1478,0.075,0.135
1479,0.080,0.135
1480,0.095,0.150
1481,0.105,0.160
1482,0.110,0.170
1483,0.115,0.175
1484,0.120,0.175
1485,0.130,0.175
1486,0.145,0.180
1487,0.160,0.190
1488,0.170,0.200
1489,0.185,0.215
1490,0.200,0.240
1491,0.215,0.245
1492,0.230,0.250
1493,0.235,0.260
1494,0.240,0.270
1495,0.270,0.285
1496,0.300,0.300
1497,0.320,0.315
1498,0.340,0.330
1499,0.355,0.340
1500,0.345,0.335
1501,0.395,0.355
1502,0.415,0.355
1503,0.430,0.370
1504,0.445,0.385
1505,0.455,0.395
1506,0.465,0.405
1507,0.480,0.410
1508,0.495,0.415
1509,0.495,0.410
1510,0.495,0.405
1511,0.495,0.400
1512,0.495,0.395
1513,0.485,0.380
1514,0.465,0.355
1515,0.425,0.325
1516,0.385,0.290
1517,0.350,0.250
1518,0.305,0.205
1519,0.245,0.155
1520,0.195,0.110
1521,0.140,0.075
1522,0.095,0.035
1523,0.050,-0.005
1524,0.005,-0.040
1525,-0.030,-0.070
1526,-0.050,-0.090
1527,-0.065,-0.105
1528,-0.080,-0.115
1529,-0.090,-0.120
1530,-0.105,-0.130
1531,-0.125,-0.140
1532,-0.135,-0.150
1533,-0.130,-0.160
1534,-0.130,-0.165
1535,-0.140,-0.165
1536,-0.145,-0.165
1537,-0.140,-0.165
1538,-0.135,-0.165
1539,-0.140,-0.170
1540,-0.150,-0.175
1541,-0.160,-0.175
1542,-0.160,-0.175
1543,-0.155,-0.175
1544,-0.150,-0.170
1545,-0.145,-0.165
1546,-0.155,-0.170
1547,-0.165,-0.175
1548,-0.155,-0.175
1549,-0.145,-0.175
1550,-0.145,-0.170
1551,-0.145,-0.165
1552,-0.145,-0.160
1553,-0.145,-0.155
1554,-0.140,-0.155
1555,-0.135,-0.155
1556,-0.145,-0.160
1557,-0.155,-0.165
1558,-0.145,-0.160
1559,-0.135,-0.155
1560,-0.135,-0.150
1561,-0.135,-0.145
1562,-0.140,-0.150
1563,-0.145,-0.155
1564,-0.140,-0.150
1565,-0.135,-0.145
1566,-0.135,-0.145
1567,-0.135,-0.145
1568,-0.135,-0.140
1569,-0.135,-0.135
1570,-0.130,-0.140
1571,-0.130,-0.145
1572,-0.140,-0.145
1573,-0.145,-0.145
1574,-0.140,-0.145
1575,-0.135,-0.145
1576,-0.130,-0.145
1577,-0.130,-0.145
1578,-0.140,-0.145
1579,-0.140,-0.145
1580,-0.130,-0.150
1581,-0.130,-0.155
1582,-0.140,-0.155
1583,-0.145,-0.155
1584,-0.135,-0.145
1585,-0.140,-0.150
1586,-0.145,-0.155
1587,-0.145,-0.160
1588,-0.145,-0.165
1589,-0.145,-0.165
1590,-0.145,-0.165
1591,-0.140,-0.160
1592,-0.135,-0.155
1593,-0.140,-0.155
1594,-0.145,-0.155
1595,-0.140,-0.160
1596,-0.135,-0.165
1597,-0.135,-0.160
1598,-0.135,-0.155
1599,-0.130,-0.155
1600,-0.125,-0.155
1601,-0.125,-0.155
1602,-0.125,-0.155
1603,-0.130,-0.160
1604,-0.135,-0.165
1605,-0.135,-0.160
1606,-0.135,-0.155
1607,-0.135,-0.150
1608,-0.135,-0.145
1609,-0.135,-0.150
1610,-0.135,-0.155
1611,-0.130,-0.155
1612,-0.125,-0.155
1613,-0.130,-0.155
1614,-0.135,-0.155
1615,-0.130,-0.155
1616,-0.125,-0.155
1617,-0.120,-0.155
1618,-0.120,-0.155
1619,-0.130,-0.160
1620,-0.130,-0.165
1621,-0.120,-0.160
1622,-0.115,-0.150
1623,-0.120,-0.140
1624,-0.125,-0.140
1625,-0.125,-0.135
1626,-0.120,-0.155
1627,-0.115,-0.155
1628,-0.115,-0.155
1629,-0.115,-0.155
1630,-0.115,-0.150
1631,-0.115,-0.145
1632,-0.115,-0.150
1633,-0.115,-0.155
1634,-0.115,-0.160
1635,-0.115,-0.165
1636,-0.110,-0.160
1637,-0.105,-0.155
1638,-0.105,-0.150
1639,-0.105,-0.145
1640,-0.110,-0.140
1641,-0.115,-0.135
1642,-0.110,-0.145
1643,-0.105,-0.155
1644,-0.105,-0.150
1645,-0.105,-0.145
1646,-0.100,-0.145
1647,-0.095,-0.145
1648,-0.095,-0.145
1649,-0.095,-0.145
1650,-0.100,-0.150
1651,-0.105,-0.155
1652,-0.105,-0.150
1653,-0.105,-0.145
1654,-0.100,-0.140
1655,-0.095,-0.135
1656,-0.095,-0.135
1657,-0.095,-0.135
1658,-0.095,-0.140
1659,-0.095,-0.145
1660,-0.100,-0.145
1661,-0.105,-0.145
1662,-0.100,-0.140
1663,-0.095,-0.135
1664,-0.090,-0.135
1665,-0.090,-0.135
1666,-0.100,-0.135
1667,-0.095,-0.135
1668,-0.085,-0.135
1669,-0.090,-0.135
1670,-0.095,-0.135
1671,-0.095,-0.135
1672,-0.095,-0.135
1673,-0.090,-0.140
1674,-0.085,-0.145
1675,-0.085,-0.145
1676,-0.085,-0.145
1677,-0.085,-0.135
1678,-0.085,-0.125
1679,-0.080,-0.130
1680,-0.075,-0.135
1681,-0.080,-0.135
1682,-0.085,-0.135
1683,-0.080,-0.135
1684,-0.075,-0.135
1685,-0.075,-0.130
1686,-0.075,-0.125
1687,-0.080,-0.130
1688,-0.085,-0.135
1689,-0.080,-0.130
1690,-0.075,-0.125
1691,-0.075,-0.130
1692,-0.075,-0.135
1693,-0.075,-0.130
1694,-0.075,-0.125
1695,-0.075,-0.125
1696,-0.075,-0.125
1697,-0.075,-0.130
1698,-0.075,-0.135
1699,-0.070,-0.130
1700,-0.065,-0.125
1701,-0.065,-0.120
1702,-0.065,-0.115
1703,-0.065,-0.120
1704,-0.060,-0.125
1705,-0.050,-0.125
1706,-0.045,-0.120
1707,-0.045,-0.110
1708,-0.040,-0.105
1709,-0.025,-0.095
1710,-0.005,-0.095
1711,0.015,-0.095
1712,0.030,-0.075
1713,0.045,-0.055
1714,0.045,-0.045
1715,0.045,-0.035
1716,0.055,-0.035
1717,0.065,-0.035
1718,0.075,-0.040
1719,0.080,-0.045
1720,0.060,-0.055
1721,0.035,-0.070
1722,-0.010,-0.090
1723,-0.045,-0.105
1724,-0.050,-0.115
1725,-0.050,-0.125
1726,-0.035,-0.120
1727,-0.030,-0.115
1728,-0.045,-0.115
1729,-0.060,-0.115
1730,-0.075,-0.115
1731,-0.090,-0.120
1732,-0.105,-0.130
1733,-0.115,-0.135
1734,-0.115,-0.140
1735,-0.110,-0.145
1736,-0.100,-0.145
1737,-0.095,-0.145
1738,-0.090,-0.140
1739,-0.080,-0.130
1740,-0.070,-0.120
1741,-0.065,-0.115
1742,-0.065,-0.120
1743,-0.065,-0.125
1744,-0.060,-0.125
1745,-0.010,-0.085
1746,0.045,-0.030
1747,0.170,0.085
1748,0.295,0.205
1749,0.525,0.390
1750,0.305,0.215
1751,1.025,0.405
1752,1.275,0.220
1753,1.185,-0.125
1754,1.045,-0.455
1755,0.385,-0.605
1756,-0.235,-0.760
1757,-0.620,-0.935
1758,-0.930,-1.065
1759,-0.885,-0.950
1760,-0.805,-0.820
1761,-0.625,-0.655
1762,-0.455,-0.505
1763,-0.315,-0.395
1764,-0.190,-0.275
1765,-0.110,-0.155
1766,-0.050,-0.055
1767,-0.030,0.000
1768,-0.015,0.035
1769,-0.015,0.045
1770,-0.015,0.055
1771,-0.010,0.050
1772,-0.005,0.045
1773,-0.005,0.045
1774,-0.005,0.045
1775,-0.005,0.040
1776,-0.005,0.040
1777,0.000,0.050
1778,0.010,0.055
1779,0.020,0.060
1780,0.025,0.065
1781,0.020,0.065
1782,0.020,0.065
1783,0.030,0.070
1784,0.035,0.075
1785,0.035,0.080
1786,0.040,0.085
1787,0.050,0.090
1788,0.055,0.095
1789,0.060,0.090
1790,0.065,0.085
1791,0.065,0.090
1792,0.075,0.105
1793,0.085,0.115
1794,0.085,0.120
1795,0.085,0.125
1796,0.085,0.125
1797,0.085,0.125
1798,0.100,0.130
1799,0.115,0.135
1800,0.120,0.140
1801,0.125,0.145
1802,0.130,0.155
1803,0.135,0.165
1804,0.145,0.170
1805,0.155,0.175
1806,0.155,0.180
1807,0.160,0.185
1808,0.180,0.195
1809,0.195,0.210
1810,0.205,0.225
1811,0.220,0.235
1812,0.235,0.245
1813,0.255,0.255
1814,0.275,0.260
1815,0.290,0.275
1816,0.305,0.295
1817,0.325,0.310
1818,0.345,0.320
1819,0.365,0.330
1820,0.385,0.340
1821,0.400,0.345
1822,0.410,0.350
1823,0.430,0.360
1824,0.455,0.370
1825,0.475,0.380
1826,0.490,0.390
1827,0.495,0.395
1828,0.500,0.400
1829,0.515,0.405
1830,0.530,0.405
1831,0.535,0.405
1832,0.530,0.405
1833,0.520,0.400
1834,0.505,0.385
1835,0.475,0.350
1836,0.445,0.315
1837,0.400,0.280
1838,0.350,0.240
1839,0.305,0.190
1840,0.260,0.140
1841,0.220,0.100
1842,0.175,0.060
1843,0.120,0.025
1844,0.070,-0.010
1845,0.040,-0.040
1846,0.010,-0.070
1847,-0.015,-0.090
1848,-0.040,-0.105
1849,-0.055,-0.115
1850,-0.070,-0.125
1851,-0.085,-0.135
1852,-0.095,-0.145
1853,-0.105,-0.155
1854,-0.115,-0.165
1855,-0.115,-0.170
1856,-0.115,-0.175
1857,-0.115,-0.170
1858,-0.115,-0.165
1859,-0.120,-0.170
1860,-0.125,-0.175
1861,-0.125,-0.175
1862,-0.125,-0.175
1863,-0.130,-0.175
1864,-0.135,-0.175
1865,-0.135,-0.170
1866,-0.135,-0.165
1867,-0.130,-0.170
1868,-0.130,-0.175
1869,-0.140,-0.175
1870,-0.140,-0.175
1871,-0.130,-0.175
1872,-0.125,-0.170
1873,-0.125,-0.160
1874,-0.125,-0.155
1875,-0.125,-0.155
1876,-0.120,-0.155
1877,-0.115,-0.155
1878,-0.110,-0.155
1879,-0.105,-0.155
1880,-0.110,-0.150
1881,-0.115,-0.145
1882,-0.115,-0.150
1883,-0.115,-0.155
1884,-0.115,-0.155
1885,-0.115,-0.155
1886,-0.115,-0.155
1887,-0.115,-0.155
1888,-0.110,-0.145
1889,-0.105,-0.135
1890,-0.115,-0.135
1891,-0.125,-0.135
1892,-0.115,-0.140
1893,-0.105,-0.145
1894,-0.110,-0.140
1895,-0.115,-0.135
1896,-0.110,-0.135
1897,-0.105,-0.135
1898,-0.110,-0.140
1899,-0.115,-0.145
1900,-0.115,-0.150
1901,-0.120,-0.155
1902,-0.130,-0.155
1903,-0.135,-0.155
1904,-0.130,-0.150
1905,-0.125,-0.145
1906,-0.125,-0.150
1907,-0.120,-0.155
1908,-0.110,-0.160
1909,-0.105,-0.160
1910,-0.110,-0.150
1911,-0.115,-0.145
1912,-0.115,-0.145
1913,-0.115,-0.145
1914,-0.110,-0.150
1915,-0.115,-0.155
1916,-0.130,-0.155
1917,-0.125,-0.155
1918,-0.115,-0.155
1919,-0.115,-0.150
1920,-0.115,-0.145
1921,-0.125,-0.145
1922,-0.135,-0.145
1923,-0.125,-0.150
1924,-0.115,-0.155
1925,-0.115,-0.155
1926,-0.115,-0.155
1927,-0.110,-0.150
1928,-0.105,-0.145
1929,-0.105,-0.145
1930,-0.105,-0.145
1931,-0.115,-0.150
1932,-0.125,-0.155
1933,-0.115,-0.155
1934,-0.105,-0.155
1935,-0.105,-0.145
1936,-0.105,-0.135
1937,-0.110,-0.140
1938,-0.115,-0.145
1939,-0.110,-0.150
1940,-0.105,-0.155
1941,-0.105,-0.150
1942,-0.105,-0.145
1943,-0.110,-0.145
1944,-0.115,-0.145
1945,-0.115,-0.140
1946,-0.115,-0.135
1947,-0.120,-0.140
1948,-0.120,-0.145
1949,-0.110,-0.140
1950,-0.105,-0.135
1951,-0.105,-0.135
1952,-0.105,-0.135
1953,-0.110,-0.135
1954,-0.105,-0.135
1955,-0.090,-0.140
1956,-0.090,-0.145
1957,-0.100,-0.140
1958,-0.105,-0.135
1959,-0.105,-0.125
1960,-0.105,-0.130
1961,-0.105,-0.135
1962,-0.105,-0.135
1963,-0.105,-0.135
1964,-0.105,-0.135
1965,-0.105,-0.135
1966,-0.100,-0.130
1967,-0.095,-0.125
1968,-0.100,-0.125
1969,-0.105,-0.125
1970,-0.095,-0.130
1971,-0.085,-0.135
1972,-0.090,-0.130
1973,-0.095,-0.125
1974,-0.100,-0.125
1975,-0.105,-0.125
1976,-0.100,-0.125
1977,-0.095,-0.125
1978,-0.100,-0.130
1979,-0.105,-0.135
1980,-0.105,-0.135
1981,-0.100,-0.130
1982,-0.090,-0.120
1983,-0.085,-0.115
1984,-0.090,-0.120
1985,-0.095,-0.125
1986,-0.095,-0.125
1987,-0.095,-0.125
1988,-0.095,-0.125
1989,-0.095,-0.125
1990,-0.095,-0.120
1991,-0.095,-0.115
1992,-0.095,-0.120
1993,-0.095,-0.125
1994,-0.100,-0.125
1995,-0.105,-0.125
1996,-0.100,-0.125
1997,-0.095,-0.120
1998,-0.095,-0.110
1999,-0.095,-0.105
2000,-0.095,-0.105
2001,-0.090,-0.120
2002,-0.085,-0.125
2003,-0.090,-0.120
2004,-0.095,-0.115
2005,-0.095,-0.110
2006,-0.095,-0.105
2007,-0.090,-0.110
2008,-0.085,-0.115
2009,-0.095,-0.120
2010,-0.105,-0.125
2011,-0.100,-0.120
2012,-0.095,-0.115
2013,-0.085,-0.110
2014,-0.075,-0.105
2015,-0.075,-0.100
2016,-0.075,-0.095
2017,-0.065,-0.100
2018,-0.050,-0.105
2019,-0.035,-0.095
2020,-0.015,-0.080
2021,0.010,-0.055
2022,0.020,-0.040
2023,0.010,-0.030
2024,0.010,-0.030
2025,0.020,-0.045
2026,0.035,-0.050
2027,0.055,-0.040
2028,0.055,-0.035
2029,0.035,-0.035
2030,-0.005,-0.045
2031,-0.050,-0.065
2032,-0.065,-0.090
2033,-0.065,-0.110
2034,-0.065,-0.115
2035,-0.065,-0.110
2036,-0.070,-0.100
2037,-0.080,-0.090
2038,-0.105,-0.090
2039,-0.130,-0.100
2040,-0.145,-0.120
2041,-0.160,-0.140
2042,-0.155,-0.140
2043,-0.145,-0.135
2044,-0.135,-0.130
2045,-0.125,-0.125
2046,-0.120,-0.125
2047,-0.115,-0.125
2048,-0.105,-0.125
2049,-0.095,-0.125
2050,-0.095,-0.115
2051,-0.095,-0.105
2052,-0.095,-0.100
2053,-0.085,-0.085
2054,-0.025,-0.040
2055,0.055,0.030
2056,0.180,0.140
2057,0.355,0.280
2058,0.610,0.465
2059,0.860,0.515
2060,1.110,0.370
2061,1.190,0.150
2062,1.070,-0.150
2063,0.685,-0.375
2064,0.045,-0.525
2065,-0.410,-0.700
2066,-0.710,-0.900
2067,-0.835,-0.920
2068,-0.835,-0.800
2069,-0.745,-0.675
2070,-0.600,-0.545
2071,-0.475,-0.445
2072,-0.350,-0.350
2073,-0.240,-0.245
2074,-0.130,-0.130
2075,-0.085,-0.045
2076,-0.060,0.030
2077,-0.055,0.045
2078,-0.050,0.050
2079,-0.045,0.055
2080,-0.045,0.050
2081,-0.045,0.045
2082,-0.045,0.045
2083,-0.045,0.050
2084,-0.035,0.065
2085,-0.035,0.060
2086,-0.035,0.055
2087,-0.025,0.055
2088,-0.015,0.055
2089,-0.015,0.060
2090,-0.015,0.065
2091,-0.010,0.070
2092,-0.005,0.075
2093,-0.010,0.075
2094,-0.015,0.075
2095,0.000,0.075
2096,0.015,0.075
2097,0.015,0.085
2098,0.015,0.095
2099,0.020,0.100
2100,0.025,0.105
2101,0.030,0.105
2102,0.035,0.105
2103,0.035,0.100
2104,0.035,0.095
2105,0.040,0.110
2106,0.050,0.115
2107,0.060,0.120
2108,0.065,0.125
2109,0.070,0.125
2110,0.080,0.125
2111,0.090,0.130
2112,0.095,0.145
2113,0.100,0.160
2114,0.110,0.170
2115,0.120,0.180
2116,0.130,0.185
2117,0.140,0.185
2118,0.150,0.185
2119,0.160,0.190
2120,0.185,0.205
2121,0.210,0.220
2122,0.220,0.230
2123,0.230,0.240
2124,0.245,0.250
2125,0.235,0.245
2126,0.290,0.275
2127,0.315,0.285
2128,0.330,0.300
2129,0.345,0.315
2130,0.365,0.320
2131,0.385,0.325
2132,0.400,0.335
2133,0.415,0.345
2134,0.420,0.345
2135,0.425,0.345
2136,0.440,0.350
2137,0.455,0.355
2138,0.465,0.360
2139,0.475,0.365
2140,0.465,0.360
2141,0.450,0.350
2142,0.435,0.330
2143,0.410,0.310
2144,0.370,0.290
2145,0.330,0.255
2146,0.295,0.210
2147,0.250,0.165
2148,0.190,0.125
2149,0.140,0.085
2150,0.085,0.050
2151,0.045,0.020
2152,0.000,-0.010
2153,-0.035,-0.035
2154,-0.065,-0.055
2155,-0.085,-0.075
2156,-0.105,-0.095
2157,-0.120,-0.110
2158,-0.130,-0.120
2159,-0.145,-0.125
2160,-0.160,-0.130
2161,-0.165,-0.135
2162,-0.165,-0.140
2163,-0.165,-0.145
2164,-0.170,-0.150
2165,-0.175,-0.155
2166,-0.180,-0.155
2167,-0.180,-0.155
2168,-0.175,-0.155
2169,-0.185,-0.150
2170,-0.195,-0.145
2171,-0.195,-0.155
2172,-0.195,-0.165
2173,-0.190,-0.160
2174,-0.185,-0.155
2175,-0.190,-0.155
2176,-0.195,-0.155
2177,-0.190,-0.150
2178,-0.185,-0.145
2179,-0.180,-0.145
2180,-0.175,-0.145
2181,-0.185,-0.150
2182,-0.195,-0.155
2183,-0.185,-0.150
2184,-0.175,-0.145
2185,-0.175,-0.140
2186,-0.175,-0.135
2187,-0.175,-0.135
2188,-0.175,-0.135
2189,-0.170,-0.140
2190,-0.165,-0.145
2191,-0.170,-0.145
2192,-0.175,-0.145
2193,-0.175,-0.140
2194,-0.175,-0.135
2195,-0.170,-0.135
2196,-0.165,-0.135
2197,-0.170,-0.135
2198,-0.175,-0.135
2199,-0.170,-0.140
2200,-0.165,-0.145
2201,-0.160,-0.140
2202,-0.160,-0.135
2203,-0.170,-0.140
2204,-0.175,-0.145
2205,-0.170,-0.145
2206,-0.165,-0.145
2207,-0.170,-0.145
2208,-0.175,-0.145
2209,-0.165,-0.135
2210,-0.170,-0.145
2211,-0.175,-0.155
2212,-0.175,-0.160
2213,-0.175,-0.165
2214,-0.175,-0.160
2215,-0.175,-0.155
2216,-0.175,-0.150
2217,-0.175,-0.145
2218,-0.180,-0.150
2219,-0.185,-0.155
2220,-0.175,-0.155
2221,-0.165,-0.155
2222,-0.170,-0.155
2223,-0.175,-0.155
2224,-0.175,-0.150
2225,-0.175,-0.145
2226,-0.175,-0.150
2227,-0.175,-0.155
2228,-0.180,-0.155
2229,-0.185,-0.155
2230,-0.185,-0.160
2231,-0.185,-0.165
2232,-0.180,-0.160
2233,-0.175,-0.155
2234,-0.175,-0.155
2235,-0.175,-0.155
2236,-0.175,-0.155
2237,-0.175,-0.155
2238,-0.175,-0.155
2239,-0.175,-0.155
2240,-0.180,-0.155
2241,-0.185,-0.155
2242,-0.180,-0.160
2243,-0.175,-0.165
2244,-0.180,-0.160
2245,-0.180,-0.155
2246,-0.170,-0.155
2247,-0.165,-0.155
2248,-0.170,-0.150
2249,-0.175,-0.145
2250,-0.175,-0.145
2251,-0.170,-0.155
2252,-0.165,-0.155
2253,-0.165,-0.150
2254,-0.165,-0.145
2255,-0.170,-0.145
2256,-0.175,-0.145
2257,-0.170,-0.150
2258,-0.165,-0.155
2259,-0.170,-0.160
2260,-0.175,-0.165
2261,-0.165,-0.160
2262,-0.155,-0.155
2263,-0.165,-0.150
2264,-0.175,-0.145
2265,-0.175,-0.150
2266,-0.175,-0.155
2267,-0.165,-0.155
2268,-0.155,-0.155
2269,-0.160,-0.150
2270,-0.165,-0.145
2271,-0.160,-0.140
2272,-0.155,-0.135
2273,-0.155,-0.140
2274,-0.155,-0.145
2275,-0.155,-0.150
2276,-0.155,-0.155
2277,-0.155,-0.150
2278,-0.155,-0.145
2279,-0.155,-0.140
2280,-0.155,-0.135
2281,-0.160,-0.140
2282,-0.165,-0.145
2283,-0.160,-0.150
2284,-0.155,-0.155
2285,-0.155,-0.150
2286,-0.155,-0.145
2287,-0.150,-0.140
2288,-0.145,-0.135
2289,-0.140,-0.140
2290,-0.145,-0.145
2291,-0.160,-0.145
2292,-0.145,-0.140
2293,-0.125,-0.135
2294,-0.125,-0.125
2295,-0.125,-0.115
2296,-0.120,-0.120
2297,-0.115,-0.125
2298,-0.085,-0.120
2299,-0.055,-0.115
2300,-0.045,-0.085
2301,-0.035,-0.065
2302,-0.045,-0.060
2303,-0.050,-0.055
2304,-0.025,-0.070
2305,-0.005,-0.085
2306,-0.005,-0.080
2307,-0.010,-0.075
2308,-0.035,-0.080
2309,-0.065,-0.090
2310,-0.105,-0.110
2311,-0.125,-0.125
2312,-0.130,-0.135
2313,-0.130,-0.145
2314,-0.115,-0.145
2315,-0.115,-0.140
2316,-0.135,-0.130
2317,-0.155,-0.130
2318,-0.175,-0.140
2319,-0.185,-0.150
2320,-0.190,-0.160
2321,-0.195,-0.165
2322,-0.200,-0.170
2323,-0.200,-0.175
2324,-0.190,-0.170
2325,-0.180,-0.165
2326,-0.170,-0.160
2327,-0.165,-0.155
2328,-0.160,-0.155
2329,-0.150,-0.155
2330,-0.140,-0.155
2331,-0.135,-0.150
2332,-0.140,-0.140
2333,-0.095,-0.110
2334,-0.035,-0.075
2335,0.065,0.035
2336,0.180,0.155
2337,0.420,0.315
2338,0.660,0.465
2339,0.920,0.420
2340,1.145,0.340
2341,1.110,0.020
2342,0.960,-0.270
2343,0.335,-0.440
2344,-0.230,-0.625
2345,-0.615,-0.830
2346,-0.890,-0.960
2347,-0.910,-0.890
2348,-0.880,-0.800
2349,-0.735,-0.655
2350,-0.600,-0.535
2351,-0.475,-0.445
2352,-0.360,-0.360
2353,-0.255,-0.270
2354,-0.180,-0.180
2355,-0.135,-0.085
2356,-0.110,-0.025
2357,-0.100,-0.005
2358,-0.095,0.005
2359,-0.090,0.005
2360,-0.085,0.005
2361,-0.080,0.000
2362,-0.075,-0.005
2363,-0.080,0.000
2364,-0.080,0.005
2365,-0.070,0.005
2366,-0.060,0.010
2367,-0.050,0.020
2368,-0.045,0.025
2369,-0.050,0.025
2370,-0.050,0.025
2371,-0.040,0.025
2372,-0.035,0.025
2373,-0.030,0.025
2374,-0.025,0.030
2375,-0.025,0.025
2376,-0.015,0.045
2377,-0.005,0.045
2378,-0.010,0.050
2379,-0.015,0.055
2380,-0.005,0.060
2381,0.005,0.065
2382,0.005,0.065
2383,0.005,0.065
2384,0.010,0.065
2385,0.015,0.065
2386,0.025,0.070
2387,0.035,0.075
2388,0.040,0.085
2389,0.045,0.095
2390,0.050,0.095
2391,0.060,0.095
2392,0.075,0.100
2393,0.085,0.105
2394,0.090,0.115
2395,0.095,0.125
2396,0.110,0.140
2397,0.120,0.150
2398,0.130,0.160
2399,0.140,0.165
2400,0.150,0.165
2401,0.165,0.170
2402,0.185,0.185
2403,0.210,0.205
2404,0.235,0.220
2405,0.255,0.230
2406,0.270,0.240
2407,0.295,0.250
2408,0.325,0.260
2409,0.345,0.270
2410,0.360,0.280
2411,0.375,0.290
2412,0.390,0.300
2413,0.400,0.305
2414,0.410,0.310
2415,0.420,0.315
2416,0.430,0.315
2417,0.440,0.315
2418,0.445,0.315
2419,0.445,0.320
2420,0.445,0.325
2421,0.430,0.305
2422,0.415,0.285
2423,0.390,0.255
2424,0.360,0.220
2425,0.305,0.190
2426,0.255,0.160
2427,0.200,0.120
2428,0.145,0.075
2429,0.095,0.030
2430,0.040,-0.015
2431,-0.015,-0.055
2432,-0.060,-0.090
2433,-0.085,-0.115
2434,-0.110,-0.135
2435,-0.130,-0.145
2436,-0.145,-0.160
2437,-0.155,-0.175
2438,-0.165,-0.190
2439,-0.170,-0.200
2440,-0.175,-0.205
2441,-0.180,-0.205
2442,-0.185,-0.205
2443,-0.190,-0.200
2444,-0.195,-0.200
2445,-0.195,-0.210
2446,-0.195,-0.215
2447,-0.200,-0.215
2448,-0.205,-0.215
2449,-0.205,-0.215
2450,-0.205,-0.215
2451,-0.210,-0.215
2452,-0.215,-0.215
2453,-0.215,-0.215
2454,-0.215,-0.215
2455,-0.210,-0.215
2456,-0.205,-0.215
2457,-0.205,-0.210
2458,-0.205,-0.205
2459,-0.195,-0.205
2460,-0.200,-0.205
2461,-0.205,-0.205
2462,-0.205,-0.210
2463,-0.205,-0.215
2464,-0.200,-0.210
2465,-0.195,-0.205
2466,-0.190,-0.200
2467,-0.185,-0.195
2468,-0.190,-0.195
2469,-0.195,-0.195
2470,-0.190,-0.195
2471,-0.185,-0.195
2472,-0.185,-0.190
2473,-0.185,-0.185
2474,-0.185,-0.185
2475,-0.185,-0.185
2476,-0.190,-0.190
2477,-0.195,-0.195
2478,-0.190,-0.195
2479,-0.185,-0.195
2480,-0.185,-0.190
2481,-0.185,-0.185
2482,-0.180,-0.185
2483,-0.175,-0.185
2484,-0.180,-0.190
2485,-0.185,-0.195
2486,-0.180,-0.195
2487,-0.175,-0.195
2488,-0.180,-0.195
2489,-0.185,-0.195
2490,-0.190,-0.190
2491,-0.190,-0.185
2492,-0.180,-0.190
2493,-0.185,-0.195
2494,-0.200,-0.200
2495,-0.200,-0.205
2496,-0.190,-0.205
2497,-0.185,-0.205
2498,-0.185,-0.205
2499,-0.185,-0.205
2500,-0.185,-0.205
2501,-0.180,-0.205
2502,-0.175,-0.215
2503,-0.175,-0.210
2504,-0.175,-0.205
2505,-0.175,-0.200
2506,-0.175,-0.195
2507,-0.175,-0.195
2508,-0.175,-0.195
2509,-0.180,-0.200
2510,-0.185,-0.205
2511,-0.180,-0.205
2512,-0.175,-0.205
2513,-0.175,-0.200
2514,-0.175,-0.195
2515,-0.180,-0.200
2516,-0.185,-0.205
2517,-0.175,-0.200
2518,-0.165,-0.195
2519,-0.170,-0.195
2520,-0.175,-0.195
2521,-0.175,-0.195
2522,-0.175,-0.195
2523,-0.175,-0.195
2524,-0.175,-0.195
2525,-0.175,-0.200
2526,-0.175,-0.205
2527,-0.175,-0.205
2528,-0.175,-0.200
2529,-0.175,-0.190
2530,-0.175,-0.190
2531,-0.170,-0.200
2532,-0.165,-0.205
2533,-0.160,-0.205
2534,-0.155,-0.205
2535,-0.160,-0.200
2536,-0.165,-0.195
2537,-0.160,-0.190
2538,-0.155,-0.185
2539,-0.160,-0.190
2540,-0.165,-0.195
2541,-0.165,-0.195
2542,-0.160,-0.195
2543,-0.155,-0.195
2544,-0.155,-0.190
2545,-0.155,-0.185
2546,-0.160,-0.185
2547,-0.165,-0.185
2548,-0.160,-0.190
2549,-0.155,-0.195
2550,-0.155,-0.195
2551,-0.155,-0.195
2552,-0.155,-0.190
2553,-0.155,-0.185
2554,-0.150,-0.185
2555,-0.145,-0.185
2556,-0.155,-0.190
2557,-0.165,-0.195
2558,-0.160,-0.195
2559,-0.155,-0.195
2560,-0.150,-0.190
2561,-0.145,-0.185
2562,-0.150,-0.185
2563,-0.155,-0.185
2564,-0.150,-0.190
2565,-0.145,-0.195
2566,-0.140,-0.190
2567,-0.135,-0.185
2568,-0.140,-0.180
2569,-0.145,-0.175
2570,-0.145,-0.180
2571,-0.145,-0.185
2572,-0.150,-0.185
2573,-0.155,-0.185
2574,-0.155,-0.185
2575,-0.150,-0.180
2576,-0.140,-0.170
2577,-0.135,-0.170
2578,-0.140,-0.180
2579,-0.135,-0.185
2580,-0.120,-0.185
2581,-0.120,-0.185
2582,-0.130,-0.180
2583,-0.135,-0.175
2584,-0.125,-0.175
2585,-0.130,-0.175
2586,-0.135,-0.175
2587,-0.140,-0.180
2588,-0.145,-0.185
2589,-0.140,-0.185
2590,-0.135,-0.185
2591,-0.130,-0.175
2592,-0.125,-0.165
2593,-0.115,-0.165
2594,-0.105,-0.165
2595,-0.095,-0.160
2596,-0.085,-0.155
2597,-0.075,-0.155
2598,-0.060,-0.150
2599,-0.040,-0.130
2600,-0.025,-0.115
2601,-0.015,-0.105
2602,-0.010,-0.095
2603,-0.030,-0.100
2604,-0.035,-0.105
2605,0.000,-0.120
2606,0.015,-0.125
2607,0.010,-0.120
2608,-0.015,-0.120
2609,-0.055,-0.130
2610,-0.080,-0.150
2611,-0.095,-0.175
2612,-0.105,-0.185
2613,-0.105,-0.180
2614,-0.105,-0.170
2615,-0.105,-0.160
2616,-0.120,-0.155
2617,-0.140,-0.155
2618,-0.160,-0.165
2619,-0.180,-0.180
2620,-0.185,-0.190
2621,-0.180,-0.200
2622,-0.175,-0.200
2623,-0.175,-0.190
2624,-0.170,-0.185
2625,-0.175,-0.185
2626,-0.145,-0.195
2627,-0.135,-0.195
2628,-0.130,-0.190
2629,-0.125,-0.185
2630,-0.130,-0.175
2631,-0.130,-0.165
2632,-0.075,-0.130
2633,-0.005,-0.085
2634,0.110,0.040
2635,0.260,0.180
2636,0.510,0.380
2637,0.760,0.485
2638,1.000,0.345
2639,1.165,0.130
2640,1.155,-0.230
2641,0.925,-0.505
2642,0.340,-0.650
2643,-0.210,-0.805
2644,-0.710,-0.975
2645,-0.975,-1.035
2646,-0.975,-0.970
2647,-0.890,-0.855
2648,-0.715,-0.695
2649,-0.560,-0.565
2650,-0.420,-0.450
2651,-0.300,-0.335
2652,-0.195,-0.220
2653,-0.135,-0.125
2654,-0.100,-0.040
2655,-0.085,-0.015
2656,-0.085,-0.015
2657,-0.080,-0.015
2658,-0.070,-0.020
2659,-0.065,-0.025
2660,-0.070,-0.020
2661,-0.075,-0.015
2662,-0.070,-0.010
2663,-0.065,-0.005
2664,-0.065,-0.005
2665,-0.065,-0.005
2666,-0.070,-0.005
2667,-0.060,0.000
2668,-0.045,0.005
2669,-0.040,0.015
2670,-0.035,0.025
2671,-0.035,0.025
2672,-0.035,0.025
2673,-0.025,0.025
2674,-0.015,0.025
2675,-0.015,0.030
2676,-0.015,0.035
2677,-0.010,0.040
2678,-0.005,0.045
2679,-0.005,0.050
2680,-0.005,0.055
2681,-0.010,0.050
2682,-0.010,0.045
2683,0.005,0.055
2684,0.015,0.065
2685,0.020,0.070
2686,0.025,0.075
2687,0.030,0.080
2688,0.040,0.085
2689,0.050,0.090
2690,0.055,0.100
2691,0.060,0.110
2692,0.070,0.115
2693,0.085,0.120
2694,0.095,0.130
2695,0.100,0.140
2696,0.110,0.150
2697,0.120,0.160
2698,0.140,0.170
2699,0.160,0.180
2700,0.185,0.200
2701,0.210,0.220
2702,0.220,0.230
2703,0.230,0.240
2704,0.255,0.245
2705,0.280,0.250
2706,0.290,0.270
2707,0.300,0.290
2708,0.325,0.300
2709,0.355,0.315
2710,0.365,0.320
2711,0.375,0.325
2712,0.385,0.330
2713,0.395,0.335
2714,0.410,0.335
2715,0.425,0.335
2716,0.435,0.345
2717,0.445,0.355
2718,0.435,0.345
2719,0.425,0.330
2720,0.420,0.310
2721,0.405,0.290
2722,0.365,0.260
2723,0.320,0.220
2724,0.275,0.175
2725,0.230,0.130
2726,0.185,0.090
2727,0.135,0.050
2728,0.075,0.010
2729,0.030,-0.030
2730,-0.005,-0.065
2731,-0.040,-0.095
2732,-0.075,-0.115
2733,-0.105,-0.135
2734,-0.135,-0.165
2735,-0.150,-0.180
2736,-0.165,-0.195
2737,-0.175,-0.205
2738,-0.180,-0.210
2739,-0.190,-0.215
2740,-0.200,-0.215
2741,-0.205,-0.220
2742,-0.205,-0.230
2743,-0.205,-0.235
2744,-0.210,-0.235
2745,-0.215,-0.235
2746,-0.215,-0.230
2747,-0.215,-0.225
2748,-0.220,-0.225
2749,-0.225,-0.225
2750,-0.225,-0.225
2751,-0.220,-0.230
2752,-0.225,-0.235
2753,-0.220,-0.230
2754,-0.215,-0.225
2755,-0.215,-0.215
2756,-0.215,-0.205
2757,-0.215,-0.215
2758,-0.215,-0.225
2759,-0.215,-0.225
2760,-0.215,-0.225
2761,-0.210,-0.220
2762,-0.205,-0.215
2763,-0.205,-0.205
2764,-0.205,-0.195
2765,-0.200,-0.200
2766,-0.195,-0.205
2767,-0.195,-0.205
2768,-0.195,-0.205
2769,-0.200,-0.205
2770,-0.205,-0.205
2771,-0.205,-0.190
2772,-0.205,-0.185
2773,-0.205,-0.190
2774,-0.205,-0.195
2775,-0.205,-0.200
2776,-0.205,-0.205
2777,-0.205,-0.200
2778,-0.205,-0.195
2779,-0.200,-0.190
2780,-0.195,-0.185
2781,-0.200,-0.190
2782,-0.205,-0.195
2783,-0.200,-0.195
2784,-0.200,-0.195
2785,-0.210,-0.200
2786,-0.215,-0.205
2787,-0.210,-0.200
2788,-0.205,-0.195
2789,-0.210,-0.195
2790,-0.215,-0.195
2791,-0.215,-0.200
2792,-0.210,-0.200
2793,-0.205,-0.195
2794,-0.205,-0.195
2795,-0.205,-0.195
2796,-0.210,-0.200
2797,-0.215,-0.205
2798,-0.205,-0.205
2799,-0.195,-0.205
2800,-0.195,-0.205
2801,-0.195,-0.205
2802,-0.200,-0.200
2803,-0.205,-0.195
2804,-0.200,-0.200
2805,-0.195,-0.205
2806,-0.200,-0.205
2807,-0.205,-0.205
2808,-0.200,-0.200
2809,-0.195,-0.195
2810,-0.195,-0.190
2811,-0.195,-0.185
2812,-0.200,-0.190
2813,-0.205,-0.195
2814,-0.200,-0.195
2815,-0.195,-0.195
2816,-0.195,-0.195
2817,-0.195,-0.195
2818,-0.195,-0.190
2819,-0.195,-0.185
2820,-0.190,-0.190
2821,-0.185,-0.195
2822,-0.190,-0.200
2823,-0.195,-0.205
2824,-0.190,-0.200
2825,-0.185,-0.195
2826,-0.185,-0.190
2827,-0.185,-0.185
2828,-0.185,-0.190
2829,-0.185,-0.195
2830,-0.185,-0.190
2831,-0.185,-0.185
2832,-0.185,-0.185
2833,-0.185,-0.185
2834,-0.185,-0.185
2835,-0.185,-0.185
2836,-0.185,-0.185
2837,-0.185,-0.185
2838,-0.185,-0.185
2839,-0.185,-0.185
2840,-0.185,-0.185
2841,-0.180,-0.180
2842,-0.175,-0.175
2843,-0.180,-0.180
2844,-0.185,-0.185
2845,-0.180,-0.185
2846,-0.175,-0.185
2847,-0.175,-0.180
2848,-0.175,-0.175
2849,-0.175,-0.175
2850,-0.175,-0.175
2851,-0.170,-0.175
2852,-0.165,-0.175
2853,-0.170,-0.180
2854,-0.175,-0.185
2855,-0.170,-0.185
2856,-0.165,-0.180
2857,-0.165,-0.170
2858,-0.165,-0.165
2859,-0.170,-0.170
2860,-0.175,-0.175
2861,-0.170,-0.175
2862,-0.165,-0.175
2863,-0.165,-0.170
2864,-0.165,-0.165
2865,-0.165,-0.170
2866,-0.165,-0.175
2867,-0.160,-0.175
2868,-0.165,-0.175
2869,-0.180,-0.175
2870,-0.175,-0.175
2871,-0.160,-0.170
2872,-0.155,-0.165
2873,-0.155,-0.160
2874,-0.155,-0.155
2875,-0.155,-0.155
2876,-0.160,-0.165
2877,-0.155,-0.165
2878,-0.155,-0.165
2879,-0.155,-0.165
2880,-0.150,-0.160
2881,-0.145,-0.155
2882,-0.145,-0.160
2883,-0.145,-0.165
2884,-0.155,-0.165
2885,-0.165,-0.165
2886,-0.160,-0.165
2887,-0.155,-0.165
2888,-0.150,-0.160
2889,-0.145,-0.155
2890,-0.150,-0.155
2891,-0.155,-0.155
2892,-0.145,-0.155
2893,-0.135,-0.155
2894,-0.140,-0.150
2895,-0.145,-0.145
2896,-0.140,-0.145
2897,-0.135,-0.145
2898,-0.140,-0.145
2899,-0.145,-0.145
2900,-0.145,-0.150
2901,-0.145,-0.155
2902,-0.140,-0.150
2903,-0.135,-0.145
2904,-0.135,-0.145
2905,-0.135,-0.145
2906,-0.140,-0.150
2907,-0.130,-0.155
2908,-0.110,-0.150
2909,-0.105,-0.140
2910,-0.105,-0.130
2911,-0.105,-0.120
2912,-0.100,-0.110
2913,-0.070,-0.105
2914,-0.040,-0.110
2915,-0.030,-0.095
2916,-0.020,-0.070
2917,-0.020,-0.060
2918,-0.025,-0.055
2919,-0.005,-0.060
2920,0.015,-0.065
2921,0.010,-0.065
2922,0.005,-0.065
2923,-0.020,-0.075
2924,-0.050,-0.085
2925,-0.080,-0.105
2926,-0.105,-0.125
2927,-0.110,-0.130
2928,-0.115,-0.135
2929,-0.105,-0.130
2930,-0.100,-0.125
2931,-0.120,-0.120
2932,-0.135,-0.115
2933,-0.145,-0.125
2934,-0.155,-0.135
2935,-0.165,-0.145
2936,-0.175,-0.155
2937,-0.180,-0.160
2938,-0.180,-0.165
2939,-0.170,-0.165
2940,-0.165,-0.165
2941,-0.160,-0.160
2942,-0.150,-0.150
2943,-0.140,-0.140
2944,-0.135,-0.135
2945,-0.130,-0.140
2946,-0.125,-0.145
2947,-0.125,-0.140
2948,-0.080,-0.090
2949,-0.020,-0.030
2950,0.110,0.085
2951,0.255,0.210
2952,0.470,0.370
2953,0.695,0.540
2954,0.965,0.390
2955,1.240,0.185
2956,1.115,-0.145
2957,0.955,-0.480
2958,0.245,-0.630
2959,-0.475,-0.775
2960,-0.760,-0.940
2961,-1.020,-1.090
2962,-0.925,-0.930
2963,-0.820,-0.770
2964,-0.655,-0.625
2965,-0.495,-0.480
2966,-0.350,-0.365
2967,-0.225,-0.255
2968,-0.155,-0.135
2969,-0.100,-0.035
2970,-0.080,0.005
2971,-0.065,0.035
2972,-0.065,0.040
2973,-0.065,0.045
2974,-0.070,0.045
2975,-0.075,0.045
2976,-0.070,0.045
2977,-0.065,0.045
2978,-0.065,0.040
2979,-0.065,0.035
2980,-0.060,0.040
2981,-0.055,0.050
2982,-0.050,0.060
2983,-0.045,0.065
2984,-0.045,0.065
2985,-0.040,0.065
2986,-0.030,0.065
2987,-0.025,0.070
2988,-0.025,0.080
2989,-0.020,0.085
2990,-0.010,0.085
2991,-0.005,0.085
2992,0.000,0.090
2993,0.005,0.095
2994,0.000,0.095
2995,0.000,0.100
2996,0.010,0.110
2997,0.015,0.115
2998,0.020,0.120
2999,0.025,0.125
3000,0.025,0.125
3001,0.045,0.130
3002,0.055,0.135
3003,0.060,0.145
3004,0.065,0.155
3005,0.070,0.160
3006,0.075,0.165
3007,0.090,0.175
3008,0.105,0.185
3009,0.110,0.185
3010,0.115,0.185
3011,0.130,0.200
3012,0.145,0.215
3013,0.160,0.230
3014,0.180,0.245
3015,0.195,0.250
3016,0.210,0.260
3017,0.240,0.275
3018,0.255,0.290
3019,0.265,0.305
3020,0.280,0.315
3021,0.305,0.320
3022,0.325,0.330
3023,0.345,0.345
3024,0.360,0.355
3025,0.370,0.360
3026,0.385,0.370
3027,0.405,0.380
3028,0.425,0.390
3029,0.440,0.400
3030,0.445,0.405
3031,0.445,0.410
3032,0.450,0.415
3033,0.460,0.410
3034,0.460,0.405
3035,0.450,0.400
3036,0.430,0.380
3037,0.410,0.360
3038,0.375,0.325
3039,0.340,0.290
3040,0.300,0.245
3041,0.260,0.200
3042,0.205,0.150
3043,0.155,0.105
3044,0.110,0.065
3045,0.065,0.025
3046,0.020,0.000
3047,-0.025,-0.025
3048,-0.050,-0.055
3049,-0.075,-0.085
3050,-0.105,-0.100
3051,-0.125,-0.115
3052,-0.135,-0.120
3053,-0.145,-0.125
3054,-0.145,-0.135
3055,-0.145,-0.145
3056,-0.155,-0.155
3057,-0.165,-0.165
3058,-0.165,-0.165
3059,-0.165,-0.165
3060,-0.175,-0.160
3061,-0.185,-0.155
3062,-0.185,-0.160
3063,-0.185,-0.165
3064,-0.185,-0.165
3065,-0.185,-0.165
3066,-0.185,-0.165
3067,-0.185,-0.165
3068,-0.185,-0.165
3069,-0.185,-0.165
3070,-0.185,-0.160
3071,-0.185,-0.155
3072,-0.185,-0.160
3073,-0.180,-0.160
3074,-0.170,-0.150
3075,-0.165,-0.145
3076,-0.165,-0.145
3077,-0.165,-0.145
3078,-0.165,-0.145
3079,-0.165,-0.145
3080,-0.165,-0.145
3081,-0.165,-0.145
3082,-0.165,-0.140
3083,-0.165,-0.135
3084,-0.155,-0.125
3085,-0.160,-0.130
3086,-0.165,-0.135
3087,-0.165,-0.135
3088,-0.165,-0.135
3089,-0.165,-0.130
3090,-0.165,-0.125
3091,-0.155,-0.125
3092,-0.145,-0.125
3093,-0.155,-0.125
3094,-0.165,-0.125
3095,-0.155,-0.125
3096,-0.145,-0.125
3097,-0.155,-0.125
3098,-0.165,-0.125
3099,-0.160,-0.125
3100,-0.155,-0.125
3101,-0.160,-0.130
3102,-0.165,-0.135
3103,-0.165,-0.140
3104,-0.165,-0.145
3105,-0.165,-0.140
3106,-0.165,-0.135
3107,-0.160,-0.135
3108,-0.155,-0.135
3109,-0.160,-0.140
3110,-0.165,-0.145
3111,-0.160,-0.145
3112,-0.155,-0.145
3113,-0.160,-0.140
3114,-0.165,-0.135
3115,-0.165,-0.135
3116,-0.165,-0.135
3117,-0.160,-0.140
3118,-0.155,-0.145
3119,-0.160,-0.145
3120,-0.165,-0.145
3121,-0.160,-0.140
3122,-0.155,-0.135
3123,-0.155,-0.135
3124,-0.160,-0.135
3125,-0.155,-0.135
3126,-0.165,-0.135
3127,-0.155,-0.135
3128,-0.160,-0.135
3129,-0.165,-0.135
3130,-0.165,-0.130
3131,-0.165,-0.125
3132,-0.170,-0.130
3133,-0.175,-0.135
3134,-0.175,-0.140
3135,-0.175,-0.145
3136,-0.170,-0.140
3137,-0.165,-0.135
3138,-0.155,-0.130
3139,-0.145,-0.125
3140,-0.155,-0.125
3141,-0.165,-0.125
3142,-0.155,-0.130
3143,-0.145,-0.135
3144,-0.150,-0.130
3145,-0.155,-0.125
3146,-0.150,-0.125
3147,-0.145,-0.125
3148,-0.150,-0.125
3149,-0.155,-0.125
3150,-0.160,-0.125
3151,-0.165,-0.125
3152,-0.160,-0.125
3153,-0.155,-0.125
3154,-0.150,-0.120
3155,-0.145,-0.115
3156,-0.150,-0.120
3157,-0.155,-0.125
3158,-0.150,-0.125
3159,-0.145,-0.125
3160,-0.145,-0.120
3161,-0.145,-0.115
3162,-0.145,-0.115
3163,-0.145,-0.115
3164,-0.145,-0.115
3165,-0.145,-0.115
3166,-0.145,-0.120
3167,-0.140,-0.120
3168,-0.135,-0.115
3169,-0.140,-0.105
3170,-0.145,-0.095
3171,-0.150,-0.105
3172,-0.155,-0.115
3173,-0.150,-0.115
3174,-0.145,-0.115
3175,-0.140,-0.110
3176,-0.135,-0.105
3177,-0.135,-0.100
3178,-0.135,-0.095
3179,-0.135,-0.100
3180,-0.135,-0.105
3181,-0.145,-0.110
3182,-0.155,-0.115
3183,-0.145,-0.110
3184,-0.135,-0.105
3185,-0.130,-0.100
3186,-0.125,-0.095
3187,-0.125,-0.100
3188,-0.125,-0.105
3189,-0.125,-0.105
3190,-0.125,-0.105
3191,-0.125,-0.100
3192,-0.125,-0.095
3193,-0.125,-0.095
3194,-0.125,-0.095
3195,-0.125,-0.095
3196,-0.125,-0.095
3197,-0.120,-0.095
3198,-0.105,-0.095
3199,-0.090,-0.090
3200,-0.075,-0.080
3201,-0.060,-0.070
3202,-0.050,-0.065
3203,-0.040,-0.060
3204,-0.020,-0.045
3205,0.000,-0.030
3206,0.000,-0.025
3207,-0.010,-0.020
3208,0.000,-0.015
3209,0.025,-0.015
3210,0.025,-0.020
3211,0.025,-0.025
3212,-0.015,-0.035
3213,-0.055,-0.045
3214,-0.075,-0.070
3215,-0.095,-0.095
3216,-0.090,-0.090
3217,-0.085,-0.085
3218,-0.090,-0.080
3219,-0.095,-0.075
3220,-0.105,-0.080
3221,-0.120,-0.085
3222,-0.140,-0.090
3223,-0.155,-0.095
3224,-0.160,-0.105
3225,-0.165,-0.115
3226,-0.165,-0.120
3227,-0.165,-0.125
3228,-0.160,-0.120
3229,-0.150,-0.115
3230,-0.135,-0.110
3231,-0.125,-0.100
3232,-0.120,-0.090
3233,-0.115,-0.085
3234,-0.120,-0.085
3235,-0.100,-0.085
3236,-0.060,-0.080
3237,0.005,-0.005
3238,0.080,0.100
3239,0.255,0.240
3240,0.465,0.390
3241,0.700,0.475
3242,0.945,0.550
3243,1.100,0.320
3244,1.235,0.020
3245,0.830,-0.205
3246,0.335,-0.420
3247,-0.190,-0.615
3248,-0.720,-0.805
3249,-0.815,-0.850
3250,-0.745,-0.815
3251,-0.780,-0.735
3252,-0.660,-0.575
3253,-0.535,-0.470
3254,-0.405,-0.370
3255,-0.290,-0.280
3256,-0.180,-0.190
3257,-0.130,-0.085
3258,-0.085,0.010
3259,-0.070,0.040
3260,-0.055,0.065
3261,-0.050,0.065
3262,-0.045,0.065
3263,-0.045,0.070
3264,-0.045,0.075
3265,-0.045,0.070
3266,-0.045,0.065
3267,-0.035,0.065
3268,-0.025,0.065
3269,-0.025,0.070
3270,-0.025,0.075
3271,-0.010,0.080
3272,-0.005,0.085
3273,-0.005,0.085
3274,-0.005,0.085
3275,0.000,0.090
3276,0.005,0.095
3277,0.005,0.100
3278,0.010,0.105
3279,0.020,0.105
3280,0.020,0.105
3281,0.010,0.105
3282,0.015,0.105
3283,0.030,0.110
3284,0.035,0.115
3285,0.040,0.120
3286,0.045,0.125
3287,0.050,0.130
3288,0.055,0.135
3289,0.060,0.140
3290,0.065,0.145
3291,0.065,0.145
3292,0.080,0.150
3293,0.095,0.155
3294,0.100,0.170
3295,0.105,0.185
3296,0.115,0.185
3297,0.125,0.185
3298,0.135,0.190
3299,0.145,0.195
3300,0.155,0.205
3301,0.165,0.215
3302,0.180,0.230
3303,0.195,0.245
3304,0.210,0.245
3305,0.225,0.245
3306,0.245,0.255
3307,0.260,0.270
3308,0.285,0.285
3309,0.305,0.300
3310,0.315,0.315
3311,0.335,0.325
3312,0.360,0.325
3313,0.380,0.330
3314,0.395,0.340
3315,0.415,0.350
3316,0.435,0.365
3317,0.445,0.375
3318,0.450,0.380
3319,0.460,0.385
3320,0.470,0.385
3321,0.475,0.385
3322,0.470,0.380
3323,0.465,0.375
3324,0.470,0.370
3325,0.455,0.360
3326,0.425,0.350
3327,0.385,0.320
3328,0.345,0.280
3329,0.300,0.235
3330,0.260,0.190
3331,0.210,0.160
3332,0.160,0.130
3333,0.115,0.095
3334,0.065,0.055
3335,0.030,0.025
3336,-0.005,-0.005
3337,-0.035,-0.035
3338,-0.065,-0.065
3339,-0.090,-0.080
3340,-0.115,-0.095
3341,-0.125,-0.095
3342,-0.135,-0.095
3343,-0.140,-0.110
3344,-0.145,-0.125
3345,-0.140,-0.125
3346,-0.135,-0.125
3347,-0.150,-0.130
3348,-0.165,-0.135
3349,-0.165,-0.130
3350,-0.165,-0.125
3351,-0.165,-0.135
3352,-0.165,-0.145
3353,-0.165,-0.150
3354,-0.165,-0.155
3355,-0.160,-0.150
3356,-0.155,-0.145
3357,-0.160,-0.140
3358,-0.165,-0.135
3359,-0.165,-0.135
3360,-0.165,-0.135
3361,-0.160,-0.135
3362,-0.155,-0.135
3363,-0.155,-0.135
3364,-0.155,-0.130
3365,-0.155,-0.120
3366,-0.155,-0.115
3367,-0.150,-0.120
3368,-0.145,-0.125
3369,-0.145,-0.130
3370,-0.145,-0.135
3371,-0.140,-0.130
3372,-0.135,-0.125
3373,-0.140,-0.120
3374,-0.145,-0.115
3375,-0.145,-0.115
3376,-0.135,-0.125
3377,-0.125,-0.125
3378,-0.130,-0.125
3379,-0.135,-0.125
3380,-0.135,-0.120
3381,-0.135,-0.115
3382,-0.135,-0.120
3383,-0.135,-0.125
3384,-0.140,-0.125
3385,-0.145,-0.125
3386,-0.140,-0.130
3387,-0.135,-0.135
3388,-0.135,-0.130
3389,-0.135,-0.125
3390,-0.145,-0.125
3391,-0.155,-0.125
3392,-0.145,-0.135
3393,-0.135,-0.145
3394,-0.145,-0.140
3395,-0.155,-0.135
3396,-0.150,-0.130
3397,-0.145,-0.130
3398,-0.150,-0.140
3399,-0.155,-0.145
3400,-0.160,-0.145
3401,-0.165,-0.145
3402,-0.160,-0.145
3403,-0.150,-0.145
3404,-0.140,-0.140
3405,-0.140,-0.135
3406,-0.150,-0.140
3407,-0.155,-0.145
3408,-0.150,-0.145
3409,-0.145,-0.145
3410,-0.145,-0.140
3411,-0.145,-0.135
3412,-0.145,-0.140
3413,-0.145,-0.145
3414,-0.145,-0.145
3415,-0.145,-0.145
3416,-0.150,-0.145
3417,-0.150,-0.145
3418,-0.145,-0.145
3419,-0.145,-0.140
3420,-0.145,-0.135
3421,-0.145,-0.140
3422,-0.145,-0.145
3423,-0.145,-0.145
3424,-0.145,-0.145
3425,-0.140,-0.145
3426,-0.135,-0.145
3427,-0.140,-0.140
3428,-0.145,-0.135
3429,-0.140,-0.140
3430,-0.135,-0.145
3431,-0.145,-0.145
3432,-0.155,-0.145
3433,-0.150,-0.140
3434,-0.145,-0.135
3435,-0.140,-0.140
3436,-0.135,-0.145
3437,-0.140,-0.140
3438,-0.145,-0.135
3439,-0.140,-0.140
3440,-0.135,-0.145
3441,-0.135,-0.140
3442,-0.135,-0.135
3443,-0.130,-0.135
3444,-0.125,-0.135
3445,-0.125,-0.135
3446,-0.125,-0.135
3447,-0.130,-0.140
3448,-0.135,-0.145
3449,-0.130,-0.140
3450,-0.125,-0.135
3451,-0.125,-0.135
3452,-0.125,-0.135
3453,-0.120,-0.135
3454,-0.115,-0.135
3455,-0.115,-0.140
3456,-0.115,-0.140
3457,-0.110,-0.130
3458,-0.105,-0.125
3459,-0.095,-0.115
3460,-0.085,-0.120
3461,-0.075,-0.125
3462,-0.055,-0.115
3463,-0.035,-0.105
3464,-0.025,-0.085
3465,-0.015,-0.065
3466,-0.015,-0.060
3467,-0.010,-0.055
3468,0.015,-0.060
3469,0.035,-0.065
3470,0.035,-0.070
3471,0.025,-0.075
3472,-0.020,-0.080
3473,-0.060,-0.090
3474,-0.080,-0.115
3475,-0.095,-0.135
3476,-0.100,-0.140
3477,-0.105,-0.145
3478,-0.095,-0.140
3479,-0.095,-0.135
3480,-0.120,-0.135
3481,-0.140,-0.135
3482,-0.150,-0.140
3483,-0.155,-0.150
3484,-0.160,-0.165
3485,-0.165,-0.175
3486,-0.160,-0.175
3487,-0.155,-0.175
3488,-0.150,-0.170
3489,-0.145,-0.160
3490,-0.140,-0.150
3491,-0.135,-0.145
3492,-0.130,-0.150
3493,-0.125,-0.155
3494,-0.120,-0.150
3495,-0.115,-0.145
3496,-0.110,-0.140
3497,-0.060,-0.100
3498,-0.010,-0.060
3499,0.105,0.045
3500,-0.005,-0.055
3501,0.470,0.330
3502,0.715,0.505
3503,0.965,0.430
3504,1.195,0.340
3505,1.145,0.035
3506,1.025,-0.245
3507,0.450,-0.415
3508,-0.100,-0.590
3509,-0.510,-0.795
3510,-0.830,-0.950
3511,-0.865,-0.920
3512,-0.860,-0.855
3513,-0.725,-0.695
3514,-0.600,-0.560
3515,-0.480,-0.470
3516,-0.360,-0.385
3517,-0.230,-0.300
3518,-0.140,-0.200
3519,-0.100,-0.095
3520,-0.070,-0.025
3521,-0.055,0.000
3522,-0.045,0.010
3523,-0.050,0.000
3524,-0.055,-0.005
3525,-0.055,-0.005
3526,-0.050,-0.005
3527,-0.040,-0.005
3528,-0.035,0.000
3529,-0.030,0.010
3530,-0.025,0.015
3531,-0.025,0.020
3532,-0.020,0.025
3533,-0.010,0.020
3534,-0.005,0.015
3535,-0.005,0.020
3536,-0.005,0.025
3537,0.000,0.030
3538,0.005,0.035
3539,0.005,0.035
3540,0.005,0.035
3541,0.005,0.040
3542,0.020,0.050
3543,0.035,0.055
3544,0.040,0.055
3545,0.045,0.055
3546,0.045,0.060
3547,0.045,0.065
3548,0.060,0.065
3549,0.075,0.065
3550,0.080,0.075
3551,0.085,0.085
3552,0.085,0.090
3553,0.085,0.095
3554,0.095,0.100
3555,0.105,0.105
3556,0.105,0.105
3557,0.110,0.105
3558,0.125,0.115
3559,0.140,0.130
3560,0.155,0.145
3561,0.170,0.155
3562,0.185,0.155
3563,0.200,0.160
3564,0.215,0.170
3565,0.235,0.180
3566,0.255,0.195
3567,0.270,0.210
3568,0.280,0.220
3569,0.300,0.230
3570,0.325,0.240
3571,0.345,0.245
3572,0.360,0.250
3573,0.380,0.255
3574,0.400,0.260
3575,0.415,0.275
3576,0.430,0.290
3577,0.440,0.295
3578,0.450,0.300
3579,0.465,0.305
3580,0.480,0.305
3581,0.485,0.305
3582,0.490,0.305
3583,0.495,0.305
3584,0.485,0.315
3585,0.465,0.290
3586,0.445,0.265
3587,0.410,0.240
3588,0.370,0.215
3589,0.320,0.185
3590,0.270,0.150
3591,0.225,0.110
3592,0.175,0.070
3593,0.125,0.030
3594,0.080,-0.010
3595,0.045,-0.040
3596,0.005,-0.070
3597,-0.030,-0.090
3598,-0.060,-0.110
3599,-0.075,-0.130
3600,-0.085,-0.150
3601,-0.095,-0.165
3602,-0.110,-0.175
3603,-0.125,-0.185
3604,-0.135,-0.195
3605,-0.135,-0.200
3606,-0.135,-0.205
3607,-0.140,-0.200
3608,-0.145,-0.195
3609,-0.150,-0.200
3610,-0.155,-0.205
3611,-0.150,-0.210
3612,-0.145,-0.215
3613,-0.150,-0.210
3614,-0.155,-0.205
3615,-0.155,-0.205
3616,-0.155,-0.205
3617,-0.155,-0.205
3618,-0.155,-0.205
3619,-0.160,-0.205
3620,-0.165,-0.205
3621,-0.160,-0.205
3622,-0.155,-0.205
3623,-0.155,-0.200
3624,-0.155,-0.195
3625,-0.155,-0.195
3626,-0.150,-0.195
3627,-0.145,-0.195
3628,-0.145,-0.190
3629,-0.145,-0.185
3630,-0.145,-0.180
3631,-0.145,-0.175
3632,-0.140,-0.180
3633,-0.135,-0.185
3634,-0.140,-0.190
3635,-0.145,-0.195
3636,-0.140,-0.190
3637,-0.135,-0.185
3638,-0.130,-0.175
3639,-0.125,-0.165
3640,-0.125,-0.170
3641,-0.125,-0.175
3642,-0.125,-0.180
3643,-0.125,-0.185
3644,-0.130,-0.180
3645,-0.135,-0.175
3646,-0.130,-0.180
3647,-0.125,-0.185
3648,-0.125,-0.180
3649,-0.125,-0.175
3650,-0.130,-0.180
3651,-0.135,-0.185
3652,-0.140,-0.185
3653,-0.145,-0.185
3654,-0.140,-0.180
3655,-0.135,-0.175
3656,-0.140,-0.180
3657,-0.140,-0.185
3658,-0.130,-0.190
3659,-0.125,-0.195
3660,-0.130,-0.195
3661,-0.135,-0.195
3662,-0.135,-0.190
3663,-0.135,-0.185
3664,-0.135,-0.185
3665,-0.135,-0.185
3666,-0.135,-0.190
3667,-0.130,-0.195
3668,-0.125,-0.195
3669,-0.125,-0.190
3670,-0.125,-0.185
3671,-0.130,-0.190
3672,-0.135,-0.195
3673,-0.130,-0.195
3674,-0.125,-0.195
3675,-0.125,-0.190
3676,-0.125,-0.185
3677,-0.130,-0.185
3678,-0.135,-0.185
3679,-0.130,-0.190
3680,-0.125,-0.195
3681,-0.135,-0.195
3682,-0.140,-0.195
3683,-0.125,-0.190
3684,-0.115,-0.185
3685,-0.120,-0.180
3686,-0.125,-0.175
3687,-0.125,-0.180
3688,-0.125,-0.185
3689,-0.120,-0.185
3690,-0.115,-0.185
3691,-0.120,-0.185
3692,-0.125,-0.185
3693,-0.120,-0.180
3694,-0.115,-0.175
3695,-0.115,-0.180
3696,-0.115,-0.185
3697,-0.120,-0.185
3698,-0.125,-0.185
3699,-0.120,-0.185
3700,-0.115,-0.185
3701,-0.115,-0.180
3702,-0.115,-0.175
3703,-0.115,-0.175
3704,-0.115,-0.175
3705,-0.110,-0.180
3706,-0.105,-0.185
3707,-0.110,-0.180
3708,-0.115,-0.175
3709,-0.105,-0.165
3710,-0.110,-0.170
3711,-0.115,-0.175
3712,-0.115,-0.175
3713,-0.115,-0.175
3714,-0.110,-0.175
3715,-0.105,-0.175
3716,-0.100,-0.170
3717,-0.095,-0.165
3718,-0.100,-0.165
3719,-0.105,-0.165
3720,-0.100,-0.170
3721,-0.095,-0.175
3722,-0.095,-0.175
3723,-0.095,-0.175
3724,-0.095,-0.165
3725,-0.095,-0.155
3726,-0.095,-0.160
3727,-0.095,-0.165
3728,-0.105,-0.165
3729,-0.115,-0.165
3730,-0.100,-0.165
3731,-0.095,-0.165
3732,-0.095,-0.160
3733,-0.095,-0.155
3734,-0.095,-0.160
3735,-0.095,-0.165
3736,-0.090,-0.165
3737,-0.085,-0.165
3738,-0.085,-0.160
3739,-0.085,-0.155
3740,-0.090,-0.155
3741,-0.095,-0.155
3742,-0.090,-0.155
3743,-0.090,-0.155
3744,-0.100,-0.155
3745,-0.100,-0.155
3746,-0.090,-0.160
3747,-0.085,-0.160
3748,-0.085,-0.150
3749,-0.085,-0.145
3750,-0.085,-0.145
3751,-0.070,-0.145
3752,-0.055,-0.145
3753,-0.055,-0.135
3754,-0.055,-0.125
3755,-0.040,-0.125
3756,-0.025,-0.125
3757,-0.005,-0.120
3758,0.015,-0.115
3759,0.020,-0.095
3760,0.025,-0.075
3761,0.025,-0.075
3762,0.030,-0.075
3763,0.050,-0.075
3764,0.060,-0.075
3765,0.045,-0.080
3766,0.025,-0.090
3767,-0.005,-0.105
3768,-0.030,-0.120
3769,-0.050,-0.140
3770,-0.065,-0.155
3771,-0.065,-0.150
3772,-0.065,-0.145
3773,-0.060,-0.140
3774,-0.065,-0.135
3775,-0.085,-0.135
3776,-0.100,-0.140
3777,-0.115,-0.150
3778,-0.125,-0.160
3779,-0.125,-0.170
3780,-0.125,-0.175
3781,-0.130,-0.175
3782,-0.125,-0.175
3783,-0.110,-0.175
3784,-0.105,-0.170
3785,-0.100,-0.160
3786,-0.090,-0.150
3787,-0.080,-0.140
3788,-0.075,-0.135
3789,-0.080,-0.140
3790,-0.050,-0.140
3791,-0.010,-0.130
3792,0.065,-0.015
3793,0.140,0.095
3794,0.370,0.255
3795,0.600,0.405
3796,0.815,0.435
3797,1.025,0.425
3798,1.220,0.100
3799,1.305,-0.210
3800,0.835,-0.435
3801,0.325,-0.645
3802,-0.330,-0.785
3803,-0.835,-0.905
3804,-0.910,-0.965
3805,-0.915,-0.950
3806,-0.750,-0.770
3807,-0.590,-0.615
3808,-0.440,-0.495
3809,-0.300,-0.380
3810,-0.180,-0.260
3811,-0.100,-0.155
3812,-0.065,-0.065
3813,-0.040,-0.010
3814,-0.030,0.005
3815,-0.025,0.015
3816,-0.030,0.020
3817,-0.030,0.025
3818,-0.020,0.025
3819,-0.015,0.025
3820,-0.015,0.025
3821,-0.015,0.025
3822,-0.015,0.025
3823,-0.010,0.030
3824,0.000,0.040
3825,0.005,0.050
3826,0.010,0.060
3827,0.015,0.060
3828,0.020,0.050
3829,0.025,0.050
3830,0.025,0.060
3831,0.025,0.065
3832,0.030,0.070
3833,0.035,0.075
3834,0.045,0.075
3835,0.045,0.080
3836,0.045,0.085
3837,0.050,0.085
3838,0.055,0.085
3839,0.060,0.090
3840,0.065,0.095
3841,0.075,0.100
3842,0.085,0.105
3843,0.080,0.110
3844,0.075,0.115
3845,0.090,0.120
3846,0.105,0.125
3847,0.105,0.130
3848,0.110,0.140
3849,0.125,0.155
3850,0.135,0.165
3851,0.135,0.165
3852,0.140,0.165
3853,0.160,0.170
3854,0.175,0.180
3855,0.190,0.195
3856,0.200,0.210
3857,0.215,0.225
3858,0.230,0.235
3859,0.245,0.240
3860,0.265,0.250
3861,0.285,0.260
3862,0.305,0.275
3863,0.325,0.290
3864,0.345,0.305
3865,0.360,0.320
3866,0.380,0.325
3867,0.410,0.330
3868,0.415,0.335
3869,0.420,0.340
3870,0.435,0.350
3871,0.450,0.360
3872,0.465,0.370
3873,0.480,0.380
3874,0.485,0.385
3875,0.485,0.385
3876,0.500,0.380
3877,0.505,0.375
3878,0.490,0.360
3879,0.475,0.345
3880,0.445,0.315
3881,0.410,0.285
3882,0.375,0.250
3883,0.335,0.220
3884,0.280,0.175
3885,0.225,0.125
3886,0.175,0.080
3887,0.125,0.040
3888,0.085,0.010
3889,0.045,-0.025
3890,0.010,-0.060
3891,-0.020,-0.090
3892,-0.050,-0.110
3893,-0.070,-0.130
3894,-0.090,-0.145
3895,-0.105,-0.155
3896,-0.110,-0.155
3897,-0.115,-0.160
3898,-0.120,-0.170
3899,-0.125,-0.180
3900,-0.130,-0.190
3901,-0.135,-0.195
3902,-0.140,-0.195
3903,-0.145,-0.195
3904,-0.145,-0.190
3905,-0.150,-0.185
3906,-0.160,-0.190
3907,-0.160,-0.195
3908,-0.150,-0.195
3909,-0.145,-0.195
3910,-0.150,-0.195
3911,-0.155,-0.195
3912,-0.155,-0.190
3913,-0.155,-0.185
3914,-0.150,-0.185
3915,-0.150,-0.185
3916,-0.160,-0.180
3917,-0.160,-0.180
3918,-0.155,-0.185
3919,-0.150,-0.175
3920,-0.145,-0.165
3921,-0.150,-0.170
3922,-0.155,-0.175
3923,-0.150,-0.170
3924,-0.145,-0.165
3925,-0.140,-0.165
3926,-0.135,-0.165
3927,-0.140,-0.160
3928,-0.145,-0.155
3929,-0.140,-0.155
3930,-0.135,-0.155
3931,-0.145,-0.155
3932,-0.155,-0.155
3933,-0.150,-0.155
3934,-0.145,-0.155
3935,-0.145,-0.150
3936,-0.145,-0.145
3937,-0.145,-0.150
3938,-0.145,-0.155
3939,-0.145,-0.160
3940,-0.145,-0.165
3941,-0.145,-0.160
3942,-0.145,-0.155
3943,-0.145,-0.160
3944,-0.145,-0.165
3945,-0.145,-0.165
3946,-0.150,-0.165
3947,-0.160,-0.170
3948,-0.165,-0.175
3949,-0.160,-0.175
3950,-0.155,-0.175
3951,-0.150,-0.170
3952,-0.145,-0.165
3953,-0.150,-0.170
3954,-0.155,-0.175
3955,-0.150,-0.175
3956,-0.145,-0.175
3957,-0.150,-0.175
3958,-0.155,-0.175
3959,-0.145,-0.175
3960,-0.150,-0.175
3961,-0.155,-0.175
3962,-0.155,-0.175
3963,-0.155,-0.175
3964,-0.155,-0.175
3965,-0.155,-0.175
3966,-0.150,-0.170
3967,-0.145,-0.165
3968,-0.155,-0.165
3969,-0.165,-0.165
3970,-0.155,-0.170
3971,-0.145,-0.175
3972,-0.145,-0.175
3973,-0.145,-0.175
3974,-0.145,-0.165
3975,-0.145,-0.155
3976,-0.145,-0.160
3977,-0.145,-0.165
3978,-0.155,-0.165
3979,-0.165,-0.165
3980,-0.150,-0.165
3981,-0.145,-0.165
3982,-0.145,-0.160
3983,-0.145,-0.155
3984,-0.150,-0.160
3985,-0.155,-0.165
3986,-0.150,-0.165
3987,-0.145,-0.165
3988,-0.145,-0.165
3989,-0.145,-0.165
3990,-0.145,-0.160
3991,-0.145,-0.155
3992,-0.140,-0.160
3993,-0.140,-0.165
3994,-0.150,-0.165
3995,-0.150,-0.165
3996,-0.140,-0.165
3997,-0.135,-0.165
3998,-0.140,-0.160
3999,-0.145,-0.155
4000,-0.145,-0.155
4001,-0.140,-0.160
4002,-0.135,-0.165
4003,-0.135,-0.155
4004,-0.135,-0.145
4005,-0.135,-0.145
4006,-0.135,-0.145
4007,-0.130,-0.145
4008,-0.125,-0.145
4009,-0.135,-0.155
4010,-0.145,-0.165
4011,-0.135,-0.160
4012,-0.125,-0.155
4013,-0.130,-0.150
4014,-0.135,-0.145
4015,-0.135,-0.145
4016,-0.135,-0.145
4017,-0.130,-0.150
4018,-0.125,-0.155
4019,-0.130,-0.155
4020,-0.135,-0.155
4021,-0.130,-0.140
4022,-0.125,-0.135
4023,-0.125,-0.140
4024,-0.125,-0.145
4025,-0.130,-0.145
4026,-0.135,-0.145
4027,-0.135,-0.145
4028,-0.135,-0.145
4029,-0.130,-0.140
4030,-0.125,-0.135
4031,-0.130,-0.140
4032,-0.130,-0.145
4033,-0.120,-0.140
4034,-0.115,-0.135
4035,-0.120,-0.135
4036,-0.125,-0.135
4037,-0.125,-0.135
4038,-0.125,-0.135
4039,-0.125,-0.135
4040,-0.125,-0.135
4041,-0.125,-0.140
4042,-0.125,-0.140
4043,-0.125,-0.135
4044,-0.120,-0.130
4045,-0.115,-0.125
4046,-0.120,-0.125
4047,-0.125,-0.125
4048,-0.120,-0.130
4049,-0.115,-0.135
4050,-0.115,-0.130
4051,-0.115,-0.125
4052,-0.105,-0.120
4053,-0.095,-0.115
4054,-0.090,-0.110
4055,-0.085,-0.105
4056,-0.085,-0.110
4057,-0.075,-0.110
4058,-0.045,-0.095
4059,-0.020,-0.075
4060,-0.005,-0.050
4061,0.000,-0.035
4062,-0.015,-0.040
4063,-0.015,-0.050
4064,0.010,-0.065
4065,0.025,-0.075
4066,0.025,-0.070
4067,0.005,-0.065
4068,-0.030,-0.065
4069,-0.060,-0.080
4070,-0.095,-0.115
4071,-0.105,-0.125
4072,-0.110,-0.130
4073,-0.105,-0.135
4074,-0.090,-0.130
4075,-0.095,-0.120
4076,-0.110,-0.110
4077,-0.135,-0.110
4078,-0.160,-0.120
4079,-0.165,-0.135
4080,-0.165,-0.150
4081,-0.165,-0.155
4082,-0.170,-0.155
4083,-0.170,-0.155
4084,-0.155,-0.145
4085,-0.150,-0.145
4086,-0.145,-0.145
4087,-0.140,-0.145
4088,-0.135,-0.145
4089,-0.130,-0.140
4090,-0.125,-0.135
4091,-0.100,-0.125
4092,-0.065,-0.100
4093,-0.010,-0.020
4094,0.085,0.080
4095,0.295,0.235
4096,0.510,0.375
4097,0.730,0.475
4098,0.955,0.445
4099,1.195,0.140
4100,1.210,-0.150
4101,0.855,-0.425
4102,0.355,-0.645
4103,-0.335,-0.790
4104,-0.770,-0.910
4105,-0.930,-1.015
4106,-0.940,-0.970
4107,-0.820,-0.785
4108,-0.690,-0.635
4109,-0.550,-0.515
4110,-0.410,-0.405
4111,-0.265,-0.310
4112,-0.175,-0.195
4113,-0.115,-0.070
4114,-0.090,-0.010
4115,-0.080,0.035
4116,-0.070,0.045
4117,-0.060,0.045
4118,-0.060,0.040
4119,-0.070,0.030
4120,-0.070,0.025
4121,-0.060,0.025
4122,-0.055,0.035
4123,-0.050,0.050
4124,-0.045,0.055
4125,-0.045,0.055
4126,-0.030,0.050
4127,-0.025,0.055
4128,-0.025,0.060
4129,-0.025,0.065
4130,-0.020,0.075
4131,-0.015,0.085
4132,-0.010,0.075
4133,-0.005,0.065
4134,-0.010,0.075
4135,-0.015,0.085
4136,-0.005,0.085
4137,0.005,0.085
4138,0.010,0.095
4139,0.015,0.105
4140,0.015,0.105
4141,0.015,0.105
4142,0.025,0.105
4143,0.035,0.105
4144,0.035,0.115
4145,0.035,0.125
4146,0.050,0.140
4147,0.055,0.145
4148,0.060,0.145
4149,0.065,0.145
4150,0.070,0.145
4151,0.080,0.150
4152,0.090,0.160
4153,0.105,0.175
4154,0.120,0.190
4155,0.125,0.195
4156,0.130,0.200
4157,0.150,0.210
4158,0.175,0.220
4159,0.190,0.235
4160,0.200,0.250
4161,0.225,0.265
4162,0.250,0.280
4163,0.265,0.290
4164,0.280,0.300
4165,0.295,0.305
4166,0.310,0.310
4167,0.340,0.330
4168,0.365,0.345
4169,0.375,0.360
4170,0.385,0.375
4171,0.395,0.380
4172,0.405,0.385
4173,0.425,0.385
4174,0.445,0.385
4175,0.455,0.390
4176,0.465,0.395
4177,0.465,0.400
4178,0.465,0.405
4179,0.460,0.395
4180,0.450,0.380
4181,0.415,0.355
4182,0.385,0.325
4183,0.355,0.295
4184,0.320,0.265
4185,0.275,0.225
4186,0.225,0.185
4187,0.175,0.135
4188,0.125,0.085
4189,0.085,0.045
4190,0.045,0.015
4191,0.005,-0.010
4192,-0.030,-0.040
4193,-0.055,-0.065
4194,-0.080,-0.085
4195,-0.105,-0.105
4196,-0.125,-0.120
4197,-0.140,-0.130
4198,-0.150,-0.140
4199,-0.160,-0.150
4200,-0.165,-0.155
4201,-0.165,-0.155
4202,-0.170,-0.155
4203,-0.180,-0.160
4204,-0.180,-0.165
4205,-0.170,-0.170
4206,-0.170,-0.175
4207,-0.180,-0.175
4208,-0.185,-0.175
4209,-0.185,-0.175
4210,-0.185,-0.180
4211,-0.185,-0.185
4212,-0.195,-0.185
4213,-0.205,-0.185
4214,-0.200,-0.180
4215,-0.195,-0.175
4216,-0.190,-0.165
4217,-0.185,-0.155
4218,-0.185,-0.160
4219,-0.185,-0.165
4220,-0.175,-0.165
4221,-0.165,-0.165
4222,-0.170,-0.160
4223,-0.175,-0.155
4224,-0.175,-0.150
4225,-0.175,-0.145
4226,-0.175,-0.145
4227,-0.175,-0.145
4228,-0.180,-0.150
4229,-0.185,-0.155
4230,-0.170,-0.150
4231,-0.165,-0.145
4232,-0.160,-0.145
4233,-0.155,-0.145
4234,-0.160,-0.145
4235,-0.165,-0.145
4236,-0.160,-0.145
4237,-0.155,-0.145
4238,-0.160,-0.145
4239,-0.165,-0.145
4240,-0.165,-0.140
4241,-0.165,-0.135
4242,-0.165,-0.140
4243,-0.170,-0.145
4244,-0.180,-0.150
4245,-0.185,-0.155
4246,-0.180,-0.155
4247,-0.175,-0.155
4248,-0.180,-0.150
4249,-0.185,-0.145
4250,-0.185,-0.145
4251,-0.170,-0.160
4252,-0.165,-0.165
4253,-0.175,-0.155
4254,-0.185,-0.145
4255,-0.180,-0.145
4256,-0.175,-0.145
4257,-0.170,-0.150
4258,-0.165,-0.155
4259,-0.170,-0.160
4260,-0.175,-0.165
4261,-0.180,-0.160
4262,-0.185,-0.155
4263,-0.180,-0.150
4264,-0.175,-0.145
4265,-0.180,-0.150
4266,-0.185,-0.155
4267,-0.175,-0.160
4268,-0.165,-0.165
4269,-0.170,-0.160
4270,-0.175,-0.155
4271,-0.170,-0.155
4272,-0.165,-0.155
4273,-0.170,-0.150
4274,-0.175,-0.145
4275,-0.175,-0.150
4276,-0.175,-0.155
4277,-0.175,-0.155
4278,-0.175,-0.155
4279,-0.170,-0.150
4280,-0.165,-0.145
4281,-0.170,-0.150
4282,-0.170,-0.155
4283,-0.160,-0.155
4284,-0.155,-0.155
4285,-0.160,-0.155
4286,-0.165,-0.155
4287,-0.165,-0.150
4288,-0.165,-0.145
4289,-0.170,-0.145
4290,-0.175,-0.145
4291,-0.175,-0.150
4292,-0.170,-0.150
4293,-0.165,-0.145
4294,-0.165,-0.140
4295,-0.165,-0.135
4296,-0.170,-0.140
4297,-0.175,-0.145
4298,-0.165,-0.145
4299,-0.155,-0.145
4300,-0.155,-0.145
4301,-0.155,-0.145
4302,-0.155,-0.140
4303,-0.155,-0.135
4304,-0.155,-0.140
4305,-0.155,-0.145
4306,-0.165,-0.145
4307,-0.175,-0.145
4308,-0.165,-0.145
4309,-0.155,-0.145
4310,-0.155,-0.140
4311,-0.155,-0.135
4312,-0.155,-0.135
4313,-0.155,-0.135
4314,-0.150,-0.135
4315,-0.145,-0.135
4316,-0.150,-0.135
4317,-0.155,-0.135
4318,-0.160,-0.130
4319,-0.165,-0.130
4320,-0.160,-0.140
4321,-0.155,-0.145
4322,-0.155,-0.140
4323,-0.150,-0.135
4324,-0.140,-0.135
4325,-0.135,-0.135
4326,-0.140,-0.130
4327,-0.145,-0.125
4328,-0.150,-0.130
4329,-0.155,-0.135
4330,-0.150,-0.135
4331,-0.145,-0.135
4332,-0.145,-0.135
4333,-0.145,-0.135
4334,-0.135,-0.125
4335,-0.135,-0.125
4336,-0.135,-0.125
4337,-0.140,-0.135
4338,-0.145,-0.145
4339,-0.140,-0.135
4340,-0.135,-0.125
4341,-0.135,-0.120
4342,-0.135,-0.115
4343,-0.135,-0.120
4344,-0.135,-0.125
4345,-0.130,-0.125
4346,-0.125,-0.125
4347,-0.125,-0.120
4348,-0.125,-0.115
4349,-0.115,-0.105
4350,-0.100,-0.095
4351,-0.085,-0.100
4352,-0.075,-0.105
4353,-0.065,-0.100
4354,-0.050,-0.085
4355,-0.035,-0.060
4356,-0.025,-0.045
4357,-0.030,-0.040
4358,-0.025,-0.035
4359,-0.005,-0.040
4360,0.005,-0.045
4361,0.005,-0.050
4362,-0.015,-0.055
4363,-0.050,-0.060
4364,-0.075,-0.080
4365,-0.100,-0.105
4366,-0.105,-0.115
4367,-0.105,-0.120
4368,-0.105,-0.125
4369,-0.110,-0.120
4370,-0.120,-0.115
4371,-0.130,-0.115
4372,-0.150,-0.115
4373,-0.170,-0.120
4374,-0.175,-0.135
4375,-0.175,-0.125
4376,-0.180,-0.155
4377,-0.175,-0.155
4378,-0.165,-0.150
4379,-0.155,-0.145
4380,-0.150,-0.140
4381,-0.145,-0.135
4382,-0.140,-0.130
4383,-0.135,-0.125
4384,-0.140,-0.130
4385,-0.140,-0.135
4386,-0.110,-0.125
4387,-0.075,-0.095
4388,-0.035,-0.005
4389,0.055,0.090
4390,0.235,0.195
4391,0.440,0.320
4392,0.675,0.480
4393,0.915,0.475
4394,1.155,0.230
4395,1.150,-0.025
4396,0.850,-0.285
4397,0.380,-0.495
4398,-0.255,-0.660
4399,-0.645,-0.820
4400,-0.845,-0.980
4401,-0.895,-0.950
4402,-0.845,-0.790
4403,-0.730,-0.650
4404,-0.580,-0.515
4405,-0.450,-0.415
4406,-0.330,-0.330
4407,-0.230,-0.225
4408,-0.145,-0.110
4409,-0.115,-0.045
4410,-0.100,0.015
4411,-0.090,0.030
4412,-0.080,0.040
4413,-0.075,0.040
4414,-0.080,0.030
4415,-0.085,0.025
4416,-0.080,0.025
4417,-0.070,0.030
4418,-0.065,0.035
4419,-0.065,0.045
4420,-0.065,0.055
4421,-0.060,0.050
4422,-0.055,0.045
4423,-0.050,0.050
4424,-0.045,0.055
4425,-0.035,0.055
4426,-0.025,0.055
4427,-0.030,0.065
4428,-0.035,0.075
4429,-0.030,0.075
4430,-0.025,0.075
4431,-0.025,0.070
4432,-0.020,0.065
4433,-0.005,0.070
4434,0.005,0.075
4435,0.010,0.085
4436,0.015,0.095
4437,0.015,0.095
4438,0.020,0.095
4439,0.035,0.095
4440,0.045,0.100
4441,0.045,0.110
4442,0.045,0.115
4443,0.045,0.120
4444,0.050,0.125
4445,0.060,0.130
4446,0.065,0.135
4447,0.070,0.140
4448,0.085,0.150
4449,0.100,0.160
4450,0.115,0.170
4451,0.130,0.180
4452,0.140,0.190
4453,0.150,0.200
4454,0.170,0.205
4455,0.190,0.210
4456,0.205,0.225
4457,0.220,0.240
4458,0.240,0.250
4459,0.265,0.265
4460,0.280,0.275
4461,0.295,0.285
4462,0.305,0.290
4463,0.315,0.295
4464,0.340,0.305
4465,0.365,0.315
4466,0.380,0.330
4467,0.395,0.345
4468,0.400,0.345
4469,0.410,0.345
4470,0.430,0.345
4471,0.445,0.345
4472,0.445,0.350
4473,0.445,0.355
4474,0.440,0.350
4475,0.430,0.340
4476,0.410,0.320
4477,0.375,0.295
4478,0.325,0.265
4479,0.280,0.230
4480,0.235,0.185
4481,0.195,0.145
4482,0.155,0.105
4483,0.105,0.065
4484,0.050,0.030
4485,0.010,-0.005
4486,-0.020,-0.040
4487,-0.050,-0.065
4488,-0.075,-0.080
4489,-0.100,-0.095
4490,-0.125,-0.110
4491,-0.145,-0.130
4492,-0.160,-0.150
4493,-0.175,-0.160
4494,-0.190,-0.170
4495,-0.195,-0.175
4496,-0.190,-0.175
4497,-0.185,-0.175
4498,-0.190,-0.170
4499,-0.195,-0.165
4500,-0.195,-0.165
4501,-0.200,-0.180
4502,-0.205,-0.185
4503,-0.210,-0.180
4504,-0.215,-0.175
4505,-0.210,-0.175
4506,-0.205,-0.175
4507,-0.205,-0.180
4508,-0.205,-0.185
4509,-0.210,-0.180
4510,-0.215,-0.175
4511,-0.205,-0.170
4512,-0.195,-0.165
4513,-0.195,-0.165
4514,-0.195,-0.165
4515,-0.195,-0.165
4516,-0.195,-0.165
4517,-0.195,-0.165
4518,-0.195,-0.165
4519,-0.200,-0.160
4520,-0.205,-0.155
4521,-0.190,-0.155
4522,-0.185,-0.155
4523,-0.185,-0.155
4524,-0.185,-0.155
4525,-0.185,-0.160
4526,-0.185,-0.165
4527,-0.185,-0.160
4528,-0.185,-0.155
4529,-0.190,-0.150
4530,-0.195,-0.145
4531,-0.200,-0.150
4532,-0.200,-0.155
4533,-0.190,-0.160
4534,-0.185,-0.165
4535,-0.185,-0.165
4536,-0.185,-0.165
4537,-0.185,-0.160
4538,-0.185,-0.155
4539,-0.185,-0.160
4540,-0.185,-0.165
4541,-0.190,-0.170
4542,-0.190,-0.170
4543,-0.185,-0.165
4544,-0.190,-0.160
4545,-0.195,-0.155
4546,-0.200,-0.165
4547,-0.205,-0.175
4548,-0.195,-0.180
4549,-0.185,-0.185
4550,-0.195,-0.180
4551,-0.205,-0.175
4552,-0.205,-0.175
4553,-0.205,-0.175
4554,-0.200,-0.175
4555,-0.195,-0.175
4556,-0.205,-0.180
4557,-0.215,-0.185
4558,-0.205,-0.185
4559,-0.195,-0.185
4560,-0.200,-0.180
4561,-0.205,-0.175
4562,-0.205,-0.180
4563,-0.205,-0.185
4564,-0.200,-0.190
4565,-0.195,-0.195
4566,-0.195,-0.190
4567,-0.195,-0.185
4568,-0.195,-0.180
4569,-0.195,-0.175
4570,-0.195,-0.180
4571,-0.195,-0.185
4572,-0.200,-0.190
4573,-0.205,-0.195
4574,-0.200,-0.190
4575,-0.195,-0.185
4576,-0.190,-0.180
4577,-0.185,-0.175
4578,-0.190,-0.180
4579,-0.195,-0.185
4580,-0.190,-0.185
4581,-0.185,-0.185
4582,-0.190,-0.180
4583,-0.195,-0.175
4584,-0.185,-0.175
4585,-0.190,-0.175
4586,-0.195,-0.175
4587,-0.195,-0.180
4588,-0.195,-0.185
4589,-0.195,-0.180
4590,-0.195,-0.175
4591,-0.195,-0.175
4592,-0.195,-0.175
4593,-0.195,-0.175
4594,-0.195,-0.175
4595,-0.185,-0.180
4596,-0.175,-0.185
4597,-0.180,-0.180
4598,-0.185,-0.175
4599,-0.185,-0.175
4600,-0.185,-0.175
4601,-0.185,-0.175
4602,-0.185,-0.175
4603,-0.190,-0.175
4604,-0.195,-0.175
4605,-0.180,-0.180
4606,-0.175,-0.180
4607,-0.175,-0.170
4608,-0.175,-0.165
4609,-0.175,-0.170
4610,-0.175,-0.175
4611,-0.170,-0.180
4612,-0.165,-0.180
4613,-0.170,-0.170
4614,-0.175,-0.165
4615,-0.175,-0.165
4616,-0.175,-0.165
4617,-0.170,-0.165
4618,-0.165,-0.165
4619,-0.170,-0.170
4620,-0.165,-0.170
4621,-0.150,-0.160
4622,-0.145,-0.155
4623,-0.140,-0.150
4624,-0.125,-0.145
4625,-0.135,-0.145
4626,-0.085,-0.125
4627,-0.065,-0.105
4628,-0.065,-0.095
4629,-0.065,-0.085
4630,-0.050,-0.090
4631,-0.035,-0.095
4632,-0.025,-0.095
4633,-0.015,-0.095
4634,-0.035,-0.100
4635,-0.060,-0.105
4636,-0.095,-0.120
4637,-0.125,-0.135
4638,-0.130,-0.150
4639,-0.135,-0.165
4640,-0.135,-0.160
4641,-0.135,-0.155
4642,-0.135,-0.155
4643,-0.145,-0.155
4644,-0.175,-0.155
4645,-0.195,-0.160
4646,-0.200,-0.175
4647,-0.205,-0.185
4648,-0.205,-0.185
4649,-0.205,-0.185
4650,-0.205,-0.190
4651,-0.205,-0.195
4652,-0.200,-0.190
4653,-0.190,-0.180
4654,-0.180,-0.170
4655,-0.175,-0.165
4656,-0.180,-0.165
4657,-0.180,-0.165
4658,-0.170,-0.165
4659,-0.140,-0.155
4660,-0.105,-0.140
4661,-0.040,-0.040
4662,0.025,0.080
4663,0.225,0.205
4664,0.440,0.335
4665,0.690,0.410
4666,0.940,0.480
4667,1.105,0.190
4668,1.250,-0.110
4669,0.660,-0.325
4670,0.075,-0.540
4671,-0.435,-0.765
4672,-0.890,-0.965
4673,-0.935,-0.935
4674,-0.955,-0.880
4675,-0.820,-0.725
4676,-0.690,-0.585
4677,-0.570,-0.495
4678,-0.445,-0.405
4679,-0.315,-0.315
4680,-0.215,-0.225
4681,-0.175,-0.125
4682,-0.140,-0.050
4683,-0.120,-0.025
4684,-0.105,-0.005
4685,-0.105,0.000
4686,-0.105,0.005
4687,-0.105,0.000
4688,-0.105,-0.005
4689,-0.100,-0.005
4690,-0.095,-0.005
4691,-0.090,0.000
4692,-0.085,0.010
4693,-0.080,0.020
4694,-0.070,0.025
4695,-0.060,0.020
4696,-0.055,0.015
4697,-0.060,0.015
4698,-0.065,0.020
4699,-0.060,0.030
4700,-0.055,0.035
4701,-0.050,0.040
4702,-0.045,0.045
4703,-0.045,0.045
4704,-0.035,0.045
4705,-0.020,0.045
4706,-0.015,0.050
4707,-0.020,0.060
4708,-0.015,0.065
4709,0.005,0.075
4710,0.005,0.075
4711,0.005,0.075
4712,0.010,0.080
4713,0.015,0.085
4714,0.025,0.090
4715,0.035,0.095
4716,0.040,0.105
4717,0.045,0.115
4718,0.050,0.115
4719,0.060,0.115
4720,0.080,0.120
4721,0.095,0.125
4722,0.100,0.140
4723,0.110,0.155
4724,0.125,0.165
4725,0.135,0.175
4726,0.145,0.180
4727,0.155,0.185
4728,0.165,0.190
4729,0.185,0.200
4730,0.210,0.215
4731,0.230,0.230
4732,0.245,0.245
4733,0.265,0.255
4734,0.285,0.260
4735,0.305,0.270
4736,0.325,0.280
4737,0.345,0.290
4738,0.365,0.300
4739,0.380,0.305
4740,0.390,0.310
4741,0.400,0.315
4742,0.410,0.315
4743,0.415,0.315
4744,0.415,0.315
4745,0.420,0.315
4746,0.430,0.310
4747,0.430,0.305
4748,0.420,0.305
4749,0.395,0.290
4750,0.415,0.305
4751,0.335,0.235
4752,0.305,0.205
4753,0.250,0.170
4754,0.195,0.135
4755,0.140,0.085
4756,0.090,0.045
4757,0.040,0.010
4758,-0.010,-0.020
4759,-0.045,-0.055
4760,-0.075,-0.085
4761,-0.100,-0.110
4762,-0.115,-0.125
4763,-0.130,-0.135
4764,-0.150,-0.145
4765,-0.170,-0.155
4766,-0.185,-0.165
4767,-0.185,-0.175
4768,-0.185,-0.185
4769,-0.190,-0.190
4770,-0.195,-0.195
4771,-0.200,-0.190
4772,-0.205,-0.185
4773,-0.210,-0.190
4774,-0.215,-0.195
4775,-0.215,-0.195
4776,-0.215,-0.195
4777,-0.220,-0.200
4778,-0.225,-0.205
4779,-0.220,-0.200
4780,-0.215,-0.195
4781,-0.215,-0.195
4782,-0.215,-0.195
4783,-0.220,-0.195
4784,-0.220,-0.195
4785,-0.210,-0.195
4786,-0.205,-0.195
4787,-0.210,-0.190
4788,-0.215,-0.185
4789,-0.215,-0.185
4790,-0.215,-0.185
4791,-0.210,-0.185
4792,-0.210,-0.185
4793,-0.215,-0.185
4794,-0.210,-0.180
4795,-0.205,-0.175
4796,-0.200,-0.170
4797,-0.195,-0.165
4798,-0.200,-0.170
4799,-0.205,-0.175
4800,-0.200,-0.175
4801,-0.195,-0.175
4802,-0.195,-0.170
4803,-0.195,-0.165
4804,-0.195,-0.165
4805,-0.195,-0.165
4806,-0.195,-0.165
4807,-0.195,-0.165
4808,-0.190,-0.170
4809,-0.185,-0.175
4810,-0.185,-0.170
4811,-0.185,-0.165
4812,-0.185,-0.165
4813,-0.185,-0.170
4814,-0.185,-0.180
4815,-0.185,-0.185
4816,-0.190,-0.180
4817,-0.195,-0.175
4818,-0.190,-0.175
4819,-0.185,-0.175
4820,-0.190,-0.175
4821,-0.195,-0.175
4822,-0.200,-0.180
4823,-0.205,-0.185
4824,-0.200,-0.190
4825,-0.195,-0.185
4826,-0.190,-0.170
4827,-0.185,-0.165
4828,-0.190,-0.170
4829,-0.190,-0.175
4830,-0.180,-0.180
4831,-0.180,-0.185
4832,-0.190,-0.180
4833,-0.195,-0.175
4834,-0.185,-0.175
4835,-0.185,-0.175
4836,-0.185,-0.175
4837,-0.195,-0.180
4838,-0.205,-0.185
4839,-0.200,-0.185
4840,-0.195,-0.185
4841,-0.185,-0.180
4842,-0.175,-0.175
4843,-0.175,-0.175
4844,-0.175,-0.175
4845,-0.170,-0.175
4846,-0.165,-0.175
4847,-0.170,-0.175
4848,-0.175,-0.175
4849,-0.175,-0.170
4850,-0.175,-0.165
4851,-0.175,-0.170
4852,-0.175,-0.175
4853,-0.180,-0.180
4854,-0.185,-0.185
4855,-0.170,-0.180
4856,-0.165,-0.170
4857,-0.165,-0.160
4858,-0.165,-0.155
4859,-0.170,-0.160
4860,-0.170,-0.165
4861,-0.160,-0.170
4862,-0.155,-0.175
4863,-0.155,-0.170
4864,-0.155,-0.165
4865,-0.160,-0.160
4866,-0.165,-0.155
4867,-0.160,-0.160
4868,-0.155,-0.165
4869,-0.160,-0.165
4870,-0.165,-0.165
4871,-0.160,-0.165
4872,-0.155,-0.165
4873,-0.155,-0.160
4874,-0.155,-0.155
4875,-0.155,-0.155
4876,-0.155,-0.160
4877,-0.145,-0.165
4878,-0.145,-0.160
4879,-0.145,-0.155
4880,-0.150,-0.150
4881,-0.155,-0.145
4882,-0.150,-0.150
4883,-0.145,-0.155
4884,-0.150,-0.160
4885,-0.155,-0.165
4886,-0.150,-0.160
4887,-0.145,-0.155
4888,-0.140,-0.145
4889,-0.135,-0.135
4890,-0.135,-0.140
4891,-0.135,-0.145
4892,-0.135,-0.145
4893,-0.135,-0.145
4894,-0.140,-0.145
4895,-0.145,-0.145
4896,-0.140,-0.145
4897,-0.135,-0.145
4898,-0.135,-0.145
4899,-0.135,-0.145
4900,-0.135,-0.145
4901,-0.135,-0.145
4902,-0.135,-0.140
4903,-0.135,-0.135
4904,-0.130,-0.130
4905,-0.125,-0.125
4906,-0.130,-0.130
4907,-0.130,-0.135
4908,-0.120,-0.135
4909,-0.115,-0.135
4910,-0.120,-0.135
4911,-0.125,-0.135
4912,-0.125,-0.130
4913,-0.125,-0.125
4914,-0.120,-0.130
4915,-0.115,-0.135
4916,-0.120,-0.135
4917,-0.120,-0.130
4918,-0.115,-0.125
4919,-0.115,-0.120
4920,-0.115,-0.115
4921,-0.120,-0.120
4922,-0.125,-0.125
4923,-0.115,-0.125
4924,-0.105,-0.125
4925,-0.095,-0.115
4926,-0.085,-0.105
4927,-0.090,-0.095
4928,-0.090,-0.085
4929,-0.070,-0.095
4930,-0.055,-0.105
4931,-0.035,-0.085
4932,-0.020,-0.070
4933,0.000,-0.050
4934,0.015,-0.035
4935,0.010,-0.035
4936,0.010,-0.035
4937,0.025,-0.040
4938,0.035,-0.050
4939,0.030,-0.060
4940,0.005,-0.065
4941,-0.035,-0.070
4942,-0.060,-0.085
4943,-0.075,-0.105
4944,-0.085,-0.115
4945,-0.085,-0.115
4946,-0.085,-0.115
4947,-0.085,-0.110
4948,-0.090,-0.105
4949,-0.100,-0.105
4950,-0.115,-0.110
4951,-0.130,-0.120
4952,-0.145,-0.130
4953,-0.160,-0.140
4954,-0.155,-0.145
4955,-0.140,-0.145
4956,-0.135,-0.145
4957,-0.135,-0.140
4958,-0.130,-0.135
4959,-0.115,-0.125
4960,-0.110,-0.125
4961,-0.105,-0.125
4962,-0.110,-0.120
4963,-0.110,-0.115
4964,-0.065,-0.105
4965,-0.020,-0.080
4966,0.045,0.040
4967,0.135,0.165
4968,0.345,0.325
4969,0.560,0.450
4970,0.785,0.470
4971,1.010,0.385
4972,1.230,0.050
4973,1.240,-0.255
4974,0.835,-0.490
4975,0.315,-0.685
4976,-0.375,-0.825
4977,-0.820,-0.925
4978,-0.955,-0.985
4979,-0.940,-0.920
4980,-0.760,-0.720
4981,-0.595,-0.560
4982,-0.440,-0.430
4983,-0.310,-0.310
4984,-0.190,-0.200
4985,-0.120,-0.100
4986,-0.075,-0.010
4987,-0.055,0.035
4988,-0.050,0.050
4989,-0.045,0.055
4990,-0.045,0.055
4991,-0.045,0.055
4992,-0.040,0.055
4993,-0.035,0.055
4994,-0.040,0.050
4995,-0.040,0.050
4996,-0.030,0.060
4997,-0.025,0.065
4998,-0.025,0.070
4999,-0.025,0.075
5000,-0.025,0.075
5001,-0.010,0.075
5002,-0.005,0.075
5003,0.000,0.080
5004,0.005,0.085
5005,0.010,0.095
5006,0.015,0.105
5007,0.015,0.105
5008,0.015,0.105
5009,0.015,0.105
5010,0.015,0.105
5011,0.025,0.110
5012,0.035,0.115
5013,0.040,0.125
5014,0.045,0.135
5015,0.045,0.135
5016,0.050,0.135
5017,0.070,0.140
5018,0.085,0.145
5019,0.080,0.145
5020,0.075,0.150
5021,0.090,0.165
5022,0.095,0.175
5023,0.100,0.180
5024,0.105,0.185
5025,0.110,0.190
5026,0.120,0.200
5027,0.135,0.210
5028,0.150,0.225
5029,0.160,0.240
5030,0.175,0.245
5031,0.190,0.250
5032,0.210,0.265
5033,0.235,0.280
5034,0.250,0.290
5035,0.260,0.300
5036,0.280,0.315
5037,0.300,0.330
5038,0.320,0.340
5039,0.340,0.350
5040,0.355,0.355
5041,0.370,0.360
5042,0.395,0.375
5043,0.415,0.385
5044,0.430,0.400
5045,0.445,0.415
5046,0.455,0.420
5047,0.465,0.425
5048,0.475,0.425
5049,0.485,0.425
5050,0.480,0.425
5051,0.475,0.425
5052,0.465,0.410
5053,0.450,0.390
5054,0.430,0.350
5055,0.400,0.315
5056,0.345,0.275
5057,0.295,0.235
5058,0.250,0.190
5059,0.210,0.155
5060,0.165,0.115
5061,0.120,0.080
5062,0.080,0.040
5063,0.040,0.005
5064,0.010,-0.020
5065,-0.020,-0.045
5066,-0.060,-0.065
5067,-0.080,-0.080
5068,-0.095,-0.090
5069,-0.110,-0.105
5070,-0.120,-0.125
5071,-0.130,-0.140
5072,-0.140,-0.150
5073,-0.145,-0.155
5074,-0.150,-0.155
5075,-0.155,-0.155
5076,-0.155,-0.150
5077,-0.160,-0.145
5078,-0.170,-0.150
5079,-0.175,-0.155
5080,-0.170,-0.160
5081,-0.165,-0.165
5082,-0.170,-0.160
5083,-0.175,-0.155
5084,-0.175,-0.145
5085,-0.175,-0.150
5086,-0.175,-0.155
5087,-0.175,-0.155
5088,-0.175,-0.155
5089,-0.175,-0.155
5090,-0.175,-0.155
5091,-0.170,-0.150
5092,-0.165,-0.145
5093,-0.165,-0.145
5094,-0.165,-0.145
5095,-0.160,-0.145
5096,-0.155,-0.145
5097,-0.160,-0.140
5098,-0.165,-0.135
5099,-0.155,-0.130
5100,-0.145,-0.125
5101,-0.145,-0.125
5102,-0.145,-0.125
5103,-0.150,-0.125
5104,-0.155,-0.125
5105,-0.150,-0.125
5106,-0.145,-0.125
5107,-0.145,-0.125
5108,-0.145,-0.125
5109,-0.150,-0.125
5110,-0.155,-0.125
5111,-0.150,-0.125
5112,-0.145,-0.125
5113,-0.150,-0.125
5114,-0.155,-0.125
5115,-0.155,-0.125
5116,-0.155,-0.125
5117,-0.155,-0.130
5118,-0.160,-0.135
5119,-0.170,-0.135
5120,-0.170,-0.135
5121,-0.160,-0.135
5122,-0.155,-0.130
5123,-0.160,-0.120
5124,-0.165,-0.120
5125,-0.165,-0.115
5126,-0.150,-0.135
5127,-0.145,-0.135
5128,-0.150,-0.135
5129,-0.155,-0.135
5130,-0.155,-0.135
5131,-0.155,-0.135
5132,-0.155,-0.135
5133,-0.155,-0.135
5134,-0.165,-0.135
5135,-0.175,-0.135
5136,-0.165,-0.135
5137,-0.155,-0.135
5138,-0.155,-0.130
5139,-0.155,-0.125
5140,-0.160,-0.130
5141,-0.160,-0.135
5142,-0.145,-0.135
5143,-0.135,-0.135
5144,-0.145,-0.130
5145,-0.155,-0.125
5146,-0.150,-0.125
5147,-0.145,-0.125
5148,-0.145,-0.125
5149,-0.145,-0.125
5150,-0.150,-0.130
5151,-0.155,-0.135
5152,-0.150,-0.130
5153,-0.145,-0.125
5154,-0.145,-0.120
5155,-0.145,-0.115
5156,-0.150,-0.120
5157,-0.150,-0.125
5158,-0.140,-0.130
5159,-0.135,-0.135
5160,-0.140,-0.130
5161,-0.145,-0.125
5162,-0.140,-0.120
5163,-0.135,-0.115
5164,-0.140,-0.120
5165,-0.145,-0.125
5166,-0.150,-0.125
5167,-0.145,-0.125
5168,-0.135,-0.125
5169,-0.135,-0.120
5170,-0.135,-0.115
5171,-0.140,-0.115
5172,-0.145,-0.115
5173,-0.140,-0.120
5174,-0.135,-0.125
5175,-0.130,-0.120
5176,-0.125,-0.115
5177,-0.130,-0.110
5178,-0.135,-0.105
5179,-0.130,-0.110
5180,-0.125,-0.115
5181,-0.135,-0.115
5182,-0.145,-0.115
5183,-0.140,-0.115
5184,-0.135,-0.115
5185,-0.135,-0.105
5186,-0.135,-0.095
5187,-0.130,-0.100
5188,-0.125,-0.105
5189,-0.125,-0.110
5190,-0.125,-0.115
5191,-0.125,-0.110
5192,-0.125,-0.105
5193,-0.125,-0.100
5194,-0.125,-0.095
5195,-0.120,-0.100
5196,-0.120,-0.105
5197,-0.130,-0.110
5198,-0.135,-0.115
5199,-0.130,-0.110
5200,-0.125,-0.105
5201,-0.120,-0.100
5202,-0.120,-0.095
5203,-0.130,-0.100
5204,-0.125,-0.105
5205,-0.110,-0.105
5206,-0.105,-0.105
5207,-0.105,-0.100
5208,-0.105,-0.095
5209,-0.115,-0.095
5210,-0.115,-0.100
5211,-0.115,-0.105
5212,-0.115,-0.110
5213,-0.115,-0.115
5214,-0.115,-0.105
5215,-0.115,-0.095
5216,-0.110,-0.090
5217,-0.105,-0.085
5218,-0.110,-0.090
5219,-0.115,-0.095
5220,-0.105,-0.100
5221,-0.095,-0.105
5222,-0.100,-0.100
5223,-0.105,-0.095
5224,-0.105,-0.085
5225,-0.105,-0.075
5226,-0.100,-0.085
5227,-0.095,-0.095
5228,-0.105,-0.095
5229,-0.115,-0.095
5230,-0.110,-0.095
5231,-0.105,-0.090
5232,-0.100,-0.080
5233,-0.095,-0.075
5234,-0.100,-0.080
5235,-0.105,-0.085
5236,-0.100,-0.090
5237,-0.095,-0.095
5238,-0.095,-0.090
5239,-0.095,-0.085
5240,-0.100,-0.085
5241,-0.095,-0.085
5242,-0.080,-0.080
5243,-0.075,-0.075
5244,-0.080,-0.070
5245,-0.065,-0.065
5246,-0.040,-0.065
5247,-0.020,-0.050
5248,0.000,-0.030
5249,0.005,-0.020
5250,0.005,-0.025
5251,0.020,-0.005
5252,0.025,-0.005
5253,0.035,-0.010
5254,0.045,-0.015
5255,0.040,-0.015
5256,0.030,-0.015
5257,-0.005,-0.025
5258,-0.040,-0.040
5259,-0.070,-0.070
5260,-0.095,-0.095
5261,-0.085,-0.090
5262,-0.075,-0.085
5263,-0.070,-0.075
5264,-0.070,-0.065
5265,-0.090,-0.070
5266,-0.110,-0.080
5267,-0.125,-0.095
5268,-0.135,-0.105
5269,-0.140,-0.110
5270,-0.145,-0.115
5271,-0.145,-0.115
5272,-0.140,-0.115
5273,-0.130,-0.110
5274,-0.125,-0.105
5275,-0.120,-0.105
5276,-0.115,-0.105
5277,-0.110,-0.105
5278,-0.105,-0.095
5279,-0.105,-0.080
5280,-0.080,-0.075
5281,-0.045,-0.070
5282,0.010,0.010
5283,0.080,0.110
5284,0.265,0.260
5285,0.480,0.420
5286,0.705,0.480
5287,0.935,0.525
5288,1.120,0.215
5289,1.300,-0.150
5290,0.810,-0.405
5291,0.265,-0.650
5292,-0.310,-0.820
5293,-0.875,-0.985
5294,-0.920,-0.960
5295,-0.955,-0.925
5296,-0.795,-0.745
5297,-0.640,-0.575
5298,-0.500,-0.460
5299,-0.365,-0.350
5300,-0.250,-0.240
5301,-0.145,-0.135
5302,-0.100,-0.035
5303,-0.065,0.045
5304,-0.055,0.060
5305,-0.045,0.075
5306,-0.050,0.075
5307,-0.055,0.075
5308,-0.050,0.070
5309,-0.045,0.065
5310,-0.040,0.075
5311,-0.035,0.085
5312,-0.030,0.090
5313,-0.025,0.095
5314,-0.020,0.090
5315,-0.015,0.090
5316,-0.010,0.100
5317,-0.005,0.105
5318,0.000,0.110
5319,0.005,0.115
5320,0.005,0.115
5321,0.005,0.115
5322,0.005,0.110
5323,0.005,0.110
5324,0.010,0.120
5325,0.025,0.125
5326,0.040,0.130
5327,0.045,0.135
5328,0.040,0.140
5329,0.045,0.145
5330,0.060,0.140
5331,0.065,0.140
5332,0.060,0.150
5333,0.060,0.155
5334,0.075,0.165
5335,0.075,0.170
5336,0.075,0.175
5337,0.075,0.180
5338,0.075,0.185
5339,0.090,0.185
5340,0.105,0.185
5341,0.115,0.200
5342,0.125,0.215
5343,0.135,0.220
5344,0.145,0.225
5345,0.160,0.235
5346,0.175,0.245
5347,0.180,0.245
5348,0.190,0.250
5349,0.210,0.275
5350,0.225,0.295
5351,0.235,0.300
5352,0.250,0.305
5353,0.265,0.315
5354,0.285,0.325
5355,0.310,0.340
5356,0.335,0.350
5357,0.355,0.365
5358,0.375,0.380
5359,0.395,0.390
5360,0.410,0.395
5361,0.425,0.400
5362,0.445,0.410
5363,0.460,0.420
5364,0.465,0.430
5365,0.470,0.440
5366,0.480,0.445
5367,0.490,0.440
5368,0.490,0.435
5369,0.480,0.430
5370,0.465,0.410
5371,0.450,0.390
5372,0.425,0.370
5373,0.400,0.350
5374,0.355,0.310
5375,0.395,0.345
5376,0.260,0.215
5377,0.215,0.165
5378,0.165,0.125
5379,0.115,0.085
5380,0.065,0.045
5381,0.020,0.005
5382,-0.015,-0.020
5383,-0.045,-0.045
5384,-0.075,-0.065
5385,-0.095,-0.085
5386,-0.105,-0.110
5387,-0.115,-0.125
5388,-0.120,-0.125
5389,-0.125,-0.125
5390,-0.135,-0.130
5391,-0.145,-0.135
5392,-0.140,-0.140
5393,-0.135,-0.145
5394,-0.140,-0.150
5395,-0.145,-0.155
5396,-0.150,-0.150
5397,-0.155,-0.145
5398,-0.155,-0.145
5399,-0.160,-0.145
5400,-0.170,-0.150
5401,-0.175,-0.155
5402,-0.170,-0.160
5403,-0.165,-0.160
5404,-0.165,-0.150
5405,-0.165,-0.145
5406,-0.160,-0.145
5407,-0.155,-0.145
5408,-0.150,-0.145
5409,-0.145,-0.145
5410,-0.145,-0.140
5411,-0.145,-0.135
5412,-0.145,-0.135
5413,-0.145,-0.135
5414,-0.145,-0.135
5415,-0.150,-0.135
5416,-0.160,-0.130
5417,-0.155,-0.130
5418,-0.145,-0.135
5419,-0.140,-0.130
5420,-0.135,-0.125
5421,-0.135,-0.130
5422,-0.135,-0.135
5423,-0.135,-0.140
5424,-0.135,-0.145
5425,-0.135,-0.140
5426,-0.135,-0.135
5427,-0.135,-0.130
5428,-0.135,-0.125
5429,-0.135,-0.130
5430,-0.135,-0.135
5431,-0.145,-0.135
5432,-0.155,-0.135
5433,-0.150,-0.140
5434,-0.145,-0.145
5435,-0.140,-0.135
5436,-0.135,-0.125
5437,-0.140,-0.130
5438,-0.145,-0.135
5439,-0.140,-0.140
5440,-0.135,-0.145
5441,-0.135,-0.140
5442,-0.135,-0.135
5443,-0.140,-0.135
5444,-0.145,-0.135
5445,-0.145,-0.140
5446,-0.150,-0.145
5447,-0.160,-0.150
5448,-0.155,-0.155
5449,-0.140,-0.150
5450,-0.135,-0.145
5451,-0.140,-0.145
5452,-0.145,-0.145
5453,-0.150,-0.145
5454,-0.150,-0.145
5455,-0.140,-0.145
5456,-0.135,-0.145
5457,-0.140,-0.145
5458,-0.145,-0.145
5459,-0.145,-0.145
5460,-0.140,-0.140
5461,-0.135,-0.135
5462,-0.140,-0.145
5463,-0.145,-0.155
5464,-0.140,-0.150
5465,-0.135,-0.145
5466,-0.135,-0.140
5467,-0.135,-0.135
5468,-0.135,-0.135
5469,-0.135,-0.135
5470,-0.135,-0.140
5471,-0.135,-0.145
5472,-0.140,-0.140
5473,-0.145,-0.135
5474,-0.140,-0.135
5475,-0.135,-0.135
5476,-0.130,-0.140
5477,-0.125,-0.145
5478,-0.130,-0.145
5479,-0.135,-0.145
5480,-0.135,-0.140
5481,-0.135,-0.135
5482,-0.135,-0.135
5483,-0.135,-0.135
5484,-0.135,-0.135
5485,-0.135,-0.135
5486,-0.130,-0.135
5487,-0.125,-0.135
5488,-0.125,-0.135
5489,-0.125,-0.135
5490,-0.125,-0.130
5491,-0.125,-0.125
5492,-0.125,-0.130
5493,-0.125,-0.135
5494,-0.130,-0.140
5495,-0.135,-0.145
5496,-0.135,-0.140
5497,-0.135,-0.135
5498,-0.130,-0.130
5499,-0.125,-0.125
5500,-0.125,-0.125
5501,-0.120,-0.140
5502,-0.115,-0.145
5503,-0.115,-0.140
5504,-0.115,-0.135
5505,-0.120,-0.130
5506,-0.125,-0.125
5507,-0.120,-0.130
5508,-0.115,-0.135
5509,-0.120,-0.135
5510,-0.125,-0.135
5511,-0.120,-0.130
5512,-0.115,-0.125
5513,-0.115,-0.120
5514,-0.115,-0.115
5515,-0.120,-0.125
5516,-0.125,-0.135
5517,-0.120,-0.135
5518,-0.115,-0.135
5519,-0.115,-0.130
5520,-0.115,-0.125
5521,-0.110,-0.125
5522,-0.105,-0.125
5523,-0.105,-0.125
5524,-0.105,-0.125
5525,-0.105,-0.125
5526,-0.105,-0.125
5527,-0.105,-0.125
5528,-0.105,-0.125
5529,-0.100,-0.120
5530,-0.095,-0.115
5531,-0.100,-0.120
5532,-0.105,-0.125
5533,-0.100,-0.130
5534,-0.095,-0.130
5535,-0.095,-0.120
5536,-0.095,-0.115
5537,-0.095,-0.115
5538,-0.095,-0.115
5539,-0.095,-0.115
5540,-0.095,-0.115
5541,-0.095,-0.115
5542,-0.085,-0.105
5543,-0.075,-0.095
5544,-0.065,-0.095
5545,-0.055,-0.095
5546,-0.030,-0.090
5547,-0.005,-0.085
5548,0.015,-0.065
5549,0.035,-0.045
5550,0.025,-0.040
5551,0.015,-0.035
5552,0.035,-0.040
5553,0.055,-0.045
5554,0.055,-0.045
5555,0.040,-0.045
5556,-0.015,-0.055
5557,-0.055,-0.075
5558,-0.060,-0.105
5559,-0.065,-0.125
5560,-0.065,-0.115
5561,-0.065,-0.105
5562,-0.065,-0.105
5563,-0.065,-0.105
5564,-0.070,-0.110
5565,-0.085,-0.115
5566,-0.105,-0.120
5567,-0.115,-0.125
5568,-0.120,-0.130
5569,-0.125,-0.135
5570,-0.130,-0.140
5571,-0.135,-0.145
5572,-0.135,-0.145
5573,-0.125,-0.145
5574,-0.110,-0.140
5575,-0.100,-0.130
5576,-0.090,-0.120
5577,-0.085,-0.115
5578,-0.090,-0.115
5579,-0.080,-0.115
5580,-0.060,-0.115
5581,-0.015,-0.055
5582,0.030,0.010
5583,0.180,0.120
5584,0.335,0.235
5585,0.555,0.415
5586,0.780,0.575
5587,1.035,0.405
5588,1.250,0.215
5589,1.095,-0.090
5590,0.870,-0.365
5591,0.250,-0.495
5592,-0.300,-0.645
5593,-0.585,-0.845
5594,-0.805,-0.975
5595,-0.810,-0.875
5596,-0.780,-0.765
5597,-0.645,-0.630
5598,-0.510,-0.505
5599,-0.380,-0.405
5600,-0.260,-0.305
5601,-0.160,-0.200
5602,-0.095,-0.100
5603,-0.070,-0.020
5604,-0.055,0.025
5605,-0.040,0.030
5606,-0.035,0.035
5607,-0.030,0.040
5608,-0.025,0.045
5609,-0.025,0.045
5610,-0.025,0.045
5611,-0.020,0.045
5612,-0.015,0.045
5613,-0.010,0.050
5614,-0.005,0.055
5615,-0.005,0.060
5616,0.000,0.065
5617,0.010,0.065
5618,0.015,0.065
5619,0.010,0.065
5620,0.015,0.065
5621,0.030,0.065
5622,0.035,0.070
5623,0.035,0.080
5624,0.035,0.085
5625,0.035,0.085
5626,0.050,0.085
5627,0.055,0.085
5628,0.060,0.095
5629,0.065,0.105
5630,0.065,0.110
5631,0.065,0.115
5632,0.075,0.120
5633,0.085,0.125
5634,0.090,0.120
5635,0.095,0.115
5636,0.110,0.125
5637,0.125,0.135
5638,0.130,0.145
5639,0.135,0.155
5640,0.135,0.160
5641,0.135,0.165
5642,0.145,0.170
5643,0.160,0.175
5644,0.175,0.185
5645,0.190,0.200
5646,0.215,0.215
5647,0.230,0.225
5648,0.245,0.230
5649,0.260,0.240
5650,0.275,0.255
5651,0.290,0.270
5652,0.305,0.280
5653,0.325,0.295
5654,0.345,0.315
5655,0.365,0.325
5656,0.385,0.325
5657,0.410,0.325
5658,0.435,0.330
5659,0.445,0.340
5660,0.450,0.350
5661,0.470,0.355
5662,0.490,0.360
5663,0.495,0.365
5664,0.495,0.370
5665,0.495,0.375
5666,0.495,0.375
5667,0.490,0.360
5668,0.485,0.345
5669,0.465,0.335
5670,0.445,0.325
5671,0.390,0.285
5672,0.340,0.240
5673,0.290,0.200
5674,0.240,0.160
5675,0.185,0.120
5676,0.140,0.080
5677,0.100,0.050
5678,0.060,0.020
5679,0.030,-0.010
5680,0.000,-0.040
5681,-0.035,-0.065
5682,-0.055,-0.085
5683,-0.065,-0.095
5684,-0.080,-0.105
5685,-0.095,-0.110
5686,-0.110,-0.115
5687,-0.125,-0.125
5688,-0.135,-0.135
5689,-0.130,-0.140
5690,-0.125,-0.145
5691,-0.130,-0.150
5692,-0.135,-0.155
5693,-0.140,-0.150
5694,-0.145,-0.145
5695,-0.140,-0.145
5696,-0.135,-0.150
5697,-0.140,-0.160
5698,-0.145,-0.160
5699,-0.145,-0.150
5700,-0.145,-0.145
5701,-0.140,-0.140
5702,-0.135,-0.135
5703,-0.140,-0.140
5704,-0.140,-0.145
5705,-0.130,-0.145
5706,-0.125,-0.145
5707,-0.130,-0.140
5708,-0.135,-0.135
5709,-0.125,-0.135
5710,-0.125,-0.135
5711,-0.125,-0.135
5712,-0.125,-0.135
5713,-0.125,-0.135
5714,-0.130,-0.130
5715,-0.135,-0.125
5716,-0.130,-0.125
5717,-0.125,-0.125
5718,-0.130,-0.125
5719,-0.135,-0.125
5720,-0.125,-0.125
5721,-0.115,-0.125
5722,-0.115,-0.125
5723,-0.115,-0.125
5724,-0.110,-0.125
5725,-0.105,-0.125
5726,-0.105,-0.125
5727,-0.105,-0.125
5728,-0.115,-0.130
5729,-0.125,-0.135
5730,-0.120,-0.130
5731,-0.115,-0.125
5732,-0.115,-0.120
5733,-0.120,-0.120
5734,-0.130,-0.130
5735,-0.130,-0.135
5736,-0.120,-0.140
5737,-0.115,-0.145
5738,-0.120,-0.140
5739,-0.125,-0.135
5740,-0.125,-0.140
5741,-0.125,-0.145
5742,-0.125,-0.145
5743,-0.125,-0.145
5744,-0.130,-0.145
5745,-0.135,-0.145
5746,-0.130,-0.145
5747,-0.125,-0.145
5748,-0.125,-0.140
5749,-0.125,-0.135
5750,-0.125,-0.135
5751,-0.125,-0.150
5752,-0.125,-0.155
5753,-0.125,-0.150
5754,-0.125,-0.145
5755,-0.125,-0.140
5756,-0.125,-0.135
5757,-0.120,-0.140
5758,-0.115,-0.145
5759,-0.125,-0.150
5760,-0.135,-0.155
5761,-0.125,-0.150
5762,-0.115,-0.145
5763,-0.115,-0.140
5764,-0.115,-0.135
5765,-0.120,-0.135
5766,-0.125,-0.135
5767,-0.120,-0.140
5768,-0.115,-0.145
5769,-0.115,-0.145
5770,-0.115,-0.145
5771,-0.115,-0.140
5772,-0.115,-0.135
5773,-0.120,-0.140
5774,-0.125,-0.145
5775,-0.125,-0.145
5776,-0.125,-0.145
5777,-0.125,-0.140
5778,-0.120,-0.135
5779,-0.110,-0.130
5780,-0.110,-0.125
5781,-0.120,-0.130
5782,-0.115,-0.135
5783,-0.100,-0.135
5784,-0.095,-0.135
5785,-0.100,-0.135
5786,-0.105,-0.135
5787,-0.105,-0.130
5788,-0.105,-0.125
5789,-0.105,-0.130
5790,-0.105,-0.135
5791,-0.110,-0.135
5792,-0.110,-0.135
5793,-0.105,-0.135
5794,-0.105,-0.130
5795,-0.105,-0.125
5796,-0.110,-0.125
5797,-0.115,-0.125
5798,-0.110,-0.130
5799,-0.105,-0.135
5800,-0.105,-0.130
5801,-0.105,-0.125
5802,-0.105,-0.125
5803,-0.105,-0.125
5804,-0.100,-0.130
5805,-0.095,-0.135
5806,-0.105,-0.135
5807,-0.115,-0.135
5808,-0.105,-0.135
5809,-0.095,-0.130
5810,-0.085,-0.115
5811,-0.075,-0.105
5812,-0.075,-0.100
5813,-0.070,-0.100
5814,-0.055,-0.110
5815,-0.040,-0.110
5816,-0.025,-0.095
5817,-0.005,-0.070
5818,0.015,-0.045
5819,0.020,-0.035
5820,0.010,-0.040
5821,0.015,-0.050
5822,0.030,-0.060
5823,0.035,-0.065
5824,0.035,-0.060
5825,0.010,-0.055
5826,-0.025,-0.060
5827,-0.055,-0.090
5828,-0.080,-0.120
5829,-0.080,-0.125
5830,-0.070,-0.130
5831,-0.065,-0.130
5832,-0.065,-0.120
5833,-0.080,-0.115
5834,-0.105,-0.105
5835,-0.125,-0.120
5836,-0.145,-0.135
5837,-0.150,-0.145
5838,-0.155,-0.155
5839,-0.150,-0.155
5840,-0.145,-0.155
5841,-0.135,-0.145
5842,-0.125,-0.135
5843,-0.125,-0.135
5844,-0.125,-0.135
5845,-0.110,-0.135
5846,-0.095,-0.135
5847,-0.100,-0.130
5848,-0.095,-0.125
5849,-0.065,-0.115
5850,-0.020,-0.075
5851,0.045,0.005
5852,0.170,0.110
5853,0.370,0.245
5854,0.595,0.380
5855,0.845,0.520
5856,1.075,0.445
5857,1.285,0.180
5858,1.130,-0.080
5859,0.705,-0.335
5860,0.155,-0.545
5861,-0.470,-0.725
5862,-0.760,-0.850
5863,-0.885,-0.945
5864,-0.855,-0.860
5865,-0.750,-0.695
5866,-0.620,-0.580
5867,-0.475,-0.475
5868,-0.350,-0.385
5869,-0.235,-0.300
5870,-0.160,-0.185
5871,-0.095,-0.070
5872,-0.075,-0.020
5873,-0.060,0.020
5874,-0.055,0.025
5875,-0.055,0.025
5876,-0.040,0.020
5877,-0.035,0.015
5878,-0.035,0.020
5879,-0.035,0.025
5880,-0.030,0.030
5881,-0.025,0.035
5882,-0.020,0.035
5883,-0.015,0.035
5884,-0.015,0.035
5885,-0.015,0.035
5886,-0.005,0.040
5887,0.005,0.045
5888,0.005,0.050
5889,0.005,0.055
5890,0.005,0.060
5891,0.005,0.065
5892,0.015,0.065
5893,0.025,0.065
5894,0.025,0.070
5895,0.025,0.075
5896,0.040,0.080
5897,0.045,0.085
5898,0.050,0.085
5899,0.055,0.085
5900,0.055,0.090
5901,0.055,0.095
5902,0.055,0.095
5903,0.065,0.105
5904,0.080,0.120
5905,0.085,0.125
5906,0.090,0.125
5907,0.105,0.125
5908,0.120,0.130
5909,0.125,0.135
5910,0.125,0.140
5911,0.135,0.150
5912,0.150,0.160
5913,0.160,0.170
5914,0.170,0.180
5915,0.185,0.185
5916,0.200,0.190
5917,0.220,0.205
5918,0.235,0.215
5919,0.250,0.235
5920,0.265,0.255
5921,0.285,0.260
5922,0.305,0.265
5923,0.330,0.275
5924,0.355,0.285
5925,0.365,0.295
5926,0.375,0.305
5927,0.390,0.315
5928,0.410,0.325
5929,0.430,0.325
5930,0.445,0.325
5931,0.450,0.325
5932,0.460,0.325
5933,0.475,0.335
5934,0.485,0.345
5935,0.485,0.350
5936,0.480,0.350
5937,0.465,0.335
5938,0.445,0.320
5939,0.425,0.305
5940,0.400,0.280
5941,0.360,0.250
5942,0.315,0.215
5943,0.260,0.180
5944,0.205,0.140
5945,0.155,0.090
5946,0.105,0.050
5947,0.060,0.010
5948,0.020,-0.020
5949,-0.015,-0.045
5950,-0.045,-0.070
5951,-0.070,-0.090
5952,-0.095,-0.105
5953,-0.120,-0.120
5954,-0.125,-0.140
5955,-0.125,-0.160
5956,-0.135,-0.165
5957,-0.150,-0.165
5958,-0.155,-0.165
5959,-0.155,-0.165
5960,-0.160,-0.175
5961,-0.165,-0.185
5962,-0.170,-0.190
5963,-0.175,-0.195
5964,-0.175,-0.195
5965,-0.175,-0.195
5966,-0.175,-0.190
5967,-0.175,-0.185
5968,-0.180,-0.185
5969,-0.185,-0.185
5970,-0.175,-0.190
5971,-0.165,-0.195
5972,-0.170,-0.190
5973,-0.175,-0.185
5974,-0.175,-0.180
5975,-0.175,-0.175
5976,-0.175,-0.180
5977,-0.175,-0.185
5978,-0.175,-0.180
5979,-0.175,-0.175
5980,-0.175,-0.180
5981,-0.170,-0.180
5982,-0.160,-0.170
5983,-0.160,-0.165
5984,-0.170,-0.165
5985,-0.170,-0.165
5986,-0.160,-0.170
5987,-0.155,-0.170
5988,-0.155,-0.160
5989,-0.155,-0.155
5990,-0.155,-0.155
5991,-0.155,-0.155
5992,-0.155,-0.160
5993,-0.155,-0.165
5994,-0.160,-0.165
5995,-0.160,-0.165
5996,-0.150,-0.165
5997,-0.145,-0.165
5998,-0.145,-0.160
5999,-0.145,-0.155
6000,-0.145,-0.155
6001,-0.150,-0.170
6002,-0.145,-0.175
6003,-0.150,-0.170
6004,-0.155,-0.165
6005,-0.155,-0.165
6006,-0.155,-0.165
6007,-0.155,-0.170
6008,-0.155,-0.175
6009,-0.160,-0.180
6010,-0.165,-0.185
6011,-0.160,-0.180
6012,-0.155,-0.175
6013,-0.155,-0.175
6014,-0.155,-0.175
6015,-0.155,-0.175
6016,-0.155,-0.175
6017,-0.150,-0.180
6018,-0.145,-0.185
6019,-0.145,-0.180
6020,-0.145,-0.175
6021,-0.150,-0.170
6022,-0.155,-0.165
6023,-0.155,-0.170
6024,-0.155,-0.175
6025,-0.150,-0.175
6026,-0.145,-0.175
6027,-0.145,-0.175
6028,-0.145,-0.175
6029,-0.145,-0.170
6030,-0.145,-0.165
6031,-0.145,-0.170
6032,-0.145,-0.175
6033,-0.140,-0.170
6034,-0.135,-0.165
6035,-0.140,-0.165
6036,-0.145,-0.165
6037,-0.140,-0.160
6038,-0.135,-0.155
6039,-0.140,-0.160
6040,-0.145,-0.165
6041,-0.145,-0.165
6042,-0.145,-0.165
6043,-0.145,-0.165
6044,-0.140,-0.160
6045,-0.135,-0.155
6046,-0.130,-0.155
6047,-0.125,-0.155
6048,-0.125,-0.155
6049,-0.125,-0.155
6050,-0.130,-0.160
6051,-0.135,-0.165
6052,-0.135,-0.160
6053,-0.135,-0.155
6054,-0.130,-0.155
6055,-0.125,-0.155
6056,-0.130,-0.155
6057,-0.135,-0.155
6058,-0.130,-0.155
6059,-0.125,-0.155
6060,-0.125,-0.150
6061,-0.125,-0.145
6062,-0.125,-0.150
6063,-0.125,-0.155
6064,-0.125,-0.155
6065,-0.125,-0.155
6066,-0.125,-0.155
6067,-0.125,-0.155
6068,-0.125,-0.150
6069,-0.125,-0.145
6070,-0.130,-0.145
6071,-0.135,-0.145
6072,-0.130,-0.150
6073,-0.125,-0.155
6074,-0.120,-0.150
6075,-0.115,-0.145
6076,-0.115,-0.140
6077,-0.115,-0.135
6078,-0.115,-0.140
6079,-0.115,-0.145
6080,-0.115,-0.145
6081,-0.115,-0.145
6082,-0.115,-0.145
6083,-0.115,-0.145
6084,-0.115,-0.135
6085,-0.115,-0.135
6086,-0.115,-0.135
6087,-0.115,-0.140
6088,-0.115,-0.145
6089,-0.110,-0.140
6090,-0.105,-0.135
6091,-0.100,-0.135
6092,-0.095,-0.135
6093,-0.100,-0.135
6094,-0.105,-0.135
6095,-0.105,-0.135
6096,-0.105,-0.135
6097,-0.110,-0.135
6098,-0.115,-0.135
6099,-0.110,-0.130
6100,-0.105,-0.125
6101,-0.105,-0.130
6102,-0.105,-0.135
6103,-0.105,-0.135
6104,-0.105,-0.135
6105,-0.105,-0.135
6106,-0.105,-0.130
6107,-0.100,-0.120
6108,-0.095,-0.115
6109,-0.100,-0.120
6110,-0.100,-0.125
6111,-0.090,-0.130
6112,-0.085,-0.130
6113,-0.080,-0.120
6114,-0.075,-0.110
6115,-0.075,-0.100
6116,-0.060,-0.095
6117,-0.040,-0.100
6118,-0.020,-0.105
6119,0.000,-0.100
6120,0.015,-0.080
6121,0.030,-0.060
6122,0.030,-0.055
6123,0.020,-0.050
6124,0.025,-0.050
6125,0.015,-0.045
6126,0.045,-0.070
6127,0.045,-0.075
6128,0.010,-0.075
6129,-0.025,-0.075
6130,-0.050,-0.100
6131,-0.075,-0.125
6132,-0.070,-0.130
6133,-0.065,-0.135
6134,-0.075,-0.130
6135,-0.085,-0.125
6136,-0.090,-0.120
6137,-0.095,-0.115
6138,-0.110,-0.120
6139,-0.125,-0.130
6140,-0.135,-0.145
6141,-0.145,-0.155
6142,-0.140,-0.155
6143,-0.135,-0.155
6144,-0.130,-0.150
6145,-0.125,-0.145
6146,-0.110,-0.140
6147,-0.105,-0.135
6148,-0.105,-0.135
6149,-0.105,-0.135
6150,-0.105,-0.135
6151,-0.090,-0.135
6152,-0.060,-0.130
6153,-0.005,-0.075
6154,0.065,0.010
6155,0.225,0.130
6156,0.425,0.270
6157,0.645,0.400
6158,0.875,0.525
6159,1.100,0.315
6160,1.325,0.005
6161,1.055,-0.265
6162,0.690,-0.535
6163,0.040,-0.680
6164,-0.640,-0.815
6165,-0.825,-0.940
6166,-0.980,-1.060
6167,-0.860,-0.895
6168,-0.735,-0.725
6169,-0.580,-0.585
6170,-0.425,-0.450
6171,-0.300,-0.360
6172,-0.180,-0.265
6173,-0.115,-0.145
6174,-0.055,-0.040
6175,-0.045,0.000
6176,-0.035,0.035
6177,-0.035,0.040
6178,-0.035,0.045
6179,-0.035,0.045
6180,-0.035,0.045
6181,-0.040,0.040
6182,-0.045,0.035
6183,-0.035,0.040
6184,-0.025,0.045
6185,-0.020,0.055
6186,-0.015,0.065
6187,-0.015,0.055
6188,-0.015,0.045
6189,-0.010,0.050
6190,-0.005,0.060
6191,0.000,0.070
6192,0.005,0.075
6193,0.010,0.080
6194,0.015,0.085
6195,0.020,0.085
6196,0.025,0.085
6197,0.025,0.085
6198,0.030,0.090
6199,0.040,0.100
6200,0.045,0.110
6201,0.050,0.120
6202,0.055,0.125
6203,0.060,0.120
6204,0.065,0.115
6205,0.070,0.120
6206,0.075,0.130
6207,0.080,0.140
6208,0.085,0.145
6209,0.095,0.155
6210,0.100,0.165
6211,0.105,0.175
6212,0.115,0.170
6213,0.125,0.165
6214,0.140,0.180
6215,0.155,0.195
6216,0.170,0.210
6217,0.185,0.225
6218,0.200,0.230
6219,0.220,0.235
6220,0.240,0.250
6221,0.255,0.265
6222,0.270,0.280
6223,0.290,0.295
6224,0.310,0.305
6225,0.330,0.315
6226,0.345,0.325
6227,0.360,0.335
6228,0.380,0.340
6229,0.400,0.345
6230,0.415,0.360
6231,0.430,0.370
6232,0.445,0.380
6233,0.460,0.385
6234,0.470,0.385
6235,0.480,0.390
6236,0.490,0.400
6237,0.490,0.405
6238,0.480,0.400
6239,0.475,0.390
6240,0.470,0.380
6241,0.430,0.350
6242,0.385,0.315
6243,0.345,0.265
6244,0.305,0.215
6245,0.250,0.170
6246,0.195,0.120
6247,0.150,0.085
6248,0.110,0.050
6249,0.080,0.015
6250,0.105,0.045
6251,0.010,-0.050
6252,-0.025,-0.075
6253,-0.050,-0.095
6254,-0.075,-0.115
6255,-0.090,-0.125
6256,-0.105,-0.135
6257,-0.115,-0.145
6258,-0.125,-0.155
6259,-0.135,-0.165
6260,-0.145,-0.175
6261,-0.140,-0.170
6262,-0.135,-0.165
6263,-0.140,-0.165
6264,-0.145,-0.165
6265,-0.150,-0.175
6266,-0.155,-0.185
6267,-0.155,-0.185
6268,-0.155,-0.185
6269,-0.155,-0.185
6270,-0.155,-0.185
6271,-0.155,-0.180
6272,-0.155,-0.175
6273,-0.155,-0.180
6274,-0.155,-0.185
6275,-0.160,-0.185
6276,-0.165,-0.185
6277,-0.160,-0.180
6278,-0.155,-0.175
6279,-0.155,-0.170
6280,-0.155,-0.165
6281,-0.160,-0.165
6282,-0.160,-0.165
6283,-0.150,-0.170
6284,-0.145,-0.175
6285,-0.150,-0.170
6286,-0.155,-0.165
6287,-0.150,-0.160
6288,-0.145,-0.155
6289,-0.145,-0.155
6290,-0.145,-0.155
6291,-0.150,-0.160
6292,-0.150,-0.160
6293,-0.145,-0.155
6294,-0.145,-0.155
6295,-0.145,-0.155
6296,-0.150,-0.160
6297,-0.155,-0.165
6298,-0.145,-0.160
6299,-0.135,-0.155
6300,-0.140,-0.160
6301,-0.145,-0.165
6302,-0.145,-0.165
6303,-0.145,-0.165
6304,-0.140,-0.165
6305,-0.135,-0.165
6306,-0.145,-0.170
6307,-0.155,-0.175
6308,-0.150,-0.170
6309,-0.145,-0.165
6310,-0.150,-0.165
6311,-0.155,-0.165
6312,-0.150,-0.165
6313,-0.145,-0.165
6314,-0.150,-0.170
6315,-0.155,-0.175
6316,-0.150,-0.175
6317,-0.145,-0.175
6318,-0.150,-0.170
6319,-0.155,-0.165
6320,-0.150,-0.165
6321,-0.145,-0.165
6322,-0.150,-0.170
6323,-0.155,-0.175
6324,-0.150,-0.175
6325,-0.145,-0.175
6326,-0.145,-0.170
6327,-0.145,-0.165
6328,-0.145,-0.170
6329,-0.145,-0.175
6330,-0.145,-0.175
6331,-0.145,-0.175
6332,-0.145,-0.170
6333,-0.145,-0.165
6334,-0.135,-0.165
6335,-0.140,-0.170
6336,-0.145,-0.175
6337,-0.145,-0.175
6338,-0.145,-0.175
6339,-0.140,-0.170
6340,-0.135,-0.165
6341,-0.135,-0.165
6342,-0.135,-0.165
6343,-0.135,-0.165
6344,-0.135,-0.165
6345,-0.135,-0.170
6346,-0.135,-0.175
6347,-0.140,-0.175
6348,-0.145,-0.175
6349,-0.140,-0.170
6350,-0.135,-0.165
6351,-0.135,-0.170
6352,-0.135,-0.175
6353,-0.135,-0.175
6354,-0.135,-0.175
6355,-0.135,-0.175
6356,-0.135,-0.170
6357,-0.135,-0.160
6358,-0.135,-0.155
6359,-0.130,-0.160
6360,-0.125,-0.165
6361,-0.125,-0.165
6362,-0.125,-0.165
6363,-0.125,-0.165
6364,-0.125,-0.165
6365,-0.125,-0.160
6366,-0.125,-0.155
6367,-0.125,-0.160
6368,-0.125,-0.165
6369,-0.130,-0.165
6370,-0.135,-0.165
6371,-0.130,-0.165
6372,-0.125,-0.165
6373,-0.125,-0.160
6374,-0.125,-0.155
6375,-0.125,-0.155
6376,-0.125,-0.165
6377,-0.125,-0.165
6378,-0.120,-0.160
6379,-0.115,-0.155
6380,-0.120,-0.155
6381,-0.125,-0.155
6382,-0.120,-0.160
6383,-0.115,-0.165
6384,-0.120,-0.165
6385,-0.125,-0.165
6386,-0.120,-0.160
6387,-0.115,-0.155
6388,-0.115,-0.150
6389,-0.115,-0.145
6390,-0.115,-0.150
6391,-0.115,-0.155
6392,-0.110,-0.160
6393,-0.105,-0.165
6394,-0.110,-0.155
6395,-0.115,-0.145
6396,-0.110,-0.145
6397,-0.105,-0.145
6398,-0.110,-0.150
6399,-0.115,-0.155
6400,-0.120,-0.160
6401,-0.125,-0.165
6402,-0.120,-0.160
6403,-0.115,-0.155
6404,-0.110,-0.150
6405,-0.105,-0.145
6406,-0.110,-0.150
6407,-0.115,-0.155
6408,-0.110,-0.155
6409,-0.105,-0.155
6410,-0.105,-0.150
6411,-0.105,-0.145
6412,-0.105,-0.145
6413,-0.105,-0.145
6414,-0.105,-0.150
6415,-0.105,-0.155
6416,-0.105,-0.155
6417,-0.100,-0.150
6418,-0.095,-0.145
6419,-0.085,-0.140
6420,-0.075,-0.135
6421,-0.075,-0.135
6422,-0.075,-0.135
6423,-0.055,-0.135
6424,-0.035,-0.135
6425,-0.020,-0.120
6426,-0.005,-0.100
6427,0.005,-0.075
6428,0.015,-0.055
6429,0.010,-0.065
6430,0.010,-0.075
6431,0.030,-0.080
6432,0.045,-0.085
6433,0.040,-0.085
6434,0.020,-0.085
6435,-0.025,-0.090
6436,-0.060,-0.105
6437,-0.075,-0.135
6438,-0.085,-0.155
6439,-0.085,-0.155
6440,-0.085,-0.150
6441,-0.085,-0.140
6442,-0.095,-0.135
6443,-0.115,-0.140
6444,-0.135,-0.150
6445,-0.155,-0.170
6446,-0.165,-0.180
6447,-0.165,-0.190
6448,-0.160,-0.195
6449,-0.150,-0.190
6450,-0.145,-0.180
6451,-0.140,-0.170
6452,-0.130,-0.165
6453,-0.120,-0.165
6454,-0.115,-0.165
6455,-0.110,-0.160
6456,-0.105,-0.155
6457,-0.110,-0.155
6458,-0.080,-0.150
6459,-0.035,-0.135
6460,0.020,-0.050
6461,0.085,0.040
6462,0.285,0.180
6463,0.485,0.315
6464,0.710,0.415
6465,0.935,0.460
6466,1.140,0.140
6467,1.210,-0.165
6468,0.735,-0.435
6469,0.225,-0.670
6470,-0.390,-0.830
6471,-0.845,-0.960
6472,-0.930,-1.015
6473,-0.930,-0.990
6474,-0.760,-0.805
6475,-0.605,-0.640
6476,-0.480,-0.525
6477,-0.355,-0.415
6478,-0.230,-0.320
6479,-0.145,-0.215
6480,-0.100,-0.100
6481,-0.070,-0.030
6482,-0.060,0.000
6483,-0.055,0.015
6484,-0.060,0.015
6485,-0.065,0.015
6486,-0.060,0.010
6487,-0.055,0.005
6488,-0.050,0.010
6489,-0.045,0.015
6490,-0.040,0.020
6491,-0.035,0.025
6492,-0.030,0.020
6493,-0.025,0.015
6494,-0.030,0.020
6495,-0.030,0.025
6496,-0.020,0.030
6497,-0.015,0.035
6498,-0.010,0.040
6499,-0.005,0.045
6500,-0.005,0.045
6501,0.000,0.045
6502,0.005,0.045
6503,0.010,0.050
6504,0.015,0.055
6505,0.015,0.065
6506,0.015,0.075
6507,0.025,0.075
6508,0.035,0.075
6509,0.035,0.070
6510,0.035,0.065
6511,0.045,0.080
6512,0.055,0.095
6513,0.060,0.100
6514,0.065,0.105
6515,0.070,0.110
6516,0.075,0.115
6517,0.085,0.115
6518,0.095,0.115
6519,0.100,0.125
6520,0.105,0.135
6521,0.120,0.140
6522,0.130,0.150
6523,0.145,0.160
6524,0.160,0.170
6525,0.170,0.180
6526,0.185,0.190
6527,0.205,0.205
6528,0.225,0.225
6529,0.245,0.240
6530,0.260,0.250
6531,0.270,0.260
6532,0.290,0.275
6533,0.315,0.290
6534,0.335,0.300
6535,0.350,0.310
6536,0.370,0.320
6537,0.390,0.330
6538,0.405,0.335
6539,0.420,0.340
6540,0.425,0.345
6541,0.430,0.345
6542,0.450,0.355
6543,0.465,0.365
6544,0.465,0.370
6545,0.465,0.375
6546,0.450,0.360
6547,0.435,0.345
6548,0.420,0.320
6549,0.400,0.290
6550,0.360,0.260
6551,0.315,0.230
6552,0.270,0.190
6553,0.220,0.145
