'sample interval','MLII','V2'
'0.004 sec','mV','mV'
0,4.745,5.170
1,4.745,5.170
2,4.745,5.170
3,4.745,5.170
4,4.745,5.170
5,4.735,5.170
6,4.735,5.155
7,4.740,5.170
8,4.760,5.185
9,4.755,5.165
10,4.755,5.165
11,4.755,5.170
12,4.765,5.190
13,4.775,5.190
14,4.775,5.175
15,4.780,5.195
16,4.795,5.210
17,4.810,5.205
18,4.815,5.210
19,4.810,5.210
20,4.835,5.235
21,4.870,5.245
22,4.870,5.240
23,4.885,5.255
24,4.910,5.270
25,4.925,5.280
26,4.960,5.295
27,4.980,5.295
28,5.005,5.335
29,5.050,5.350
30,5.075,5.360
31,5.095,5.375
32,5.120,5.395
33,5.165,5.420
34,5.185,5.430
35,5.195,5.440
36,5.215,5.465
37,5.235,5.470
38,5.255,5.475
39,5.265,5.470
40,5.270,5.480
41,5.285,5.510
42,5.295,5.515
43,5.300,5.495
44,5.285,5.490
45,5.285,5.500
46,5.270,5.495
47,5.250,5.475
48,5.205,5.465
49,5.195,5.455
50,5.190,5.450
51,5.130,5.395
52,5.080,5.375
53,5.050,5.360
54,5.030,5.330
55,4.995,5.300
56,4.965,5.275
57,4.945,5.255
58,4.925,5.250
59,4.910,5.230
60,4.900,5.205
61,4.880,5.195
62,4.880,5.200
63,4.875,5.185
64,4.855,5.160
65,4.855,5.165
66,4.860,5.185
67,4.860,5.170
68,4.850,5.155
69,4.845,5.150
70,4.850,5.160
71,4.855,5.165
72,4.850,5.150
73,4.840,5.135
74,4.840,5.145
75,4.845,5.155
76,4.865,5.165
77,4.855,5.150
78,4.860,5.165
79,4.880,5.180
80,4.870,5.165
81,4.870,5.165
82,4.880,5.175
83,4.890,5.190
84,4.895,5.190
85,4.880,5.170
86,4.880,5.180
87,4.900,5.185
88,4.900,5.190
89,4.895,5.180
90,4.880,5.185
91,4.905,5.210
92,4.900,5.190
93,4.890,5.180
94,4.885,5.175
95,4.895,5.185
96,4.905,5.200
97,4.885,5.195
98,4.870,5.180
99,4.875,5.180
100,4.880,5.185
101,4.880,5.170
102,4.870,5.165
103,4.865,5.170
104,4.870,5.175
105,4.865,5.160
106,4.850,5.145
107,4.855,5.140
108,4.860,5.155
109,4.855,5.145
110,4.840,5.140
111,4.830,5.130
112,4.835,5.145
113,4.830,5.125
114,4.830,5.110
115,4.820,5.110
116,4.820,5.125
117,4.820,5.120
118,4.815,5.105
119,4.800,5.100
120,4.805,5.110
121,4.820,5.110
122,4.810,5.090
123,4.795,5.090
124,4.795,5.100
125,4.800,5.105
126,4.805,5.085
127,4.795,5.075
128,4.800,5.085
129,4.820,5.090
130,4.845,5.090
131,4.840,5.075
132,4.855,5.095
133,4.870,5.105
134,4.875,5.100
135,4.885,5.085
136,4.875,5.100
137,4.890,5.115
138,4.905,5.105
139,4.905,5.090
140,4.895,5.095
141,4.910,5.110
142,4.915,5.100
143,4.905,5.090
144,4.875,5.080
145,4.865,5.080
146,4.860,5.060
147,4.850,5.040
148,4.850,5.020
149,4.865,5.045
150,4.870,5.065
151,4.845,5.085
152,4.810,5.080
153,4.800,5.095
154,4.795,5.090
155,4.780,5.070
156,4.750,5.050
157,4.735,5.060
158,4.740,5.070
159,4.730,5.060
160,4.710,5.045
161,4.715,5.040
162,4.715,5.055
163,4.725,5.045
164,4.715,5.040
165,4.705,5.045
166,4.720,5.060
167,4.720,5.060
168,4.720,5.055
169,4.710,5.055
170,4.715,5.065
171,4.715,5.070
172,4.705,5.050
173,4.675,5.050
174,4.610,5.065
175,4.580,5.065
176,4.545,5.015
177,4.625,5.040
178,4.785,5.095
179,5.135,5.190
180,5.665,5.390
181,6.185,5.700
182,6.645,6.050
183,6.920,6.385
184,6.925,6.550
185,6.530,6.420
186,5.825,6.000
187,5.150,5.390
188,4.740,4.865
189,4.600,4.645
190,4.615,4.680
191,4.715,4.820
192,4.805,4.970
193,4.805,5.075
194,4.755,5.100
195,4.745,5.105
196,4.740,5.085
197,4.730,5.080
198,4.700,5.070
199,4.690,5.075
200,4.685,5.080
201,4.680,5.060
202,4.660,5.050
203,4.660,5.065
204,4.670,5.070
205,4.660,5.060
206,4.645,5.060
207,4.650,5.070
208,4.660,5.070
209,4.655,5.060
210,4.650,5.060
211,4.650,5.070
212,4.645,5.090
213,4.645,5.075
214,4.655,5.070
215,4.640,5.075
216,4.660,5.095
217,4.670,5.095
218,4.665,5.080
219,4.655,5.080
220,4.685,5.090
221,4.685,5.100
222,4.685,5.100
223,4.680,5.100
224,4.700,5.120
225,4.710,5.125
226,4.730,5.120
227,4.720,5.115
228,4.735,5.130
229,4.765,5.155
230,4.780,5.155
231,4.780,5.145
232,4.800,5.175
233,4.835,5.190
234,4.855,5.180
235,4.870,5.195
236,4.905,5.225
237,4.940,5.260
238,4.975,5.265
239,4.990,5.275
240,5.010,5.290
241,5.050,5.320
242,5.080,5.325
243,5.090,5.335
244,5.120,5.350
245,5.150,5.380
246,5.180,5.395
247,5.175,5.385
248,5.190,5.395
249,5.215,5.410
250,5.225,5.420
251,5.230,5.420
252,5.220,5.420
253,5.220,5.425
254,5.215,5.425
255,5.200,5.405
256,5.170,5.390
257,5.150,5.380
258,5.125,5.375
259,5.095,5.345
260,5.045,5.320
261,5.010,5.295
262,4.985,5.285
263,4.950,5.245
264,4.905,5.220
265,4.875,5.195
266,4.860,5.190
267,4.850,5.160
268,4.820,5.135
269,4.805,5.115
270,4.800,5.125
271,4.810,5.115
272,4.785,5.095
273,4.775,5.085
274,4.780,5.095
275,4.790,5.105
276,4.785,5.075
277,4.775,5.060
278,4.775,5.070
279,4.775,5.080
280,4.775,5.075
281,4.770,5.060
282,4.770,5.065
283,4.790,5.075
284,4.790,5.070
285,4.790,5.070
286,4.790,5.075
287,4.800,5.095
288,4.805,5.080
289,4.800,5.075
290,4.795,5.070
291,4.810,5.105
292,4.820,5.115
293,4.815,5.085
294,4.800,5.095
295,4.810,5.095
296,4.825,5.095
297,4.825,5.100
298,4.805,5.100
299,4.815,5.110
300,4.825,5.110
301,4.820,5.100
302,4.810,5.095
303,4.810,5.100
304,4.820,5.105
305,4.820,5.095
306,4.800,5.080
307,4.790,5.100
308,4.805,5.090
309,4.810,5.085
310,4.795,5.070
311,4.785,5.075
312,4.795,5.085
313,4.790,5.075
314,4.790,5.055
315,4.775,5.055
316,4.775,5.065
317,4.780,5.060
318,4.775,5.050
319,4.765,5.045
320,4.770,5.045
321,4.775,5.040
322,4.775,5.025
323,4.745,5.015
324,4.755,5.025
325,4.760,5.035
326,4.755,5.020
327,4.745,5.010
328,4.735,5.005
329,4.745,5.015
330,4.745,5.005
331,4.730,5.005
332,4.740,5.005
333,4.740,5.015
334,4.745,5.005
335,4.730,4.990
336,4.720,4.990
337,4.745,5.005
338,4.740,5.000
339,4.735,4.985
340,4.725,4.980
341,4.725,5.000
342,4.735,5.000
343,4.740,4.990
344,4.735,4.980
345,4.755,4.990
346,4.765,4.995
347,4.785,4.995
348,4.805,4.990
349,4.810,5.000
350,4.810,5.010
351,4.805,4.990
352,4.815,4.995
353,4.835,5.005
354,4.850,5.010
355,4.860,4.990
356,4.850,4.985
357,4.855,5.000
358,4.870,5.010
359,4.860,5.000
360,4.840,4.985
361,4.810,4.970
362,4.810,4.970
363,4.805,4.950
364,4.810,4.935
365,4.805,4.960
366,4.820,5.005
367,4.795,5.010
368,4.770,5.005
369,4.745,5.005
370,4.740,5.005
371,4.730,5.000
372,4.715,4.980
373,4.700,4.975
374,4.690,4.970
375,4.695,4.975
376,4.680,4.960
377,4.670,4.955
378,4.670,4.965
379,4.680,4.965
380,4.680,4.965
381,4.670,4.965
382,4.665,4.975
383,4.670,4.980
384,4.675,4.975
385,4.670,4.960
386,4.665,4.960
387,4.685,4.980
388,4.680,4.975
389,4.655,4.970
390,4.575,4.970
391,4.500,4.950
392,4.505,4.935
393,4.580,4.955
394,4.725,5.000
395,5.100,5.115
396,5.665,5.355
397,6.235,5.680
398,6.680,6.045
399,6.920,6.375
400,6.960,6.455
401,6.235,6.130
402,5.390,5.475
403,4.790,4.860
404,4.590,4.575
405,4.585,4.580
406,4.665,4.735
407,4.765,4.920
408,4.765,5.015
409,4.730,5.015
410,4.705,4.990
411,4.705,4.990
412,4.710,5.000
413,4.675,4.990
414,4.645,4.970
415,4.625,4.960
416,4.635,4.980
417,4.635,4.970
418,4.615,4.970
419,4.605,4.965
420,4.615,4.975
421,4.625,4.980
422,4.625,4.980
423,4.610,4.975
424,4.620,4.990
425,4.625,5.000
426,4.625,4.985
427,4.615,4.970
428,4.620,4.990
429,4.635,5.005
430,4.630,5.015
431,4.635,5.000
432,4.650,5.005
433,4.650,5.020
434,4.655,5.015
435,4.655,5.010
436,4.670,5.020
437,4.690,5.045
438,4.710,5.035
439,4.710,5.035
440,4.715,5.050
441,4.740,5.080
442,4.770,5.075
443,4.785,5.085
444,4.800,5.095
445,4.840,5.135
446,4.855,5.135
447,4.885,5.145
448,4.905,5.155
449,4.940,5.185
450,4.955,5.195
451,5.020,5.235
452,5.030,5.235
453,5.055,5.260
454,5.090,5.275
455,5.110,5.290
456,5.115,5.295
457,5.145,5.320
458,5.170,5.335
459,5.190,5.335
460,5.180,5.350
461,5.185,5.350
462,5.195,5.360
463,5.185,5.350
464,5.165,5.330
465,5.135,5.315
466,5.130,5.320
467,5.115,5.295
468,5.050,5.265
469,5.020,5.240
470,5.000,5.230
471,4.975,5.205
472,4.930,5.170
473,4.890,5.145
474,4.865,5.125
475,4.860,5.120
476,4.830,5.080
477,4.805,5.065
478,4.795,5.060
479,4.790,5.055
480,4.785,5.030
481,4.765,5.010
482,4.765,5.005
483,4.775,5.005
484,4.775,5.010
485,4.770,4.995
486,4.770,5.000
487,4.780,5.015
488,4.775,5.005
489,4.770,4.980
490,4.765,4.985
491,4.780,5.000
492,4.790,5.010
493,4.785,5.005
494,4.775,4.995
495,4.780,5.010
496,4.795,5.010
497,4.785,4.995
498,4.780,4.995
499,4.795,5.025
500,4.790,5.040
501,4.805,5.020
502,4.790,5.020
503,4.785,5.025
504,4.805,5.030
505,4.810,5.010
506,4.795,5.005
507,4.800,5.010
508,4.800,5.030
509,4.805,5.025
510,4.785,5.015
511,4.790,5.025
512,4.805,5.045
513,4.795,5.020
514,4.785,5.005
515,4.785,5.010
516,4.795,5.010
517,4.805,5.015
518,4.805,5.000
519,4.775,4.985
520,4.785,4.990
521,4.785,4.975
522,4.780,4.975
523,4.770,4.960
524,4.770,4.975
525,4.765,4.980
526,4.765,4.950
527,4.750,4.940
528,4.755,4.960
529,4.755,4.960
530,4.755,4.945
531,4.735,4.930
532,4.740,4.935
533,4.750,4.935
534,4.745,4.930
535,4.735,4.915
536,4.725,4.925
537,4.735,4.935
538,4.725,4.920
539,4.715,4.915
540,4.710,4.910
541,4.715,4.930
542,4.720,4.920
543,4.715,4.910
544,4.710,4.910
545,4.710,4.925
546,4.715,4.915
547,4.715,4.910
548,4.720,4.900
549,4.725,4.915
550,4.735,4.920
551,4.730,4.920
552,4.715,4.905
553,4.725,4.910
554,4.730,4.915
555,4.755,4.915
556,4.760,4.910
557,4.785,4.925
558,4.795,4.930
559,4.800,4.935
560,4.790,4.930
561,4.795,4.930
562,4.815,4.940
563,4.830,4.925
564,4.815,4.910
565,4.810,4.920
566,4.840,4.930
567,4.830,4.925
568,4.825,4.915
569,4.800,4.910
570,4.780,4.910
571,4.775,4.885
572,4.775,4.865
573,4.775,4.870
574,4.790,4.885
575,4.800,4.900
576,4.770,4.910
577,4.740,4.915
578,4.730,4.925
579,4.740,4.930
580,4.725,4.910
581,4.700,4.900
582,4.690,4.910
583,4.675,4.910
584,4.670,4.900
585,4.665,4.880
586,4.670,4.895
587,4.685,4.905
588,4.675,4.900
589,4.655,4.890
590,4.655,4.895
591,4.670,4.900
592,4.675,4.895
593,4.680,4.900
594,4.665,4.895
595,4.665,4.895
596,4.675,4.890
597,4.670,4.900
598,4.645,4.885
599,4.575,4.900
600,4.550,4.895
601,4.555,4.880
602,4.640,4.925
603,4.820,4.990
604,5.205,5.140
605,5.725,5.390
606,6.220,5.710
607,6.635,6.035
608,6.810,6.260
609,6.635,6.250
610,5.955,5.845
611,5.180,5.240
612,4.715,4.780
613,4.560,4.570
614,4.560,4.595
615,4.700,4.755
616,4.785,4.925
617,4.755,4.965
618,4.715,4.940
619,4.695,4.915
620,4.705,4.940
621,4.695,4.940
622,4.660,4.920
623,4.645,4.910
624,4.640,4.920
625,4.645,4.925
626,4.640,4.915
627,4.630,4.905
628,4.635,4.920
629,4.635,4.910
630,4.640,4.920
631,4.630,4.910
632,4.640,4.930
633,4.650,4.930
634,4.640,4.920
635,4.630,4.905
636,4.630,4.930
637,4.645,4.955
638,4.645,4.940
639,4.640,4.925
640,4.630,4.920
641,4.665,4.935
642,4.670,4.940
643,4.670,4.940
644,4.655,4.950
645,4.680,4.965
646,4.695,4.960
647,4.690,4.945
648,4.690,4.955
649,4.715,4.980
650,4.720,4.990
651,4.745,4.995
652,4.760,4.990
653,4.790,5.010
654,4.820,5.020
655,4.830,5.035
656,4.855,5.055
657,4.880,5.070
658,4.910,5.105
659,4.935,5.105
660,4.950,5.110
661,4.985,5.140
662,5.015,5.165
663,5.040,5.175
664,5.060,5.195
665,5.070,5.205
666,5.095,5.230
667,5.125,5.235
668,5.130,5.245
669,5.140,5.260
670,5.155,5.285
671,5.175,5.290
672,5.165,5.280
673,5.150,5.270
674,5.160,5.275
675,5.155,5.280
676,5.140,5.285
677,5.115,5.250
678,5.090,5.235
679,5.070,5.230
680,5.025,5.185
681,5.000,5.165
682,4.965,5.150
683,4.950,5.140
684,4.925,5.110
685,4.885,5.075
686,4.860,5.060
687,4.850,5.045
688,4.845,5.015
689,4.820,4.990
690,4.810,4.985
691,4.815,4.995
692,4.815,4.975
693,4.790,4.960
694,4.780,4.965
695,4.795,4.955
696,4.795,4.955
697,4.780,4.945
698,4.785,4.950
699,4.785,4.950
700,4.790,4.955
701,4.780,4.940
702,4.775,4.940
703,4.785,4.940
704,4.790,4.940
705,4.795,4.940
706,4.795,4.945
707,4.800,4.960
708,4.805,4.960
709,4.800,4.950
710,4.810,4.950
711,4.815,4.965
712,4.825,4.975
713,4.815,4.970
714,4.825,4.970
715,4.825,4.980
716,4.830,4.975
717,4.835,4.980
718,4.830,4.980
719,4.830,4.985
720,4.835,4.995
721,4.840,4.985
722,4.830,4.980
723,4.835,4.995
724,4.835,5.000
725,4.830,4.990
726,4.835,4.980
727,4.830,4.990
728,4.845,5.000
729,4.830,4.985
730,4.825,4.980
731,4.820,4.965
732,4.825,4.980
733,4.820,4.975
734,4.805,4.960
735,4.800,4.960
736,4.805,4.965
737,4.810,4.955
738,4.800,4.950
739,4.780,4.935
740,4.790,4.955
741,4.785,4.945
742,4.775,4.925
743,4.770,4.925
744,4.765,4.925
745,4.775,4.925
746,4.770,4.900
747,4.755,4.900
748,4.755,4.905
749,4.760,4.910
750,4.765,4.915
751,4.755,4.900
752,4.745,4.900
753,4.760,4.920
754,4.755,4.905
755,4.745,4.895
756,4.740,4.890
757,4.750,4.905
758,4.755,4.900
759,4.750,4.900
760,4.740,4.880
761,4.745,4.900
762,4.765,4.895
763,4.755,4.885
764,4.740,4.890
765,4.750,4.895
766,4.765,4.885
767,4.770,4.885
768,4.780,4.875
769,4.800,4.890
770,4.820,4.900
771,4.830,4.890
772,4.820,4.880
773,4.830,4.905
774,4.840,4.905
775,4.850,4.905
776,4.860,4.895
777,4.850,4.895
778,4.870,4.905
779,4.885,4.890
780,4.870,4.880
781,4.850,4.880
782,4.840,4.880
783,4.820,4.850
784,4.810,4.835
785,4.810,4.835
786,4.830,4.860
787,4.835,4.885
788,4.810,4.890
789,4.780,4.895
790,4.770,4.895
791,4.765,4.885
792,4.735,4.870
793,4.725,4.875
794,4.735,4.880
795,4.725,4.875
796,4.715,4.855
797,4.690,4.855
798,4.705,4.865
799,4.700,4.870
800,4.695,4.870
801,4.690,4.860
802,4.690,4.865
803,4.690,4.875
804,4.700,4.870
805,4.685,4.865
806,4.690,4.865
807,4.700,4.885
808,4.695,4.870
809,4.690,4.870
810,4.640,4.875
811,4.575,4.870
812,4.540,4.845
813,4.605,4.870
814,4.735,4.940
815,5.070,5.060
816,5.620,5.275
817,6.195,5.600
818,6.660,5.950
819,6.905,6.220
820,6.810,6.275
821,6.225,5.955
822,5.390,5.320
823,4.765,4.740
824,4.570,4.530
825,4.560,4.510
826,4.725,4.710
827,4.790,4.880
828,4.780,4.945
829,4.740,4.935
830,4.720,4.895
831,4.720,4.900
832,4.700,4.920
833,4.685,4.895
834,4.675,4.885
835,4.665,4.870
836,4.660,4.885
837,4.670,4.890
838,4.650,4.880
839,4.640,4.885
840,4.655,4.905
841,4.660,4.905
842,4.655,4.900
843,4.655,4.895
844,4.655,4.905
845,4.650,4.905
846,4.650,4.900
847,4.645,4.905
848,4.650,4.920
849,4.670,4.930
850,4.670,4.920
851,4.665,4.905
852,4.665,4.915
853,4.675,4.935
854,4.690,4.925
855,4.695,4.930
856,4.690,4.930
857,4.715,4.955
858,4.725,4.950
859,4.735,4.950
860,4.745,4.960
861,4.750,4.970
862,4.780,4.985
863,4.790,4.985
864,4.805,4.995
865,4.845,5.030
866,4.875,5.050
867,4.900,5.040
868,4.905,5.055
869,4.945,5.085
870,4.985,5.100
871,5.010,5.105
872,5.030,5.125
873,5.060,5.145
874,5.100,5.175
875,5.110,5.175
876,5.135,5.200
877,5.160,5.220
878,5.195,5.235
879,5.215,5.245
880,5.205,5.225
881,5.220,5.245
882,5.245,5.275
883,5.245,5.270
884,5.245,5.245
885,5.215,5.245
886,5.220,5.245
887,5.220,5.245
888,5.185,5.220
889,5.135,5.200
890,5.125,5.190
891,5.100,5.165
892,5.060,5.145
893,5.010,5.115
894,4.990,5.110
895,4.970,5.080
896,4.935,5.050
897,4.895,5.020
898,4.885,5.010
899,4.870,4.995
900,4.870,4.995
901,4.840,4.950
902,4.810,4.940
903,4.820,4.955
904,4.815,4.935
905,4.805,4.910
906,4.790,4.915
907,4.800,4.920
908,4.800,4.915
909,4.790,4.900
910,4.780,4.905
911,4.795,4.910
912,4.805,4.915
913,4.795,4.895
914,4.780,4.895
915,4.800,4.910
916,4.815,4.915
917,4.810,4.905
918,4.805,4.905
919,4.820,4.915
920,4.825,4.920
921,4.820,4.925
922,4.810,4.920
923,4.820,4.940
924,4.830,4.945
925,4.830,4.950
926,4.830,4.935
927,4.830,4.940
928,4.850,4.960
929,4.845,4.955
930,4.840,4.940
931,4.830,4.945
932,4.840,4.965
933,4.845,4.955
934,4.845,4.940
935,4.825,4.935
936,4.845,4.945
937,4.835,4.950
938,4.835,4.925
939,4.820,4.925
940,4.835,4.940
941,4.825,4.945
942,4.815,4.930
943,4.810,4.925
944,4.820,4.930
945,4.820,4.925
946,4.810,4.915
947,4.795,4.905
948,4.800,4.900
949,4.810,4.915
950,4.805,4.905
951,4.790,4.890
952,4.780,4.890
953,4.785,4.890
954,4.785,4.875
955,4.775,4.865
956,4.770,4.875
957,4.785,4.895
958,4.780,4.875
959,4.750,4.865
960,4.750,4.860
961,4.770,4.870
962,4.770,4.870
963,4.760,4.850
964,4.740,4.850
965,4.750,4.870
966,4.760,4.870
967,4.750,4.865
968,4.750,4.860
969,4.750,4.865
970,4.750,4.875
971,4.750,4.860
972,4.740,4.860
973,4.745,4.860
974,4.755,4.875
975,4.760,4.865
976,4.765,4.840
977,4.765,4.865
978,4.790,4.875
979,4.810,4.870
980,4.820,4.865
981,4.825,4.865
982,4.840,4.895
983,4.845,4.885
984,4.850,4.880
985,4.855,4.880
986,4.860,4.885
987,4.865,4.870
988,4.875,4.875
989,4.865,4.870
990,4.875,4.885
991,4.860,4.865
992,4.840,4.860
993,4.815,4.845
994,4.805,4.835
995,4.825,4.840
996,4.835,4.825
997,4.820,4.855
998,4.810,4.895
999,4.790,4.900
1000,4.785,4.890
1001,4.755,4.880
1002,4.740,4.870
1003,4.740,4.865
1004,4.720,4.865
1005,4.700,4.845
1006,4.690,4.845
1007,4.700,4.860
1008,4.690,4.840
1009,4.685,4.835
1010,4.685,4.845
1011,4.695,4.855
1012,4.695,4.865
1013,4.695,4.845
1014,4.680,4.845
1015,4.690,4.855
1016,4.705,4.860
1017,4.695,4.860
1018,4.680,4.860
1019,4.660,4.865
1020,4.600,4.855
1021,4.540,4.820
1022,4.545,4.820
1023,4.650,4.870
1024,4.875,4.950
1025,4.970,4.975
1026,5.880,5.375
1027,6.440,5.750
1028,6.830,6.120
1029,6.940,6.365
1030,6.690,6.320
1031,5.970,5.870
1032,5.185,5.210
1033,4.740,4.670
1034,4.595,4.460
1035,4.645,4.555
1036,4.760,4.725
1037,4.820,4.860
1038,4.770,4.915
1039,4.720,4.910
1040,4.730,4.900
1041,4.735,4.900
1042,4.705,4.880
1043,4.680,4.875
1044,4.675,4.870
1045,4.685,4.885
1046,4.665,4.865
1047,4.655,4.860
1048,4.655,4.870
1049,4.665,4.885
1050,4.665,4.880
1051,4.650,4.875
1052,4.640,4.885
1053,4.655,4.900
1054,4.655,4.880
1055,4.660,4.865
1056,4.645,4.885
1057,4.655,4.910
1058,4.670,4.895
1059,4.665,4.890
1060,4.655,4.895
1061,4.670,4.905
1062,4.680,4.905
1063,4.685,4.910
1064,4.680,4.905
1065,4.680,4.925
1066,4.710,4.925
1067,4.710,4.920
1068,4.710,4.930
1069,4.725,4.945
1070,4.750,4.960
1071,4.760,4.955
1072,4.770,4.960
1073,4.790,4.975
1074,4.815,5.000
1075,4.820,5.010
1076,4.850,5.010
1077,4.885,5.040
1078,4.905,5.060
1079,4.930,5.075
1080,4.960,5.085
1081,4.985,5.090
1082,5.025,5.120
1083,5.055,5.145
1084,5.080,5.150
1085,5.095,5.180
1086,5.140,5.200
1087,5.155,5.215
1088,5.170,5.210
1089,5.180,5.225
1090,5.200,5.240
1091,5.225,5.255
1092,5.235,5.260
1093,5.235,5.250
1094,5.240,5.270
1095,5.245,5.275
1096,5.245,5.255
1097,5.215,5.255
1098,5.210,5.265
1099,5.190,5.240
1100,5.180,5.235
1101,5.110,5.195
1102,5.095,5.185
1103,5.070,5.155
1104,5.025,5.120
1105,4.975,5.090
1106,4.950,5.070
1107,4.925,5.050
1108,4.890,5.025
1109,4.875,4.995
1110,4.850,4.980
1111,4.840,4.970
1112,4.845,4.960
1113,4.825,4.940
1114,4.800,4.925
1115,4.805,4.930
1116,4.805,4.915
1117,4.805,4.905
1118,4.775,4.890
1119,4.775,4.900
1120,4.790,4.910
1121,4.795,4.910
1122,4.780,4.890
1123,4.790,4.895
1124,4.790,4.910
1125,4.790,4.920
1126,4.780,4.890
1127,4.790,4.900
1128,4.815,4.905
1129,4.810,4.910
1130,4.810,4.900
1131,4.810,4.910
1132,4.820,4.930
1133,4.825,4.925
1134,4.820,4.930
1135,4.810,4.920
1136,4.825,4.935
1137,4.845,4.945
1138,4.830,4.935
1139,4.820,4.940
1140,4.840,4.950
1141,4.845,4.950
1142,4.840,4.940
1143,4.825,4.930
1144,4.835,4.940
1145,4.840,4.935
1146,4.850,4.935
1147,4.830,4.920
1148,4.835,4.925
1149,4.845,4.930
1150,4.850,4.925
1151,4.825,4.910
1152,4.820,4.920
1153,4.825,4.925
1154,4.830,4.925
1155,4.815,4.900
1156,4.810,4.895
1157,4.820,4.915
1158,4.805,4.910
1159,4.805,4.900
1160,4.790,4.895
1161,4.795,4.915
1162,4.810,4.905
1163,4.790,4.900
1164,4.775,4.880
1165,4.785,4.890
1166,4.790,4.900
1167,4.780,4.875
1168,4.770,4.880
1169,4.770,4.880
1170,4.785,4.885
1171,4.775,4.865
1172,4.760,4.860
1173,4.755,4.880
1174,4.765,4.860
1175,4.775,4.865
1176,4.760,4.835
1177,4.755,4.845
1178,4.755,4.855
1179,4.770,4.840
1180,4.750,4.845
1181,4.755,4.850
1182,4.775,4.860
1183,4.765,4.865
1184,4.755,4.850
1185,4.750,4.850
1186,4.760,4.855
1187,4.770,4.855
1188,4.770,4.840
1189,4.770,4.845
1190,4.795,4.865
1191,4.830,4.870
1192,4.830,4.855
1193,4.825,4.850
1194,4.835,4.875
1195,4.855,4.870
1196,4.865,4.860
1197,4.855,4.870
1198,4.865,4.870
1199,4.875,4.880
1200,4.875,4.875
1201,4.875,4.865
1202,4.875,4.875
1203,4.880,4.890
1204,4.855,4.875
1205,4.845,4.850
1206,4.820,4.835
1207,4.820,4.830
1208,4.840,4.820
1209,4.840,4.825
1210,4.840,4.855
1211,4.825,4.890
1212,4.810,4.900
1213,4.780,4.880
1214,4.770,4.885
1215,4.755,4.885
1216,4.750,4.870
1217,4.740,4.855
1218,4.725,4.855
1219,4.715,4.865
1220,4.705,4.860
1221,4.700,4.850
1222,4.685,4.840
1223,4.680,4.845
1224,4.700,4.860
1225,4.695,4.855
1226,4.690,4.850
1227,4.695,4.860
1228,4.710,4.860
1229,4.690,4.860
1230,4.705,4.845
1231,4.700,4.840
1232,4.705,4.865
1233,4.710,4.865
1234,4.705,4.860
1235,4.665,4.855
1236,4.600,4.860
1237,4.540,4.835
1238,4.550,4.815
1239,4.615,4.855
1240,4.775,4.925
1241,5.075,4.995
1242,5.545,5.180
1243,6.025,5.465
1244,6.495,5.800
1245,6.860,6.145
1246,6.980,6.385
1247,6.755,6.365
1248,6.150,6.040
1249,5.410,5.440
1250,5.200,5.235
1251,4.650,4.510
1252,4.610,4.455
1253,4.655,4.560
1254,4.755,4.695
1255,4.810,4.825
1256,4.785,4.890
1257,4.765,4.930
1258,4.745,4.900
1259,4.730,4.890
1260,4.715,4.895
1261,4.725,4.905
1262,4.700,4.880
1263,4.680,4.875
1264,4.665,4.870
1265,4.665,4.885
1266,4.660,4.890
1267,4.665,4.875
1268,4.655,4.870
1269,4.665,4.890
1270,4.675,4.890
1271,4.660,4.885
1272,4.645,4.870
1273,4.655,4.880
1274,4.660,4.885
1275,4.665,4.885
1276,4.650,4.870
1277,4.660,4.885
1278,4.660,4.905
1279,4.670,4.905
1280,4.670,4.905
1281,4.665,4.900
1282,4.685,4.915
1283,4.695,4.910
1284,4.690,4.920
1285,4.675,4.920
1286,4.700,4.935
1287,4.710,4.940
1288,4.710,4.935
1289,4.715,4.930
1290,4.720,4.950
1291,4.740,4.945
1292,4.755,4.935
1293,4.755,4.950
1294,4.770,4.965
1295,4.800,4.985
1296,4.825,4.975
1297,4.830,4.995
1298,4.845,5.020
1299,4.880,5.045
1300,4.895,5.050
1301,4.920,5.055
1302,4.945,5.085
1303,4.980,5.105
1304,4.995,5.120
1305,5.020,5.115
1306,5.035,5.140
1307,5.080,5.170
1308,5.105,5.180
1309,5.115,5.180
1310,5.125,5.185
1311,5.160,5.220
1312,5.190,5.220
1313,5.200,5.230
1314,5.205,5.245
1315,5.230,5.275
1316,5.250,5.275
1317,5.245,5.275
1318,5.235,5.265
1319,5.245,5.270
1320,5.250,5.290
1321,5.235,5.280
1322,5.205,5.270
1323,5.190,5.265
1324,5.175,5.255
1325,5.165,5.245
1326,5.105,5.210
1327,5.075,5.195
1328,5.050,5.180
1329,5.025,5.150
1330,4.980,5.110
1331,4.945,5.100
1332,4.935,5.090
1333,4.920,5.065
1334,4.900,5.040
1335,4.865,5.025
1336,4.865,5.015
1337,4.855,5.000
1338,4.840,4.980
1339,4.815,4.960
1340,4.830,4.965
1341,4.835,4.960
1342,4.810,4.945
1343,4.795,4.930
1344,4.795,4.930
1345,4.810,4.930
1346,4.810,4.915
1347,4.795,4.910
1348,4.795,4.920
1349,4.800,4.940
1350,4.795,4.940
1351,4.800,4.930
1352,4.805,4.940
1353,4.820,4.950
1354,4.810,4.955
1355,4.820,4.930
1356,4.810,4.930
1357,4.820,4.940
1358,4.830,4.945
1359,4.830,4.940
1360,4.820,4.940
1361,4.835,4.975
1362,4.845,4.965
1363,4.845,4.960
1364,4.840,4.960
1365,4.840,4.965
1366,4.850,4.980
1367,4.850,4.960
1368,4.845,4.965
1369,4.850,4.980
1370,4.850,4.990
1371,4.850,4.975
1372,4.845,4.965
1373,4.845,4.975
1374,4.855,4.995
1375,4.855,4.995
1376,4.840,4.975
1377,4.835,4.975
1378,4.835,4.980
1379,4.835,4.965
1380,4.830,4.945
1381,4.820,4.960
1382,4.840,4.975
1383,4.840,4.970
1384,4.825,4.960
1385,4.810,4.965
1386,4.820,4.960
1387,4.820,4.950
1388,4.815,4.925
1389,4.800,4.945
1390,4.805,4.960
1391,4.815,4.955
1392,4.800,4.935
1393,4.785,4.920
1394,4.790,4.925
1395,4.800,4.925
1396,4.790,4.930
1397,4.785,4.920
1398,4.785,4.915
1399,4.785,4.935
1400,4.790,4.930
1401,4.770,4.900
1402,4.765,4.910
1403,4.765,4.915
1404,4.770,4.895
1405,4.755,4.895
1406,4.760,4.885
1407,4.760,4.905
1408,4.765,4.895
1409,4.765,4.885
1410,4.745,4.880
1411,4.755,4.900
1412,4.760,4.900
1413,4.755,4.895
1414,4.745,4.890
1415,4.760,4.905
1416,4.770,4.890
1417,4.765,4.875
1418,4.750,4.875
1419,4.755,4.885
1420,4.760,4.895
1421,4.760,4.890
1422,4.760,4.885
1423,4.770,4.895
1424,4.800,4.900
1425,4.805,4.890
1426,4.820,4.890
1427,4.820,4.900
1428,4.835,4.920
1429,4.840,4.905
1430,4.845,4.895
1431,4.855,4.900
1432,4.880,4.920
1433,4.875,4.910
1434,4.875,4.900
1435,4.875,4.915
1436,4.885,4.930
1437,4.875,4.920
1438,4.845,4.890
1439,4.810,4.860
1440,4.805,4.860
1441,4.830,4.860
1442,4.830,4.865
1443,4.820,4.885
1444,4.810,4.920
1445,4.795,4.935
1446,4.770,4.915
1447,4.755,4.905
1448,4.755,4.920
1449,4.745,4.920
1450,4.735,4.910
1451,4.715,4.880
1452,4.710,4.885
1453,4.720,4.900
1454,4.715,4.885
1455,4.690,4.880
1456,4.685,4.880
1457,4.690,4.900
1458,4.700,4.890
1459,4.700,4.880
1460,4.700,4.890
1461,4.715,4.905
1462,4.715,4.895
1463,4.710,4.890
1464,4.705,4.900
1465,4.715,4.915
1466,4.710,4.930
1467,4.675,4.910
1468,4.595,4.885
1469,4.560,4.890
1470,4.600,4.900
1471,4.710,4.945
1472,4.945,4.995
1473,5.380,5.160
1474,5.880,5.450
1475,6.030,5.550
1476,6.725,6.070
1477,6.880,6.315
1478,6.685,6.295
1479,6.085,5.990
1480,5.390,5.470
1481,4.895,4.950
1482,4.645,4.635
1483,4.595,4.575
1484,4.660,4.650
1485,4.775,4.825
1486,4.820,4.955
1487,4.770,4.975
1488,4.735,4.930
1489,4.725,4.935
1490,4.745,4.955
1491,4.720,4.960
1492,4.695,4.935
1493,4.680,4.920
1494,4.685,4.930
1495,4.690,4.930
1496,4.695,4.925
1497,4.675,4.925
1498,4.665,4.935
1499,4.680,4.950
1500,4.690,4.955
1501,4.670,4.940
1502,4.670,4.935
1503,4.675,4.935
1504,4.685,4.935
1505,4.675,4.920
1506,4.665,4.935
1507,4.685,4.955
1508,4.690,4.950
1509,4.680,4.945
1510,4.670,4.950
1511,4.690,4.960
1512,4.700,4.960
1513,4.695,4.945
1514,4.690,4.950
1515,4.710,4.965
1516,4.720,4.965
1517,4.725,4.955
1518,4.720,4.965
1519,4.740,4.980
1520,4.750,4.985
1521,4.755,4.980
1522,4.760,4.985
1523,4.780,5.005
1524,4.800,5.015
1525,4.810,5.020
1526,4.825,5.035
1527,4.850,5.050
1528,4.880,5.085
1529,4.900,5.100
1530,4.905,5.095
1531,4.940,5.115
1532,4.975,5.155
1533,5.005,5.160
1534,5.010,5.170
1535,5.040,5.180
1536,5.075,5.220
1537,5.100,5.225
1538,5.120,5.240
1539,5.135,5.255
1540,5.160,5.275
1541,5.190,5.290
1542,5.190,5.290
1543,5.190,5.295
1544,5.200,5.305
1545,5.230,5.320
1546,5.240,5.315
1547,5.215,5.305
1548,5.220,5.305
1549,5.220,5.315
1550,5.215,5.310
1551,5.165,5.285
1552,5.135,5.280
1553,5.130,5.265
1554,5.085,5.230
1555,5.040,5.205
1556,5.015,5.180
1557,5.010,5.170
1558,4.970,5.140
1559,4.935,5.110
1560,4.925,5.080
1561,4.915,5.075
1562,4.900,5.065
1563,4.875,5.040
1564,4.860,5.035
1565,4.855,5.030
1566,4.850,5.025
1567,4.845,5.005
1568,4.840,4.990
1569,4.830,4.995
1570,4.835,5.005
1571,4.830,4.980
1572,4.815,4.980
1573,4.815,4.975
1574,4.825,4.985
1575,4.830,4.980
1576,4.825,4.970
1577,4.820,4.980
1578,4.835,4.985
1579,4.835,4.980
1580,4.820,4.970
1581,4.830,4.975
1582,4.840,4.995
1583,4.840,4.980
1584,4.840,4.975
1585,4.835,4.980
1586,4.850,5.000
1587,4.855,5.000
1588,4.860,4.990
1589,4.850,4.995
1590,4.860,5.015
1591,4.875,5.015
1592,4.875,5.005
1593,4.875,4.995
1594,4.875,5.015
1595,4.880,5.010
1596,4.880,5.015
1597,4.860,5.005
1598,4.860,5.010
1599,4.885,5.030
1600,4.880,5.035
1601,4.875,5.015
1602,4.880,5.005
1603,4.870,5.015
1604,4.880,5.000
1605,4.865,4.985
1606,4.860,5.005
1607,4.880,5.020
1608,4.870,5.005
1609,4.865,4.990
1610,4.850,4.980
1611,4.860,5.000
1612,4.860,5.000
1613,4.855,4.985
1614,4.840,4.985
1615,4.850,4.980
1616,4.845,4.980
1617,4.845,4.965
1618,4.830,4.960
1619,4.820,4.950
1620,4.830,4.955
1621,4.825,4.950
1622,4.810,4.940
1623,4.805,4.945
1624,4.820,4.945
1625,4.815,4.940
1626,4.795,4.930
1627,4.795,4.930
1628,4.800,4.950
1629,4.805,4.935
1630,4.790,4.925
1631,4.780,4.925
1632,4.790,4.940
1633,4.790,4.940
1634,4.785,4.920
1635,4.780,4.925
1636,4.790,4.935
1637,4.800,4.940
1638,4.790,4.915
1639,4.780,4.910
1640,4.785,4.925
1641,4.795,4.930
1642,4.790,4.925
1643,4.780,4.920
1644,4.790,4.920
1645,4.805,4.930
1646,4.820,4.915
1647,4.850,4.910
1648,4.850,4.930
1649,4.860,4.940
1650,4.870,4.935
1651,4.870,4.925
1652,4.870,4.945
1653,4.915,4.930
1654,4.905,4.935
1655,4.890,4.935
1656,4.900,4.935
1657,4.905,4.960
1658,4.900,4.935
1659,4.880,4.930
1660,4.855,4.915
1661,4.855,4.910
1662,4.865,4.895
1663,4.865,4.885
1664,4.860,4.905
1665,4.860,4.940
1666,4.845,4.960
1667,4.815,4.945
1668,4.800,4.935
1669,4.790,4.945
1670,4.785,4.940
1671,4.775,4.910
1672,4.745,4.915
1673,4.745,4.915
1674,4.740,4.920
1675,4.735,4.915
1676,4.730,4.900
1677,4.730,4.920
1678,4.735,4.925
1679,4.730,4.920
1680,4.725,4.900
1681,4.720,4.915
1682,4.735,4.930
1683,4.740,4.930
1684,4.725,4.925
1685,4.720,4.915
1686,4.730,4.940
1687,4.710,4.930
1688,4.625,4.910
1689,4.550,4.890
1690,4.615,4.915
1691,4.745,4.970
1692,4.990,5.040
1693,5.460,5.200
1694,6.050,5.560
1695,6.570,5.910
1696,6.875,6.250
1697,6.890,6.415
1698,6.480,6.250
1699,5.715,5.690
1700,5.465,5.480
1701,4.675,4.635
1702,4.625,4.550
1703,4.730,4.695
1704,4.825,4.855
1705,4.840,4.965
1706,4.785,4.985
1707,4.770,4.970
1708,4.775,4.950
1709,4.760,4.945
1710,4.725,4.945
1711,4.720,4.945
1712,4.725,4.940
1713,4.710,4.930
1714,4.700,4.935
1715,4.695,4.945
1716,4.705,4.950
1717,4.705,4.935
1718,4.695,4.925
1719,4.695,4.945
1720,4.710,4.950
1721,4.710,4.940
1722,4.700,4.940
1723,4.695,4.950
1724,4.710,4.960
1725,4.715,4.965
1726,4.710,4.945
1727,4.705,4.955
1728,4.715,4.975
1729,4.735,4.970
1730,4.720,4.960
1731,4.715,4.975
1732,4.735,4.975
1733,4.745,4.975
1734,4.750,4.980
1735,4.755,4.995
1736,4.770,5.005
1737,4.790,5.020
1738,4.800,5.015
1739,4.800,5.020
1740,4.835,5.045
1741,4.860,5.060
1742,4.865,5.060
1743,4.870,5.065
1744,4.905,5.080
1745,4.950,5.110
1746,4.965,5.120
1747,4.975,5.135
1748,5.010,5.165
1749,5.050,5.185
1750,5.060,5.180
1751,5.095,5.200
1752,5.125,5.220
1753,5.160,5.255
1754,5.175,5.265
1755,5.185,5.265
1756,5.200,5.275
1757,5.220,5.310
1758,5.240,5.315
1759,5.250,5.310
1760,5.250,5.325
1761,5.270,5.340
1762,5.270,5.330
1763,5.260,5.315
1764,5.240,5.320
1765,5.235,5.315
1766,5.230,5.305
1767,5.195,5.275
1768,5.155,5.260
1769,5.140,5.255
1770,5.105,5.225
1771,5.065,5.200
1772,5.020,5.155
1773,4.990,5.145
1774,4.975,5.125
1775,4.975,5.110
1776,4.905,5.065
1777,4.890,5.065
1778,4.885,5.050
1779,4.870,5.020
1780,4.850,5.015
1781,4.835,5.005
1782,4.840,5.000
1783,4.835,4.995
1784,4.820,4.980
1785,4.815,4.965
1786,4.825,4.980
1787,4.825,4.975
1788,4.820,4.965
1789,4.805,4.960
1790,4.820,4.970
1791,4.820,4.970
1792,4.810,4.955
1793,4.810,4.960
1794,4.815,4.970
1795,4.830,4.975
1796,4.830,4.980
1797,4.825,4.970
1798,4.830,4.970
1799,4.850,4.995
1800,4.860,4.990
1801,4.850,4.980
1802,4.850,4.990
1803,4.855,4.995
1804,4.865,5.000
1805,4.845,4.995
1806,4.845,4.985
1807,4.865,5.015
1808,4.870,5.015
1809,4.860,5.005
1810,4.855,5.010
1811,4.855,5.025
1812,4.870,5.015
1813,4.860,5.005
1814,4.855,5.010
1815,4.860,5.015
1816,4.870,5.015
1817,4.865,5.000
1818,4.850,5.000
1819,4.860,5.000
1820,4.855,5.010
1821,4.850,4.995
1822,4.820,4.985
1823,4.830,4.995
1824,4.840,5.005
1825,4.840,5.000
1826,4.815,4.965
1827,4.815,4.975
1828,4.825,4.980
1829,4.820,4.965
1830,4.810,4.950
1831,4.805,4.945
1832,4.805,4.965
1833,4.805,4.960
1834,4.795,4.935
1835,4.790,4.930
1836,4.790,4.950
1837,4.795,4.940
1838,4.785,4.930
1839,4.765,4.910
1840,4.780,4.925
1841,4.780,4.930
1842,4.780,4.905
1843,4.770,4.915
1844,4.780,4.920
1845,4.770,4.930
1846,4.780,4.925
1847,4.765,4.920
1848,4.765,4.925
1849,4.780,4.940
1850,4.785,4.935
1851,4.770,4.910
1852,4.770,4.920
1853,4.800,4.920
1854,4.815,4.940
1855,4.840,4.925
1856,4.840,4.925
1857,4.860,4.950
1858,4.865,4.950
1859,4.865,4.945
1860,4.860,4.935
1861,4.880,4.945
1862,4.895,4.950
1863,4.885,4.935
1864,4.895,4.940
1865,4.895,4.945
1866,4.895,4.940
1867,4.875,4.915
1868,4.850,4.905
1869,4.845,4.900
1870,4.850,4.895
1871,4.860,4.895
1872,4.855,4.925
1873,4.830,4.960
1874,4.820,4.960
1875,4.815,4.955
1876,4.775,4.940
1877,4.760,4.935
1878,4.760,4.950
1879,4.750,4.930
1880,4.735,4.910
1881,4.715,4.910
1882,4.725,4.930
1883,4.725,4.925
1884,4.715,4.910
1885,4.705,4.910
1886,4.710,4.930
1887,4.715,4.930
1888,4.715,4.915
1889,4.715,4.920
1890,4.725,4.930
1891,4.750,4.935
1892,4.725,4.925
1893,4.715,4.935
1894,4.705,4.940
1895,4.705,4.940
1896,4.650,4.925
1897,4.545,4.900
1898,4.545,4.900
1899,4.635,4.935
1900,4.670,4.955
1901,5.070,5.065
1902,5.580,5.290
1903,6.135,5.625
1904,6.605,5.990
1905,6.915,6.350
1906,6.915,6.500
1907,6.480,6.305
1908,5.700,5.670
1909,4.985,4.985
1910,4.695,4.610
1911,4.640,4.525
1912,4.675,4.635
1913,4.765,4.760
1914,4.840,4.900
1915,4.810,4.980
1916,4.780,4.990
1917,4.760,4.960
1918,4.745,4.945
1919,4.745,4.965
1920,4.735,4.965
1921,4.715,4.940
1922,4.685,4.935
1923,4.690,4.950
1924,4.680,4.960
1925,4.680,4.960
1926,4.680,4.935
1927,4.675,4.945
1928,4.690,4.955
1929,4.685,4.950
1930,4.680,4.945
1931,4.670,4.955
1932,4.690,4.965
1933,4.690,4.965
1934,4.685,4.955
1935,4.685,4.960
1936,4.700,4.970
1937,4.710,4.975
1938,4.715,4.970
1939,4.690,4.975
1940,4.705,4.985
1941,4.730,5.000
1942,4.725,4.995
1943,4.735,4.995
1944,4.745,5.020
1945,4.760,5.030
1946,4.760,5.030
1947,4.765,5.020
1948,4.775,5.035
1949,4.795,5.055
1950,4.805,5.050
1951,4.820,5.060
1952,4.840,5.085
1953,4.870,5.105
1954,4.895,5.110
1955,4.905,5.110
1956,4.935,5.130
1957,4.980,5.170
1958,5.000,5.185
1959,5.020,5.190
1960,5.050,5.200
1961,5.085,5.230
1962,5.110,5.245
1963,5.130,5.250
1964,5.145,5.265
1965,5.175,5.290
1966,5.215,5.320
1967,5.220,5.310
1968,5.230,5.310
1969,5.260,5.335
1970,5.270,5.355
1971,5.285,5.360
1972,5.285,5.355
1973,5.285,5.370
1974,5.285,5.375
1975,5.280,5.370
1976,5.260,5.340
1977,5.240,5.340
1978,5.230,5.340
1979,5.200,5.310
1980,5.155,5.285
1981,5.130,5.275
1982,5.100,5.255
1983,5.065,5.225
1984,5.025,5.195
1985,4.985,5.170
1986,4.970,5.165
1987,4.955,5.135
1988,4.925,5.100
1989,4.890,5.085
1990,4.895,5.080
1991,4.875,5.070
1992,4.865,5.050
1993,4.860,5.045
1994,4.860,5.040
1995,4.855,5.045
1996,4.845,5.020
1997,4.840,5.015
1998,4.845,5.025
1999,4.850,5.025
2000,4.850,5.020
2001,4.845,4.995
2002,4.840,5.010
2003,4.845,5.020
2004,4.850,5.010
2005,4.835,5.000
2006,4.845,5.020
2007,4.875,5.030
2008,4.875,5.025
2009,4.875,5.015
2010,4.865,5.035
2011,4.865,5.045
2012,4.890,5.045
2013,4.885,5.030
2014,4.870,5.045
2015,4.890,5.055
2016,4.905,5.065
2017,4.900,5.060
2018,4.875,5.065
2019,4.895,5.075
2020,4.910,5.080
2021,4.900,5.070
2022,4.895,5.070
2023,4.895,5.085
2024,4.925,5.080
2025,4.925,5.085
2026,4.895,5.070
2027,4.890,5.085
2028,4.900,5.080
2029,4.890,5.060
2030,4.880,5.035
2031,4.875,5.050
2032,4.885,5.060
2033,4.885,5.065
2034,4.860,5.030
2035,4.865,5.045
2036,4.860,5.050
2037,4.865,5.045
2038,4.840,5.025
2039,4.845,5.030
2040,4.845,5.035
2041,4.845,5.035
2042,4.825,5.015
2043,4.815,5.000
2044,4.835,5.015
2045,4.835,5.015
2046,4.830,5.025
2047,4.810,5.010
2048,4.815,5.000
2049,4.820,5.015
2050,4.830,5.010
2051,4.810,5.005
2052,4.800,5.010
2053,4.805,5.010
2054,4.815,5.000
2055,4.805,4.985
2056,4.800,4.995
2057,4.815,5.005
2058,4.815,5.000
2059,4.820,4.990
2060,4.815,4.985
2061,4.835,5.005
2062,4.850,5.000
2063,4.875,4.990
2064,4.870,5.010
2065,4.880,5.030
2066,4.890,5.025
2067,4.890,5.020
2068,4.900,5.015
2069,4.915,5.010
2070,4.925,5.015
2071,4.920,5.025
2072,4.920,5.015
2073,4.930,5.025
2074,4.925,5.025
2075,4.915,5.030
2076,4.870,4.990
2077,4.860,4.975
2078,4.880,4.980
2079,4.880,4.975
2080,4.885,4.990
2081,4.865,5.030
2082,4.850,5.040
2083,4.840,5.050
2084,4.815,5.025
2085,4.810,5.030
2086,4.800,5.030
2087,4.800,5.025
2088,4.780,5.005
2089,4.770,5.000
2090,4.765,5.005
2091,4.770,5.010
2092,4.765,5.005
2093,4.760,4.995
2094,4.755,5.015
2095,4.770,5.025
2096,4.755,5.005
2097,4.745,5.005
2098,4.760,5.025
2099,4.770,5.020
2100,4.765,5.020
2101,4.760,5.020
2102,4.750,5.030
2103,4.750,5.045
2104,4.680,5.025
2105,4.590,4.995
2106,4.590,5.000
2107,4.680,5.050
2108,4.835,5.105
2109,5.155,5.180
2110,5.680,5.430
2111,6.230,5.780
2112,6.675,6.115
2113,6.925,6.415
2114,6.890,6.520
2115,6.385,6.275
2116,5.615,5.695
2117,4.990,5.050
2118,4.700,4.670
2119,4.660,4.625
2120,4.705,4.730
2121,4.820,4.875
2122,4.880,5.005
2123,4.850,5.075
2124,4.825,5.070
2125,4.825,5.065
2126,4.800,5.040
2127,4.790,5.065
2128,4.785,5.065
2129,4.760,5.055
2130,4.755,5.040
2131,4.745,5.050
2132,4.745,5.065
2133,4.745,5.060
2134,4.740,5.055
2135,4.720,5.050
2136,4.730,5.065
2137,4.745,5.070
2138,4.735,5.055
2139,4.720,5.055
2140,4.740,5.070
2141,4.745,5.080
2142,4.740,5.070
2143,4.740,5.070
2144,4.755,5.085
2145,4.770,5.105
2146,4.760,5.090
2147,4.760,5.080
2148,4.750,5.090
2149,4.775,5.100
2150,4.780,5.110
2151,4.775,5.090
2152,4.780,5.115
2153,4.800,5.120
2154,4.815,5.115
2155,4.805,5.105
2156,4.820,5.125
2157,4.850,5.150
2158,4.860,5.150
2159,4.860,5.155
2160,4.880,5.165
2161,4.905,5.195
2162,4.930,5.205
2163,4.940,5.195
2164,4.945,5.220
2165,4.985,5.240
2166,5.015,5.270
2167,5.050,5.280
2168,5.065,5.280
2169,5.090,5.315
2170,5.130,5.345
2171,5.150,5.340
2172,5.160,5.345
2173,5.180,5.370
2174,5.210,5.390
2175,5.220,5.395
2176,5.235,5.405
2177,5.260,5.415
2178,5.270,5.435
2179,5.280,5.435
2180,5.295,5.435
2181,5.295,5.450
2182,5.300,5.475
2183,5.300,5.460
2184,5.290,5.450
2185,5.265,5.440
2186,5.255,5.430
2187,5.220,5.415
2188,5.190,5.385
2189,5.140,5.365
2190,5.125,5.350
2191,5.090,5.325
2192,5.070,5.285
2193,5.025,5.265
2194,5.010,5.255
2195,4.990,5.235
2196,4.970,5.210
2197,4.940,5.180
2198,4.930,5.170
2199,4.930,5.165
2200,4.930,5.160
2201,4.905,5.135
2202,4.900,5.135
2203,4.895,5.135
2204,4.910,5.130
2205,4.895,5.115
2206,4.890,5.120
2207,4.895,5.115
2208,4.885,5.100
2209,4.880,5.100
2210,4.885,5.110
2211,4.900,5.130
2212,4.910,5.130
2213,4.900,5.115
2214,4.900,5.120
2215,4.915,5.140
2216,4.920,5.135
2217,4.920,5.130
2218,4.900,5.135
2219,4.925,5.150
2220,4.925,5.150
2221,4.925,5.150
2222,4.915,5.140
2223,4.910,5.160
2224,4.925,5.160
2225,4.925,5.160
2226,4.925,5.150
2227,4.930,5.160
2228,4.940,5.175
2229,4.945,5.170
2230,4.930,5.160
2231,4.925,5.155
2232,4.930,5.165
2233,4.935,5.165
2234,4.925,5.145
2235,4.905,5.150
2236,4.915,5.155
2237,4.930,5.150
2238,4.915,5.145
2239,4.900,5.140
2240,4.900,5.150
2241,4.920,5.140
2242,4.905,5.120
2243,4.890,5.110
2244,4.890,5.125
2245,4.880,5.125
2246,4.880,5.110
2247,4.855,5.100
2248,4.860,5.110
2249,4.870,5.110
2250,4.870,5.110
2251,4.855,5.085
2252,4.845,5.095
2253,4.855,5.100
2254,4.850,5.080
2255,4.825,5.075
2256,4.825,5.075
2257,4.830,5.070
2258,4.840,5.070
2259,4.830,5.060
2260,4.820,5.075
2261,4.830,5.090
2262,4.825,5.090
2263,4.820,5.065
2264,4.810,5.070
2265,4.820,5.065
2266,4.830,5.085
2267,4.825,5.060
2268,4.825,5.055
2269,4.825,5.070
2270,4.840,5.080
2271,4.840,5.065
2272,4.855,5.065
2273,4.880,5.070
2274,4.900,5.090
2275,4.895,5.085
2276,4.900,5.075
2277,4.910,5.075
2278,4.930,5.090
2279,4.940,5.085
2280,4.940,5.075
2281,4.930,5.080
2282,4.940,5.105
2283,4.955,5.100
2284,4.940,5.080
2285,4.920,5.065
2286,4.905,5.070
2287,4.890,5.055
2288,4.890,5.020
2289,4.895,5.020
2290,4.910,5.060
2291,4.915,5.090
2292,4.890,5.095
2293,4.855,5.095
2294,4.845,5.095
2295,4.835,5.105
2296,4.820,5.085
2297,4.795,5.065
2298,4.790,5.075
2299,4.790,5.075
2300,4.780,5.070
2301,4.760,5.060
2302,4.755,5.070
2303,4.770,5.075
2304,4.770,5.070
2305,4.760,5.055
2306,4.755,5.070
2307,4.770,5.085
2308,4.770,5.070
2309,4.750,5.055
2310,4.750,5.055
2311,4.765,5.075
2312,4.770,5.075
2313,4.755,5.065
2314,4.705,5.060
2315,4.640,5.060
2316,4.605,5.040
2317,4.680,5.060
2318,4.800,5.125
2319,5.105,5.210
2320,5.580,5.415
2321,6.090,5.695
2322,6.520,6.015
2323,6.835,6.335
2324,6.895,6.490
2325,6.875,6.510
2326,6.000,6.030
2327,5.300,5.455
2328,4.845,4.970
2329,4.645,4.705
2330,4.625,4.695
2331,4.740,4.835
2332,4.870,5.010
2333,4.870,5.110
2334,4.830,5.125
2335,4.795,5.110
2336,4.800,5.100
2337,4.795,5.120
2338,4.780,5.105
2339,4.745,5.100
2340,4.745,5.105
2341,4.750,5.110
2342,4.740,5.095
2343,4.725,5.105
2344,4.715,5.100
2345,4.725,5.105
2346,4.730,5.095
2347,4.710,5.100
2348,4.725,5.105
2349,4.725,5.110
2350,4.730,5.105
2351,4.715,5.100
2352,4.710,5.105
2353,4.730,5.115
2354,4.730,5.110
2355,4.725,5.110
2356,4.730,5.115
2357,4.740,5.135
2358,4.750,5.130
2359,4.740,5.130
2360,4.730,5.130
2361,4.755,5.140
2362,4.760,5.145
2363,4.760,5.130
2364,4.765,5.145
2365,4.775,5.155
2366,4.790,5.160
2367,4.790,5.160
2368,4.785,5.155
2369,4.810,5.180
2370,4.835,5.190
2371,4.840,5.185
2372,4.840,5.195
2373,4.865,5.220
2374,4.895,5.235
2375,4.900,5.235
2376,4.930,5.240
2377,4.950,5.255
2378,4.990,5.280
2379,5.020,5.280
2380,5.025,5.300
2381,5.045,5.320
2382,5.075,5.340
2383,5.095,5.355
2384,5.120,5.350
2385,5.140,5.380
2386,5.170,5.420
2387,5.195,5.430
2388,5.210,5.410
2389,5.215,5.425
2390,5.235,5.445
2391,5.245,5.455
2392,5.250,5.450
2393,5.245,5.450
2394,5.250,5.455
2395,5.255,5.450
2396,5.240,5.435
2397,5.210,5.425
2398,5.190,5.410
2399,5.175,5.405
2400,5.165,5.390
2401,5.100,5.355
2402,5.065,5.330
2403,5.035,5.305
2404,5.005,5.275
2405,4.965,5.250
2406,4.945,5.235
2407,4.925,5.230
2408,4.915,5.205
2409,4.890,5.185
2410,4.865,5.185
2411,4.875,5.175
2412,4.865,5.165
2413,4.850,5.145
2414,4.845,5.140
2415,4.845,5.140
2416,4.855,5.140
2417,4.850,5.130
2418,4.835,5.125
2419,4.835,5.135
2420,4.840,5.145
2421,4.830,5.120
2422,4.825,5.120
2423,4.830,5.130
2424,4.850,5.145
2425,4.850,5.150
2426,4.850,5.130
2427,4.860,5.155
2428,4.870,5.160
2429,4.875,5.145
2430,4.865,5.140
2431,4.870,5.155
2432,4.900,5.165
2433,4.895,5.180
2434,4.890,5.160
2435,4.880,5.170
2436,4.890,5.175
2437,4.895,5.165
2438,4.890,5.165
2439,4.885,5.180
2440,4.890,5.185
2441,4.885,5.185
2442,4.895,5.170
2443,4.880,5.160
2444,4.880,5.175
2445,4.890,5.185
2446,4.880,5.160
2447,4.865,5.150
2448,4.870,5.165
2449,4.865,5.160
2450,4.870,5.150
2451,4.855,5.140
2452,4.845,5.145
2453,4.850,5.150
2454,4.850,5.135
2455,4.835,5.120
2456,4.830,5.120
2457,4.835,5.135
2458,4.835,5.115
2459,4.820,5.110
2460,4.820,5.110
2461,4.810,5.105
2462,4.805,5.095
2463,4.805,5.090
2464,4.785,5.090
2465,4.805,5.095
2466,4.810,5.095
2467,4.800,5.085
2468,4.780,5.085
2469,4.790,5.085
2470,4.805,5.085
2471,4.790,5.070
2472,4.775,5.065
2473,4.780,5.085
2474,4.795,5.085
2475,4.800,5.080
2476,4.785,5.055
2477,4.780,5.060
2478,4.800,5.080
2479,4.810,5.075
2480,4.815,5.070
2481,4.835,5.070
2482,4.870,5.085
2483,4.860,5.080
2484,4.860,5.080
2485,4.845,5.090
2486,4.880,5.090
2487,4.900,5.080
2488,4.890,5.065
2489,4.875,5.065
2490,4.900,5.085
2491,4.905,5.085
2492,4.895,5.080
2493,4.875,5.070
2494,4.855,5.070
2495,4.845,5.055
2496,4.830,5.030
2497,4.835,5.025
2498,4.855,5.055
2499,4.850,5.095
2500,4.840,5.105
2501,4.800,5.090
2502,4.785,5.090
2503,4.800,5.095
2504,4.775,5.085
2505,4.750,5.070
2506,4.740,5.075
2507,4.735,5.075
2508,4.730,5.060
2509,4.720,5.045
2510,4.705,5.060
2511,4.725,5.065
2512,4.735,5.075
2513,4.710,5.060
2514,4.710,5.060
2515,4.720,5.065
2516,4.720,5.080
2517,4.720,5.070
2518,4.720,5.060
2519,4.725,5.075
2520,4.730,5.080
2521,4.710,5.065
2522,4.640,5.055
2523,4.565,5.060
2524,4.530,5.030
2525,4.540,5.035
2526,4.690,5.075
2527,4.930,5.160
2528,5.395,5.315
2529,5.900,5.585
2530,6.350,5.900
2531,6.735,6.270
2532,6.930,6.560
2533,6.790,6.580
2534,6.290,6.305
2535,5.505,5.705
2536,4.905,5.075
2537,4.660,4.720
2538,4.615,4.685
2539,4.695,4.815
2540,4.815,4.990
2541,4.840,5.105
2542,4.790,5.130
2543,4.765,5.115
2544,4.755,5.110
2545,4.755,5.100
2546,4.725,5.095
2547,4.695,5.080
2548,4.695,5.095
2549,4.695,5.095
2550,4.685,5.090
2551,4.670,5.075
2552,4.670,5.080
2553,4.675,5.095
2554,4.675,5.085
2555,4.660,5.075
2556,4.650,5.085
2557,4.670,5.095
2558,4.675,5.095
2559,4.675,5.090
2560,4.665,5.095
2561,4.685,5.110
2562,4.675,5.115
2563,4.680,5.095
2564,4.670,5.100
2565,4.685,5.105
2566,4.695,5.115
2567,4.690,5.110
2568,4.675,5.110
2569,4.700,5.120
2570,4.715,5.130
2571,4.710,5.115
2572,4.715,5.130
2573,4.725,5.145
2574,4.745,5.150
2575,4.750,5.140
2576,4.755,5.155
2577,4.780,5.175
2578,4.795,5.190
2579,4.805,5.190
2580,4.820,5.190
2581,4.830,5.210
2582,4.860,5.230
2583,4.880,5.235
2584,4.885,5.245
2585,4.925,5.265
2586,4.960,5.285
2587,4.985,5.300
2588,4.980,5.320
2589,5.015,5.330
2590,5.050,5.360
2591,5.090,5.385
2592,5.100,5.380
2593,5.115,5.390
2594,5.145,5.425
2595,5.165,5.440
2596,5.175,5.450
2597,5.185,5.440
2598,5.205,5.470
2599,5.220,5.475
2600,5.230,5.475
2601,5.215,5.465
2602,5.220,5.470
2603,5.220,5.485
2604,5.200,5.465
2605,5.165,5.435
2606,5.145,5.440
2607,5.120,5.430
2608,5.090,5.400
2609,5.060,5.360
2610,5.025,5.350
2611,5.000,5.325
2612,4.965,5.300
2613,4.930,5.260
2614,4.895,5.250
2615,4.885,5.235
2616,4.865,5.210
2617,4.845,5.185
2618,4.825,5.175
2619,4.830,5.165
2620,4.820,5.170
2621,4.810,5.145
2622,4.800,5.140
2623,4.810,5.135
2624,4.815,5.140
2625,4.810,5.135
2626,4.800,5.125
2627,4.790,5.135
2628,4.800,5.135
2629,4.810,5.125
2630,4.795,5.110
2631,4.800,5.120
2632,4.815,5.135
2633,4.825,5.140
2634,4.815,5.125
2635,4.810,5.130
2636,4.820,5.140
2637,4.835,5.140
2638,4.830,5.135
2639,4.825,5.165
2640,4.825,5.175
2641,4.840,5.175
2642,4.830,5.160
2643,4.825,5.150
2644,4.840,5.165
2645,4.845,5.170
2646,4.845,5.165
2647,4.845,5.160
2648,4.835,5.175
2649,4.850,5.190
2650,4.850,5.185
2651,4.830,5.155
2652,4.820,5.170
2653,4.830,5.180
2654,4.830,5.165
2655,4.810,5.150
2656,4.825,5.155
2657,4.845,5.160
2658,4.845,5.165
2659,4.830,5.155
2660,4.815,5.145
2661,4.815,5.155
2662,4.810,5.140
2663,4.800,5.125
2664,4.800,5.125
2665,4.805,5.140
2666,4.800,5.130
2667,4.785,5.115
2668,4.785,5.105
2669,4.780,5.115
2670,4.790,5.115
2671,4.780,5.105
2672,4.765,5.090
2673,4.760,5.090
2674,4.775,5.100
2675,4.775,5.105
2676,4.760,5.085
2677,4.755,5.095
2678,4.775,5.095
2679,4.760,5.080
2680,4.745,5.085
2681,4.740,5.085
2682,4.750,5.090
2683,4.750,5.085
2684,4.745,5.075
2685,4.740,5.085
2686,4.740,5.095
2687,4.745,5.095
2688,4.745,5.075
2689,4.740,5.080
2690,4.760,5.090
2691,4.770,5.090
2692,4.780,5.075
2693,4.785,5.070
2694,4.805,5.080
2695,4.815,5.085
2696,4.825,5.085
2697,4.820,5.085
2698,4.830,5.100
2699,4.860,5.110
2700,4.870,5.110
2701,4.845,5.090
2702,4.855,5.100
2703,4.875,5.105
2704,4.855,5.085
2705,4.835,5.070
2706,4.810,5.065
2707,4.810,5.065
2708,4.805,5.045
2709,4.805,5.025
2710,4.810,5.045
2711,4.810,5.090
2712,4.795,5.110
2713,4.765,5.100
2714,4.745,5.085
2715,4.745,5.105
2716,4.735,5.090
2717,4.720,5.085
2718,4.700,5.070
2719,4.710,5.080
2720,4.705,5.080
2721,4.690,5.065
2722,4.680,5.050
2723,4.695,5.055
2724,4.695,5.070
2725,4.695,5.080
2726,4.680,5.065
2727,4.680,5.080
2728,4.695,5.085
2729,4.700,5.085
2730,4.690,5.070
2731,4.685,5.080
2732,4.690,5.095
2733,4.690,5.085
2734,4.685,5.075
2735,4.665,5.090
2736,4.620,5.095
2737,4.555,5.075
2738,4.550,5.055
2739,4.620,5.100
2740,4.775,5.160
2741,5.080,5.260
2742,5.560,5.475
2743,6.020,5.790
2744,6.415,6.085
2745,6.670,6.365
2746,6.720,6.515
2747,6.460,6.435
2748,5.900,6.100
2749,5.290,5.540
2750,5.120,5.355
2751,4.620,4.745
2752,4.575,4.715
2753,4.640,4.825
2754,4.750,4.965
2755,4.780,5.090
2756,4.745,5.155
2757,4.725,5.150
2758,4.715,5.130
2759,4.710,5.110
2760,4.710,5.120
2761,4.700,5.130
2762,4.680,5.130
2763,4.670,5.110
2764,4.650,5.100
2765,4.665,5.125
2766,4.660,5.115
2767,4.655,5.105
2768,4.650,5.105
2769,4.645,5.115
2770,4.655,5.125
2771,4.640,5.125
2772,4.635,5.105
2773,4.635,5.125
2774,4.650,5.125
2775,4.650,5.120
2776,4.650,5.120
2777,4.650,5.125
2778,4.665,5.140
2779,4.655,5.125
2780,4.650,5.115
2781,4.650,5.130
2782,4.665,5.150
2783,4.675,5.140
2784,4.670,5.130
2785,4.670,5.135
2786,4.685,5.155
2787,4.690,5.165
2788,4.695,5.155
2789,4.685,5.155
2790,4.710,5.180
2791,4.740,5.175
2792,4.735,5.190
2793,4.740,5.195
2794,4.760,5.210
2795,4.780,5.225
2796,4.775,5.225
2797,4.805,5.230
2798,4.830,5.255
2799,4.855,5.275
2800,4.865,5.285
2801,4.890,5.295
2802,4.930,5.315
2803,4.950,5.320
2804,4.970,5.330
2805,4.985,5.340
2806,5.010,5.365
2807,5.050,5.385
2808,5.065,5.400
2809,5.075,5.395
2810,5.095,5.410
2811,5.120,5.435
2812,5.140,5.450
2813,5.150,5.435
2814,5.150,5.460
2815,5.170,5.470
2816,5.165,5.470
2817,5.165,5.475
2818,5.150,5.470
2819,5.155,5.465
2820,5.155,5.460
2821,5.125,5.440
2822,5.090,5.425
2823,5.070,5.420
2824,5.060,5.405
2825,5.045,5.395
2826,4.980,5.340
2827,4.960,5.330
2828,4.945,5.320
2829,4.910,5.285
2830,4.885,5.250
2831,4.880,5.235
2832,4.870,5.230
2833,4.855,5.220
2834,4.840,5.185
2835,4.825,5.185
2836,4.825,5.180
2837,4.825,5.180
2838,4.820,5.160
2839,4.810,5.150
2840,4.810,5.165
2841,4.815,5.170
2842,4.810,5.145
2843,4.790,5.145
2844,4.790,5.155
2845,4.805,5.145
2846,4.805,5.145
2847,4.795,5.140
2848,4.800,5.155
2849,4.815,5.155
2850,4.810,5.155
2851,4.810,5.145
2852,4.820,5.160
2853,4.830,5.165
2854,4.830,5.160
2855,4.825,5.150
2856,4.820,5.165
2857,4.840,5.185
2858,4.840,5.175
2859,4.835,5.165
2860,4.835,5.185
2861,4.845,5.195
2862,4.850,5.185
2863,4.860,5.170
2864,4.845,5.180
2865,4.855,5.200
2866,4.875,5.200
2867,4.855,5.195
2868,4.845,5.185
2869,4.850,5.200
2870,4.860,5.195
2871,4.845,5.185
2872,4.845,5.175
2873,4.845,5.195
2874,4.860,5.205
2875,4.860,5.200
2876,4.835,5.180
2877,4.825,5.180
2878,4.845,5.190
2879,4.835,5.175
2880,4.810,5.165
2881,4.800,5.170
2882,4.825,5.180
2883,4.820,5.170
2884,4.810,5.155
2885,4.805,5.145
2886,4.800,5.160
2887,4.805,5.145
2888,4.780,5.140
2889,4.780,5.125
2890,4.780,5.140
2891,4.785,5.130
2892,4.765,5.120
2893,4.760,5.115
2894,4.760,5.120
2895,4.765,5.130
2896,4.765,5.105
2897,4.750,5.100
2898,4.750,5.110
2899,4.765,5.115
2900,4.760,5.120
2901,4.745,5.090
2902,4.745,5.100
2903,4.755,5.105
2904,4.755,5.105
2905,4.735,5.090
2906,4.730,5.100
2907,4.745,5.105
2908,4.750,5.100
2909,4.740,5.085
2910,4.720,5.080
2911,4.735,5.090
2912,4.730,5.095
2913,4.730,5.080
2914,4.720,5.095
2915,4.745,5.090
2916,4.775,5.095
2917,4.775,5.085
2918,4.790,5.090
2919,4.805,5.105
2920,4.810,5.105
2921,4.810,5.095
2922,4.810,5.085
2923,4.830,5.115
2924,4.840,5.115
2925,4.840,5.120
2926,4.835,5.080
2927,4.845,5.090
2928,4.860,5.120
2929,4.855,5.105
2930,4.830,5.090
2931,4.825,5.095
2932,4.825,5.085
2933,4.800,5.065
2934,4.790,5.045
2935,4.795,5.050
2936,4.810,5.060
2937,4.800,5.090
2938,4.770,5.095
2939,4.765,5.100
2940,4.750,5.115
2941,4.740,5.125
2942,4.720,5.100
2943,4.700,5.095
2944,4.705,5.085
2945,4.695,5.085
2946,4.675,5.075
2947,4.670,5.060
2948,4.670,5.075
2949,4.680,5.085
2950,4.675,5.080
2951,4.655,5.060
2952,4.650,5.070
2953,4.665,5.070
2954,4.660,5.080
2955,4.655,5.065
2956,4.660,5.075
2957,4.675,5.085
2958,4.670,5.085
2959,4.665,5.070
2960,4.660,5.080
2961,4.665,5.075
2962,4.650,5.085
2963,4.590,5.065
2964,4.495,5.050
2965,4.480,5.050
2966,4.525,5.065
2967,4.610,5.095
2968,4.750,5.150
2969,5.090,5.250
2970,5.580,5.460
2971,6.070,5.760
2972,6.500,6.115
2973,6.815,6.485
2974,6.855,6.660
2975,6.825,6.680
2976,5.875,6.085
2977,5.155,5.465
2978,4.740,4.965
2979,4.600,4.710
2980,4.580,4.685
2981,4.645,4.815
2982,4.765,4.980
2983,4.790,5.090
2984,4.740,5.135
2985,4.715,5.125
2986,4.710,5.135
2987,4.705,5.120
2988,4.690,5.105
2989,4.675,5.110
2990,4.655,5.100
2991,4.640,5.100
2992,4.640,5.090
2993,4.630,5.095
2994,4.635,5.115
2995,4.625,5.100
2996,4.630,5.095
2997,4.620,5.085
2998,4.615,5.100
2999,4.625,5.105
3000,4.625,5.110
3001,4.615,5.095
3002,4.620,5.105
3003,4.630,5.115
3004,4.620,5.115
3005,4.620,5.105
3006,4.625,5.115
3007,4.635,5.120
3008,4.635,5.125
3009,4.635,5.115
3010,4.635,5.120
3011,4.650,5.130
3012,4.650,5.135
3013,4.650,5.120
3014,4.645,5.135
3015,4.660,5.140
3016,4.675,5.145
3017,4.675,5.145
3018,4.675,5.140
3019,4.690,5.160
3020,4.710,5.170
3021,4.720,5.160
3022,4.715,5.170
3023,4.735,5.190
3024,4.765,5.210
3025,4.775,5.210
3026,4.785,5.195
3027,4.815,5.225
3028,4.840,5.240
3029,4.855,5.250
3030,4.860,5.265
3031,4.895,5.295
3032,4.925,5.315
3033,4.950,5.325
3034,4.975,5.325
3035,4.985,5.345
3036,5.015,5.375
3037,5.045,5.400
3038,5.060,5.390
3039,5.080,5.395
3040,5.105,5.420
3041,5.130,5.435
3042,5.135,5.435
3043,5.145,5.445
3044,5.155,5.465
3045,5.165,5.470
3046,5.175,5.460
3047,5.160,5.450
3048,5.165,5.465
3049,5.165,5.455
3050,5.155,5.445
3051,5.110,5.415
3052,5.090,5.410
3053,5.070,5.400
3054,5.045,5.370
3055,4.995,5.345
3056,4.960,5.335
3057,4.950,5.320
3058,4.915,5.295
3059,4.890,5.255
3060,4.855,5.245
3061,4.845,5.235
3062,4.830,5.215
3063,4.820,5.185
3064,4.785,5.175
3065,4.790,5.175
3066,4.780,5.170
3067,4.775,5.150
3068,4.765,5.135
3069,4.765,5.130
3070,4.755,5.135
3071,4.765,5.125
3072,4.755,5.125
3073,4.755,5.140
3074,4.770,5.140
3075,4.760,5.135
3076,4.760,5.115
3077,4.760,5.135
3078,4.780,5.140
3079,4.770,5.135
3080,4.765,5.130
3081,4.760,5.140
3082,4.780,5.155
3083,4.790,5.145
3084,4.785,5.135
3085,4.775,5.145
3086,4.790,5.155
3087,4.785,5.170
3088,4.790,5.160
3089,4.795,5.155
3090,4.805,5.165
3091,4.795,5.175
3092,4.805,5.170
3093,4.790,5.165
3094,4.805,5.175
3095,4.810,5.180
3096,4.815,5.170
3097,4.795,5.160
3098,4.805,5.185
3099,4.800,5.175
3100,4.805,5.180
3101,4.785,5.165
3102,4.785,5.165
3103,4.795,5.170
3104,4.780,5.155
3105,4.770,5.135
3106,4.765,5.145
3107,4.775,5.155
3108,4.780,5.150
3109,4.760,5.130
3110,4.755,5.125
3111,4.755,5.135
3112,4.760,5.120
3113,4.735,5.105
3114,4.740,5.110
3115,4.735,5.105
3116,4.735,5.110
3117,4.715,5.095
3118,4.715,5.085
3119,4.715,5.100
3120,4.720,5.095
3121,4.715,5.080
3122,4.705,5.075
3123,4.700,5.085
3124,4.710,5.090
3125,4.715,5.095
3126,4.695,5.065
3127,4.700,5.075
3128,4.700,5.085
3129,4.710,5.080
3130,4.705,5.070
3131,4.695,5.065
3132,4.700,5.070
3133,4.710,5.070
3134,4.705,5.060
3135,4.700,5.065
3136,4.710,5.075
3137,4.700,5.070
3138,4.695,5.055
3139,4.685,5.060
3140,4.705,5.065
3141,4.720,5.075
3142,4.710,5.060
3143,4.705,5.065
3144,4.730,5.065
3145,4.760,5.065
3146,4.765,5.060
3147,4.765,5.065
3148,4.765,5.080
3149,4.790,5.085
3150,4.790,5.090
3151,4.800,5.070
3152,4.815,5.080
3153,4.820,5.080
3154,4.825,5.085
3155,4.830,5.070
3156,4.820,5.080
3157,4.810,5.085
3158,4.805,5.075
3159,4.790,5.055
3160,4.760,5.035
3161,4.760,5.025
3162,4.765,5.025
3163,4.775,5.025
3164,4.765,5.055
3165,4.760,5.090
3166,4.740,5.095
3167,4.720,5.070
3168,4.700,5.060
3169,4.695,5.075
3170,4.690,5.070
3171,4.680,5.060
3172,4.660,5.050
3173,4.645,5.060
3174,4.660,5.045
3175,4.655,5.035
3176,4.640,5.035
3177,4.645,5.035
3178,4.645,5.060
3179,4.645,5.055
3180,4.645,5.035
3181,4.635,5.050
3182,4.645,5.065
3183,4.645,5.055
3184,4.635,5.040
3185,4.630,5.040
3186,4.650,5.055
3187,4.640,5.050
3188,4.635,5.045
3189,4.630,5.050
3190,4.625,5.055
3191,4.565,5.045
3192,4.480,5.020
3193,4.460,5.005
3194,4.555,5.050
3195,4.680,5.110
3196,4.970,5.180
3197,5.450,5.370
3198,5.985,5.705
3199,6.450,6.065
3200,6.585,6.175
3201,6.855,6.610
3202,6.615,6.570
3203,5.955,6.125
3204,5.190,5.435
3205,4.705,4.885
3206,4.570,4.650
3207,4.555,4.660
3208,4.605,4.775
3209,4.705,4.920
3210,4.740,5.050
3211,4.705,5.125
3212,4.685,5.115
3213,4.670,5.085
3214,4.645,5.090
3215,4.650,5.105
3216,4.650,5.085
3217,4.620,5.070
3218,4.610,5.065
3219,4.605,5.085
3220,4.605,5.075
3221,4.600,5.065
3222,4.585,5.065
3223,4.585,5.080
3224,4.600,5.090
3225,4.605,5.085
3226,4.580,5.065
3227,4.585,5.080
3228,4.605,5.105
3229,4.590,5.090
3230,4.580,5.080
3231,4.595,5.085
3232,4.605,5.100
3233,4.600,5.095
3234,4.595,5.085
3235,4.600,5.095
3236,4.620,5.115
3237,4.620,5.110
3238,4.625,5.100
3239,4.605,5.105
3240,4.635,5.130
3241,4.650,5.130
3242,4.665,5.120
3243,4.650,5.130
3244,4.670,5.155
3245,4.685,5.160
3246,4.690,5.145
3247,4.700,5.160
3248,4.725,5.195
3249,4.760,5.200
3250,4.765,5.210
3251,4.780,5.215
3252,4.815,5.245
3253,4.850,5.255
3254,4.865,5.280
3255,4.885,5.270
3256,4.915,5.295
3257,4.945,5.320
3258,4.970,5.335
3259,4.980,5.335
3260,5.005,5.360
3261,5.040,5.375
3262,5.045,5.390
3263,5.065,5.385
3264,5.075,5.405
3265,5.110,5.425
3266,5.125,5.430
3267,5.125,5.435
3268,5.135,5.435
3269,5.145,5.450
3270,5.145,5.450
3271,5.135,5.440
3272,5.115,5.420
3273,5.105,5.420
3274,5.090,5.405
3275,5.080,5.400
3276,5.015,5.345
3277,4.990,5.350
3278,4.955,5.330
3279,4.920,5.305
3280,4.880,5.270
3281,4.855,5.255
3282,4.845,5.245
3283,4.815,5.210
3284,4.785,5.185
3285,4.775,5.175
3286,4.780,5.175
3287,4.765,5.150
3288,4.755,5.145
3289,4.735,5.150
3290,4.740,5.150
3291,4.745,5.140
3292,4.740,5.125
3293,4.735,5.125
3294,4.730,5.125
3295,4.745,5.135
3296,4.740,5.120
3297,4.725,5.110
3298,4.740,5.140
3299,4.750,5.130
3300,4.755,5.135
3301,4.745,5.120
3302,4.750,5.135
3303,4.755,5.145
3304,4.770,5.145
3305,4.765,5.145
3306,4.765,5.145
3307,4.785,5.170
3308,4.780,5.155
3309,4.775,5.150
3310,4.775,5.165
3311,4.785,5.170
3312,4.800,5.170
3313,4.790,5.160
3314,4.785,5.170
3315,4.790,5.180
3316,4.800,5.170
3317,4.790,5.155
3318,4.775,5.160
3319,4.780,5.165
3320,4.785,5.170
3321,4.785,5.165
3322,4.765,5.150
3323,4.775,5.160
3324,4.760,5.150
3325,4.765,5.145
3326,4.755,5.135
3327,4.745,5.140
3328,4.760,5.140
3329,4.740,5.125
3330,4.730,5.110
3331,4.710,5.115
3332,4.730,5.120
3333,4.720,5.110
3334,4.715,5.090
3335,4.720,5.100
3336,4.720,5.110
3337,4.730,5.095
3338,4.705,5.080
3339,4.700,5.085
3340,4.715,5.085
3341,4.710,5.090
3342,4.700,5.075
3343,4.685,5.065
3344,4.700,5.075
3345,4.700,5.075
3346,4.695,5.060
3347,4.680,5.055
3348,4.690,5.075
3349,4.695,5.075
3350,4.700,5.070
3351,4.685,5.055
3352,4.680,5.065
3353,4.700,5.075
3354,4.695,5.075
3355,4.685,5.055
3356,4.680,5.075
3357,4.695,5.085
3358,4.700,5.065
3359,4.695,5.055
3360,4.680,5.055
3361,4.700,5.075
3362,4.685,5.065
3363,4.690,5.065
3364,4.680,5.070
3365,4.700,5.070
3366,4.695,5.075
3367,4.690,5.065
3368,4.695,5.065
3369,4.700,5.075
3370,4.720,5.080
3371,4.750,5.080
3372,4.745,5.070
3373,4.760,5.080
3374,4.780,5.095
3375,4.785,5.100
3376,4.790,5.085
3377,4.790,5.090
3378,4.810,5.095
3379,4.825,5.080
3380,4.810,5.065
3381,4.815,5.080
3382,4.815,5.090
3383,4.815,5.075
3384,4.790,5.055
3385,4.765,5.035
3386,4.770,5.045
3387,4.765,5.030
3388,4.780,5.030
3389,4.780,5.060
3390,4.780,5.095
3391,4.760,5.100
3392,4.740,5.085
3393,4.720,5.080
3394,4.725,5.095
3395,4.720,5.095
3396,4.700,5.065
3397,4.685,5.065
3398,4.670,5.075
3399,4.685,5.075
3400,4.680,5.070
3401,4.670,5.065
3402,4.665,5.065
3403,4.675,5.070
3404,4.670,5.075
3405,4.665,5.060
3406,4.660,5.085
3407,4.675,5.100
3408,4.675,5.095
3409,4.660,5.075
3410,4.665,5.080
3411,4.670,5.100
3412,4.675,5.100
3413,4.665,5.085
3414,4.655,5.085
3415,4.680,5.100
3416,4.695,5.110
3417,4.685,5.095
3418,4.675,5.105
3419,4.685,5.125
3420,4.645,5.115
3421,4.555,5.090
3422,4.530,5.080
3423,4.615,5.135
3424,4.770,5.195
3425,4.825,5.215
3426,5.615,5.515
3427,6.195,5.885
3428,6.675,6.285
3429,6.925,6.625
3430,6.795,6.640
3431,6.155,6.240
3432,5.345,5.525
3433,4.785,4.935
3434,4.600,4.705
3435,4.600,4.785
3436,4.710,4.940
3437,4.805,5.090
3438,4.790,5.160
3439,4.740,5.180
3440,4.740,5.170
3441,4.750,5.170
3442,4.730,5.155
3443,4.695,5.155
3444,4.675,5.165
3445,4.685,5.160
3446,4.675,5.145
3447,4.670,5.135
3448,4.670,5.155
3449,4.690,5.170
3450,4.690,5.165
3451,4.670,5.150
3452,4.675,5.160
3453,4.685,5.180
3454,4.695,5.170
3455,4.680,5.160
3456,4.680,5.175
3457,4.700,5.190
3458,4.710,5.190
3459,4.695,5.175
3460,4.695,5.185
3461,4.715,5.195
3462,4.735,5.200
3463,4.720,5.190
3464,4.720,5.200
3465,4.740,5.225
3466,4.760,5.220
3467,4.760,5.215
3468,4.760,5.225
3469,4.790,5.245
3470,4.810,5.255
3471,4.815,5.250
3472,4.820,5.260
3473,4.840,5.280
3474,4.880,5.300
3475,4.890,5.305
3476,4.910,5.320
3477,4.940,5.340
3478,4.970,5.365
3479,5.000,5.375
3480,5.015,5.380
3481,5.045,5.415
3482,5.090,5.450
3483,5.115,5.460
3484,5.130,5.450
3485,5.145,5.455
3486,5.185,5.485
3487,5.200,5.500
3488,5.210,5.495
3489,5.215,5.505
3490,5.240,5.535
3491,5.260,5.530
3492,5.260,5.530
3493,5.250,5.530
3494,5.250,5.540
3495,5.250,5.545
3496,5.230,5.525
3497,5.200,5.505
3498,5.195,5.510
3499,5.175,5.505
3500,5.165,5.495
3501,5.100,5.455
3502,5.065,5.445
3503,5.050,5.420
3504,5.015,5.390
3505,4.985,5.360
3506,4.960,5.350
3507,4.950,5.335
3508,4.940,5.325
3509,4.915,5.300
3510,4.900,5.295
3511,4.900,5.295
3512,4.895,5.280
3513,4.880,5.265
3514,4.870,5.280
3515,4.880,5.270
3516,4.885,5.270
3517,4.880,5.260
3518,4.870,5.255
3519,4.890,5.265
3520,4.900,5.275
3521,4.895,5.265
3522,4.885,5.270
3523,4.885,5.275
3524,4.900,5.295
3525,4.905,5.290
3526,4.900,5.280
3527,4.915,5.285
3528,4.915,5.300
3529,4.920,5.295
3530,4.910,5.285
3531,4.915,5.305
3532,4.935,5.310
3533,4.940,5.310
3534,4.935,5.305
3535,4.935,5.320
3536,4.935,5.330
3537,4.945,5.325
3538,4.945,5.325
3539,4.935,5.315
3540,4.940,5.335
3541,4.955,5.335
3542,4.940,5.325
3543,4.930,5.325
3544,4.940,5.325
3545,4.950,5.335
3546,4.940,5.330
3547,4.930,5.315
3548,4.935,5.320
3549,4.935,5.320
3550,4.935,5.320
3551,4.915,5.300
3552,4.910,5.305
3553,4.920,5.300
3554,4.915,5.290
3555,4.905,5.280
3556,4.895,5.280
3557,4.900,5.295
3558,4.895,5.285
3559,4.890,5.270
3560,4.880,5.275
3561,4.890,5.280
3562,4.885,5.275
3563,4.885,5.260
3564,4.865,5.275
3565,4.870,5.265
3566,4.880,5.280
3567,4.855,5.260
3568,4.850,5.245
3569,4.870,5.255
3570,4.865,5.245
3571,4.860,5.250
3572,4.850,5.250
3573,4.850,5.255
3574,4.860,5.245
3575,4.865,5.240
3576,4.840,5.230
3577,4.845,5.245
3578,4.855,5.260
3579,4.850,5.245
3580,4.845,5.225
3581,4.845,5.240
3582,4.840,5.250
3583,4.855,5.250
3584,4.845,5.240
3585,4.840,5.240
3586,4.845,5.250
3587,4.860,5.250
3588,4.850,5.235
3589,4.850,5.235
3590,4.875,5.260
3591,4.905,5.260
3592,4.910,5.260
3593,4.915,5.250
3594,4.935,5.255
3595,4.940,5.265
3596,4.940,5.260
3597,4.945,5.265
3598,4.960,5.280
3599,4.975,5.270
3600,4.975,5.265
3601,4.965,5.250
3602,4.970,5.270
3603,4.965,5.275
3604,4.945,5.250
3605,4.905,5.215
3606,4.910,5.225
3607,4.935,5.240
3608,4.935,5.245
3609,4.925,5.255
3610,4.910,5.285
3611,4.895,5.295
3612,4.880,5.295
3613,4.860,5.275
3614,4.845,5.265
3615,4.835,5.270
3616,4.830,5.265
3617,4.820,5.255
3618,4.810,5.245
3619,4.805,5.250
3620,4.815,5.255
3621,4.815,5.240
3622,4.795,5.250
3623,4.815,5.260
3624,4.815,5.265
3625,4.810,5.270
3626,4.800,5.245
3627,4.795,5.265
3628,4.790,5.255
3629,4.800,5.260
3630,4.805,5.260
3631,4.800,5.265
3632,4.820,5.265
3633,4.810,5.265
3634,4.820,5.260
3635,4.810,5.265
3636,4.825,5.280
3637,4.830,5.285
3638,4.810,5.270
3639,4.790,5.280
3640,4.725,5.275
3641,4.655,5.255
3642,4.680,5.260
3643,4.775,5.325
3644,5.000,5.395
3645,5.460,5.560
3646,6.040,5.875
3647,6.545,6.255
3648,6.920,6.635
3649,6.995,6.825
3650,6.975,6.835
3651,5.875,6.015
3652,5.110,5.295
3653,4.775,4.895
3654,4.710,4.855
3655,4.775,5.010
3656,4.895,5.195
3657,4.940,5.325
3658,4.895,5.340
3659,4.875,5.300
3660,4.865,5.315
3661,4.860,5.335
3662,4.840,5.325
3663,4.815,5.310
3664,4.810,5.305
3665,4.805,5.310
3666,4.815,5.300
3667,4.805,5.305
3668,4.790,5.300
3669,4.795,5.325
3670,4.805,5.325
3671,4.790,5.320
3672,4.780,5.305
3673,4.795,5.330
3674,4.790,5.325
3675,4.790,5.330
3676,4.790,5.310
3677,4.795,5.320
3678,4.810,5.330
3679,4.805,5.330
3680,4.805,5.315
3681,4.805,5.335
3682,4.825,5.340
3683,4.830,5.350
3684,4.820,5.340
3685,4.825,5.340
3686,4.840,5.360
3687,4.860,5.360
3688,4.855,5.360
3689,4.860,5.355
3690,4.880,5.365
3691,4.900,5.380
3692,4.905,5.375
3693,4.915,5.390
3694,4.945,5.415
3695,4.970,5.440
3696,4.980,5.440
3697,5.005,5.450
3698,5.035,5.470
3699,5.065,5.495
3700,5.075,5.505
3701,5.090,5.510
3702,5.135,5.540
3703,5.165,5.550
3704,5.175,5.560
3705,5.180,5.555
3706,5.200,5.580
3707,5.220,5.600
3708,5.245,5.605
3709,5.250,5.600
3710,5.260,5.615
3711,5.280,5.635
3712,5.285,5.640
3713,5.285,5.620
3714,5.270,5.620
3715,5.280,5.630
3716,5.275,5.615
3717,5.230,5.610
3718,5.210,5.595
3719,5.195,5.585
3720,5.175,5.580
3721,5.135,5.545
3722,5.095,5.525
3723,5.070,5.505
3724,5.045,5.485
3725,5.030,5.460
3726,4.975,5.425
3727,4.960,5.415
3728,4.960,5.405
3729,4.940,5.385
3730,4.920,5.365
3731,4.900,5.355
3732,4.900,5.360
3733,4.895,5.340
3734,4.875,5.320
3735,4.870,5.325
3736,4.885,5.335
3737,4.895,5.320
3738,4.870,5.300
3739,4.860,5.300
3740,4.870,5.310
3741,4.880,5.315
3742,4.870,5.310
3743,4.865,5.300
3744,4.875,5.315
3745,4.880,5.315
3746,4.875,5.315
3747,4.865,5.315
3748,4.885,5.325
3749,4.905,5.330
3750,4.900,5.325
3751,4.880,5.315
3752,4.900,5.340
3753,4.905,5.345
3754,4.890,5.330
3755,4.890,5.335
3756,4.895,5.340
3757,4.905,5.345
3758,4.905,5.335
3759,4.900,5.325
3760,4.890,5.335
3761,4.900,5.350
3762,4.910,5.355
3763,4.895,5.335
3764,4.910,5.335
3765,4.900,5.345
3766,4.905,5.355
3767,4.890,5.340
3768,4.880,5.335
3769,4.895,5.345
3770,4.895,5.345
3771,4.890,5.320
3772,4.880,5.310
3773,4.865,5.320
3774,4.875,5.320
3775,4.875,5.325
3776,4.860,5.300
3777,4.865,5.305
3778,4.870,5.305
3779,4.855,5.290
3780,4.845,5.275
3781,4.835,5.280
3782,4.830,5.285
3783,4.835,5.270
3784,4.810,5.260
3785,4.800,5.260
3786,4.820,5.275
3787,4.825,5.265
3788,4.805,5.245
3789,4.790,5.240
3790,4.795,5.250
3791,4.810,5.245
3792,4.800,5.220
3793,4.785,5.225
3794,4.795,5.235
3795,4.800,5.225
3796,4.785,5.215
3797,4.770,5.220
3798,4.765,5.210
3799,4.780,5.225
3800,4.775,5.225
3801,4.765,5.190
3802,4.770,5.190
3803,4.780,5.205
3804,4.775,5.195
3805,4.765,5.190
3806,4.755,5.190
3807,4.775,5.210
3808,4.770,5.205
3809,4.755,5.190
3810,4.740,5.195
3811,4.760,5.205
3812,4.765,5.210
3813,4.750,5.195
3814,4.750,5.200
3815,4.775,5.210
3816,4.790,5.195
3817,4.790,5.200
3818,4.805,5.190
3819,4.830,5.210
3820,4.845,5.210
3821,4.840,5.210
3822,4.835,5.205
3823,4.850,5.210
3824,4.855,5.205
3825,4.855,5.200
3826,4.855,5.195
3827,4.850,5.205
3828,4.845,5.190
3829,4.820,5.160
3830,4.790,5.135
3831,4.785,5.145
3832,4.805,5.155
3833,4.820,5.160
3834,4.815,5.185
3835,4.780,5.195
3836,4.775,5.205
3837,4.765,5.195
3838,4.750,5.180
3839,4.725,5.175
3840,4.730,5.180
3841,4.725,5.180
3842,4.710,5.160
3843,4.690,5.150
3844,4.690,5.155
3845,4.700,5.145
3846,4.685,5.145
3847,4.680,5.140
3848,4.690,5.155
3849,4.690,5.160
3850,4.695,5.165
3851,4.675,5.145
3852,4.675,5.150
3853,4.675,5.165
3854,4.680,5.155
3855,4.665,5.145
3856,4.655,5.140
3857,4.680,5.150
3858,4.675,5.145
3859,4.680,5.140
3860,4.675,5.150
3861,4.685,5.160
3862,4.690,5.150
3863,4.675,5.150
3864,4.655,5.150
3865,4.600,5.155
3866,4.530,5.140
3867,4.530,5.125
3868,4.605,5.175
3869,4.755,5.230
3870,5.055,5.320
3871,5.530,5.515
3872,5.995,5.810
3873,6.430,6.135
3874,6.710,6.420
3875,6.765,6.505
3876,6.445,6.405
3877,5.765,5.955
3878,5.090,5.345
3879,4.725,4.900
3880,4.570,4.725
3881,4.535,4.780
3882,4.645,4.910
3883,4.745,5.045
3884,4.750,5.150
3885,4.715,5.180
3886,4.715,5.165
3887,4.725,5.160
3888,4.690,5.160
3889,4.660,5.155
3890,4.655,5.155
3891,4.645,5.145
3892,4.655,5.145
3893,4.640,5.135
3894,4.635,5.140
3895,4.645,5.155
3896,4.640,5.150
3897,4.620,5.140
3898,4.635,5.155
3899,4.645,5.145
3900,4.645,5.140
3901,4.630,5.135
3902,4.630,5.145
3903,4.645,5.160
3904,4.645,5.140
3905,4.635,5.135
3906,4.640,5.150
3907,4.645,5.155
3908,4.650,5.160
3909,4.650,5.155
3910,4.640,5.145
3911,4.660,5.165
3912,4.665,5.165
3913,4.655,5.150
3914,4.670,5.155
3915,4.680,5.180
3916,4.690,5.190
3917,4.695,5.185
3918,4.685,5.175
3919,4.720,5.200
3920,4.735,5.210
3921,4.740,5.195
3922,4.735,5.215
3923,4.760,5.235
3924,4.785,5.245
3925,4.780,5.240
3926,4.810,5.245
3927,4.840,5.270
3928,4.860,5.300
3929,4.890,5.310
3930,4.905,5.320
3931,4.915,5.340
3932,4.955,5.355
3933,4.970,5.365
3934,4.980,5.365
3935,4.995,5.380
3936,5.025,5.405
3937,5.040,5.420
3938,5.055,5.405
3939,5.060,5.415
3940,5.090,5.425
3941,5.100,5.450
3942,5.095,5.440
3943,5.095,5.450
3944,5.115,5.455
3945,5.115,5.455
3946,5.100,5.440
3947,5.085,5.425
3948,5.070,5.435
3949,5.065,5.420
3950,5.060,5.410
3951,5.010,5.375
3952,4.985,5.365
3953,4.960,5.355
3954,4.930,5.320
3955,4.885,5.290
3956,4.870,5.270
3957,4.850,5.265
3958,4.835,5.240
3959,4.805,5.205
3960,4.790,5.190
3961,4.795,5.190
3962,4.770,5.175
3963,4.765,5.150
3964,4.745,5.145
3965,4.750,5.150
3966,4.740,5.150
3967,4.735,5.125
3968,4.720,5.115
3969,4.735,5.130
3970,4.735,5.125
3971,4.730,5.120
3972,4.715,5.105
3973,4.725,5.125
3974,4.725,5.120
3975,4.730,5.110
3976,4.720,5.100
3977,4.720,5.110
3978,4.735,5.130
3979,4.740,5.125
3980,4.735,5.110
3981,4.730,5.120
3982,4.750,5.120
3983,4.750,5.125
3984,4.745,5.110
3985,4.740,5.135
3986,4.750,5.145
3987,4.765,5.135
3988,4.765,5.120
3989,4.755,5.135
3990,4.755,5.145
3991,4.780,5.135
3992,4.765,5.135
3993,4.760,5.130
3994,4.770,5.135
3995,4.775,5.140
3996,4.755,5.120
3997,4.755,5.105
3998,4.750,5.120
3999,4.765,5.130
4000,4.765,5.125
4001,4.740,5.110
4002,4.750,5.110
4003,4.745,5.120
4004,4.745,5.085
4005,4.725,5.085
4006,4.725,5.085
4007,4.730,5.095
4008,4.725,5.090
4009,4.710,5.065
4010,4.700,5.065
4011,4.710,5.065
4012,4.705,5.055
4013,4.685,5.050
4014,4.675,5.045
4015,4.685,5.045
4016,4.690,5.030
4017,4.675,5.020
4018,4.675,5.010
4019,4.675,5.020
4020,4.680,5.025
4021,4.670,5.010
4022,4.660,4.995
4023,4.655,5.000
4024,4.660,5.000
4025,4.665,4.990
4026,4.645,4.985
4027,4.650,4.990
4028,4.655,5.000
4029,4.645,4.985
4030,4.645,4.965
4031,4.635,4.970
4032,4.655,4.980
4033,4.645,4.980
4034,4.630,4.960
4035,4.635,4.970
4036,4.650,4.975
4037,4.655,4.975
4038,4.650,4.965
4039,4.665,4.965
4040,4.700,4.980
4041,4.720,4.980
4042,4.715,4.975
4043,4.710,4.960
4044,4.725,4.995
4045,4.750,4.990
4046,4.740,4.970
4047,4.725,4.960
4048,4.720,4.960
4049,4.740,4.960
4050,4.745,4.950
4051,4.725,4.930
4052,4.710,4.925
4053,4.695,4.925
4054,4.685,4.895
4055,4.675,4.890
4056,4.695,4.910
4057,4.705,4.950
4058,4.690,4.955
4059,4.655,4.960
4060,4.630,4.960
4061,4.635,4.965
4062,4.615,4.950
4063,4.600,4.935
4064,4.590,4.930
4065,4.570,4.930
4066,4.570,4.930
4067,4.555,4.920
4068,4.560,4.910
4069,4.560,4.925
4070,4.565,4.920
4071,4.570,4.910
4072,4.550,4.905
4073,4.560,4.915
4074,4.565,4.930
4075,4.560,4.925
4076,4.550,4.900
4077,4.560,4.920
4078,4.575,4.925
4079,4.565,4.925
4080,4.545,4.905
4081,4.540,4.925
4082,4.505,4.930
4083,4.420,4.900
4084,4.395,4.890
4085,4.500,4.945
4086,4.655,5.010
4087,5.010,5.115
4088,5.525,5.350
4089,6.065,5.695
4090,6.510,6.065
4091,6.740,6.375
4092,6.630,6.430
4093,6.145,6.170
4094,5.395,5.585
4095,4.790,4.945
4096,4.495,4.555
4097,4.450,4.495
4098,4.505,4.625
4099,4.620,4.775
4100,4.655,4.825
4101,4.625,4.950
4102,4.605,4.955
4103,4.600,4.945
4104,4.585,4.930
4105,4.565,4.920
4106,4.545,4.925
4107,4.545,4.915
4108,4.535,4.925
4109,4.515,4.905
4110,4.490,4.905
4111,4.515,4.925
4112,4.515,4.920
4113,4.505,4.910
4114,4.500,4.900
4115,4.515,4.920
4116,4.520,4.930
4117,4.510,4.915
4118,4.505,4.915
4119,4.510,4.925
4120,4.520,4.925
4121,4.515,4.920
4122,4.515,4.910
4123,4.520,4.935
4124,4.530,4.945
4125,4.530,4.945
4126,4.515,4.920
4127,4.525,4.935
4128,4.545,4.945
4129,4.550,4.945
4130,4.545,4.940
4131,4.555,4.955
4132,4.580,4.970
4133,4.570,4.965
4134,4.575,4.950
4135,4.585,4.975
4136,4.600,4.985
4137,4.620,4.995
4138,4.620,4.985
4139,4.630,5.000
4140,4.660,5.020
4141,4.675,5.030
4142,4.700,5.035
4143,4.705,5.050
4144,4.755,5.080
4145,4.785,5.095
4146,4.790,5.095
4147,4.815,5.105
4148,4.840,5.135
4149,4.885,5.155
4150,4.895,5.150
4151,4.920,5.160
4152,4.945,5.180
4153,4.975,5.190
4154,4.990,5.195
4155,5.000,5.190
4156,5.010,5.215
4157,5.030,5.235
4158,5.050,5.240
4159,5.045,5.245
4160,5.055,5.255
4161,5.065,5.265
4162,5.075,5.260
4163,5.050,5.250
4164,5.040,5.255
4165,5.030,5.245
4166,5.025,5.235
4167,4.985,5.200
4168,4.950,5.185
4169,4.935,5.170
4170,4.905,5.160
4171,4.875,5.125
4172,4.825,5.100
4173,4.790,5.085
4174,4.775,5.065
4175,4.760,5.055
4176,4.720,5.005
4177,4.695,4.995
4178,4.705,4.980
4179,4.675,4.970
4180,4.655,4.955
4181,4.650,4.940
4182,4.650,4.935
4183,4.655,4.930
4184,4.640,4.915
4185,4.615,4.915
4186,4.625,4.930
4187,4.635,4.930
4188,4.630,4.910
4189,4.620,4.905
4190,4.630,4.915
4191,4.630,4.920
4192,4.630,4.900
4193,4.625,4.905
4194,4.635,4.920
4195,4.640,4.915
4196,4.645,4.900
4197,4.620,4.910
4198,4.635,4.925
4199,4.645,4.930
4200,4.650,4.930
4201,4.650,4.920
4202,4.655,4.920
4203,4.665,4.945
4204,4.675,4.935
4205,4.670,4.920
4206,4.670,4.940
4207,4.685,4.945
4208,4.685,4.945
4209,4.675,4.935
4210,4.675,4.945
4211,4.685,4.945
4212,4.690,4.950
4213,4.680,4.935
4214,4.675,4.930
4215,4.685,4.945
4216,4.685,4.935
4217,4.670,4.920
4218,4.665,4.915
4219,4.665,4.920
4220,4.675,4.925
4221,4.660,4.920
4222,4.660,4.915
4223,4.660,4.910
4224,4.660,4.915
4225,4.650,4.910
4226,4.635,4.890
4227,4.625,4.895
4228,4.645,4.900
4229,4.635,4.875
4230,4.615,4.870
4231,4.605,4.880
4232,4.620,4.885
4233,4.620,4.870
4234,4.610,4.860
4235,4.600,4.860
4236,4.615,4.870
4237,4.610,4.865
4238,4.600,4.850
4239,4.600,4.855
4240,4.600,4.855
4241,4.605,4.865
4242,4.600,4.850
4243,4.590,4.850
4244,4.580,4.855
4245,4.590,4.850
4246,4.575,4.835
4247,4.575,4.825
4248,4.580,4.860
4249,4.580,4.850
4250,4.580,4.855
4251,4.570,4.825
4252,4.575,4.835
4253,4.580,4.845
4254,4.575,4.830
4255,4.570,4.820
4256,4.560,4.835
4257,4.570,4.835
4258,4.570,4.835
4259,4.570,4.825
4260,4.575,4.820
4261,4.590,4.840
4262,4.590,4.840
4263,4.595,4.825
4264,4.605,4.825
4265,4.650,4.840
4266,4.660,4.850
4267,4.655,4.855
4268,4.650,4.850
4269,4.665,4.860
4270,4.680,4.860
4271,4.685,4.850
4272,4.675,4.835
4273,4.680,4.860
4274,4.700,4.855
4275,4.705,4.845
4276,4.680,4.825
4277,4.665,4.825
4278,4.655,4.820
4279,4.635,4.805
4280,4.635,4.785
4281,4.650,4.795
4282,4.655,4.830
4283,4.635,4.855
4284,4.610,4.845
4285,4.590,4.845
4286,4.600,4.855
4287,4.580,4.850
4288,4.555,4.825
4289,4.540,4.820
4290,4.535,4.830
4291,4.525,4.835
4292,4.520,4.820
4293,4.510,4.815
4294,4.520,4.830
4295,4.520,4.835
4296,4.515,4.830
4297,4.505,4.830
4298,4.510,4.835
4299,4.515,4.840
4300,4.505,4.835
4301,4.505,4.815
4302,4.510,4.835
4303,4.540,4.840
4304,4.530,4.840
4305,4.530,4.820
4306,4.515,4.840
4307,4.485,4.860
4308,4.410,4.820
4309,4.365,4.800
4310,4.415,4.835
4311,4.540,4.895
4312,4.800,4.970
4313,5.280,5.150
4314,5.835,5.470
4315,6.350,5.845
4316,6.720,6.205
4317,6.765,6.355
4318,6.395,6.220
4319,5.650,5.730
4320,4.935,5.090
4321,4.535,4.610
4322,4.440,4.450
4323,4.440,4.500
4324,4.520,4.625
4325,4.560,4.665
4326,4.625,4.850
4327,4.585,4.890
4328,4.575,4.890
4329,4.570,4.860
4330,4.565,4.850
4331,4.540,4.865
4332,4.540,4.885
4333,4.525,4.860
4334,4.515,4.855
4335,4.505,4.850
4336,4.520,4.860
4337,4.515,4.870
4338,4.505,4.855
4339,4.490,4.860
4340,4.505,4.870
4341,4.510,4.870
4342,4.505,4.860
4343,4.495,4.855
4344,4.500,4.880
4345,4.505,4.875
4346,4.500,4.875
4347,4.495,4.860
4348,4.495,4.885
4349,4.515,4.885
4350,4.520,4.880
4351,4.505,4.875
4352,4.515,4.875
4353,4.535,4.890
4354,4.535,4.900
4355,4.530,4.890
4356,4.535,4.905
4357,4.545,4.915
4358,4.555,4.920
4359,4.560,4.915
4360,4.560,4.930
4361,4.595,4.945
4362,4.605,4.950
4363,4.595,4.940
4364,4.610,4.965
4365,4.645,4.975
4366,4.670,4.975
4367,4.675,4.990
4368,4.685,5.015
4369,4.725,5.035
4370,4.735,5.045
4371,4.760,5.050
4372,4.790,5.060
4373,4.815,5.090
4374,4.850,5.115
4375,4.855,5.125
4376,4.890,5.135
4377,4.930,5.170
4378,4.950,5.175
4379,4.960,5.185
4380,4.970,5.190
4381,4.985,5.215
4382,5.020,5.235
4383,5.030,5.235
4384,5.035,5.225
4385,5.040,5.240
4386,5.060,5.260
4387,5.075,5.260
4388,5.070,5.245
4389,5.045,5.260
4390,5.055,5.255
4391,5.040,5.255
4392,5.015,5.225
4393,4.985,5.210
4394,4.975,5.210
4395,4.955,5.190
4396,4.910,5.160
4397,4.870,5.135
4398,4.845,5.145
4399,4.815,5.105
4400,4.805,5.095
4401,4.755,5.040
4402,4.730,5.025
4403,4.730,5.015
4404,4.700,4.990
4405,4.680,4.980
4406,4.665,4.975
4407,4.680,4.975
4408,4.660,4.960
4409,4.650,4.930
4410,4.640,4.930
4411,4.650,4.935
4412,4.645,4.935
4413,4.640,4.920
4414,4.635,4.915
4415,4.650,4.925
4416,4.650,4.940
4417,4.645,4.920
4418,4.635,4.925
4419,4.645,4.940
4420,4.655,4.935
4421,4.655,4.930
4422,4.640,4.925
4423,4.650,4.940
4424,4.670,4.940
4425,4.675,4.935
4426,4.655,4.925
4427,4.660,4.955
4428,4.685,4.960
4429,4.680,4.955
4430,4.670,4.950
4431,4.675,4.950
4432,4.680,4.960
4433,4.675,4.955
4434,4.670,4.955
4435,4.680,4.960
4436,4.690,4.970
4437,4.700,4.960
4438,4.695,4.960
4439,4.685,4.975
4440,4.700,4.985
4441,4.690,4.975
4442,4.685,4.980
4443,4.685,4.965
4444,4.690,4.975
4445,4.700,4.985
4446,4.685,4.965
4447,4.680,4.965
4448,4.675,4.980
4449,4.675,4.980
4450,4.675,4.980
4451,4.660,4.955
4452,4.655,4.965
4453,4.665,4.965
4454,4.660,4.945
4455,4.645,4.925
4456,4.645,4.940
4457,4.660,4.960
4458,4.645,4.950
4459,4.640,4.930
4460,4.630,4.930
4461,4.640,4.940
4462,4.640,4.935
4463,4.625,4.920
4464,4.615,4.915
4465,4.615,4.925
4466,4.620,4.915
4467,4.615,4.905
4468,4.610,4.895
4469,4.620,4.920
4470,4.630,4.915
4471,4.615,4.910
4472,4.600,4.905
4473,4.610,4.915
4474,4.615,4.910
4475,4.610,4.905
4476,4.595,4.900
4477,4.595,4.905
4478,4.610,4.905
4479,4.615,4.900
4480,4.605,4.885
4481,4.610,4.895
4482,4.605,4.910
4483,4.610,4.905
4484,4.605,4.900
4485,4.600,4.915
4486,4.625,4.915
4487,4.620,4.905
4488,4.615,4.905
4489,4.610,4.900
4490,4.625,4.910
4491,4.645,4.905
4492,4.650,4.900
4493,4.640,4.910
4494,4.670,4.905
4495,4.685,4.915
4496,4.695,4.910
4497,4.690,4.910
4498,4.705,4.930
4499,4.720,4.940
4500,4.715,4.945
4501,4.730,4.915
4502,4.730,4.930
4503,4.730,4.935
4504,4.735,4.920
4505,4.730,4.900
4506,4.720,4.900
4507,4.725,4.915
4508,4.705,4.900
4509,4.690,4.885
4510,4.680,4.875
4511,4.705,4.880
4512,4.715,4.885
4513,4.715,4.895
4514,4.705,4.930
4515,4.685,4.955
4516,4.675,4.945
4517,4.655,4.935
4518,4.620,4.920
4519,4.615,4.935
4520,4.620,4.930
4521,4.620,4.920
4522,4.595,4.920
4523,4.590,4.925
4524,4.595,4.915
4525,4.595,4.905
4526,4.575,4.900
4527,4.580,4.930
4528,4.590,4.920
4529,4.590,4.920
4530,4.580,4.915
4531,4.575,4.925
4532,4.595,4.935
4533,4.590,4.935
4534,4.585,4.920
4535,4.580,4.930
4536,4.600,4.940
4537,4.605,4.945
4538,4.580,4.935
4539,4.570,4.930
4540,4.530,4.935
4541,4.480,4.915
4542,4.445,4.900
4543,4.505,4.925
4544,4.605,4.990
4545,4.790,5.045
4546,5.165,5.140
4547,5.640,5.380
4548,6.090,5.670
4549,6.490,5.960
4550,6.600,6.055
4551,6.735,6.325
4552,6.380,6.235
4553,5.710,5.815
4554,5.050,5.225
4555,4.650,4.780
4556,4.505,4.615
4557,4.515,4.615
4558,4.595,4.710
4559,4.695,4.850
4560,4.695,4.950
4561,4.680,5.000
4562,4.665,4.985
4563,4.635,4.960
4564,4.615,4.965
4565,4.635,4.985
4566,4.625,4.975
4567,4.595,4.965
4568,4.580,4.965
4569,4.585,4.970
4570,4.590,4.975
4571,4.585,4.960
4572,4.565,4.955
4573,4.575,4.975
4574,4.580,4.980
4575,4.580,4.975
4576,4.565,4.960
4577,4.565,4.975
4578,4.580,4.985
4579,4.575,4.980
4580,4.580,4.970
4581,4.575,4.980
4582,4.595,5.000
4583,4.595,4.995
4584,4.585,4.980
4585,4.580,4.985
4586,4.615,4.995
4587,4.615,5.000
4588,4.605,4.990
4589,4.610,5.005
4590,4.620,5.015
4591,4.625,5.020
4592,4.630,5.015
4593,4.625,5.020
4594,4.645,5.035
4595,4.660,5.045
4596,4.680,5.055
4597,4.680,5.050
4598,4.690,5.075
4599,4.720,5.070
4600,4.725,5.065
4601,4.740,5.090
4602,4.755,5.115
4603,4.795,5.125
4604,4.815,5.135
4605,4.835,5.150
4606,4.860,5.170
4607,4.905,5.195
4608,4.915,5.200
4609,4.925,5.215
4610,4.960,5.220
4611,4.990,5.255
4612,5.020,5.275
4613,5.030,5.270
4614,5.040,5.285
4615,5.075,5.315
4616,5.100,5.320
4617,5.105,5.320
4618,5.115,5.340
4619,5.140,5.355
4620,5.150,5.355
4621,5.145,5.350
4622,5.135,5.345
4623,5.140,5.360
4624,5.140,5.365
4625,5.135,5.370
4626,5.105,5.330
4627,5.090,5.330
4628,5.070,5.320
4629,5.055,5.295
4630,5.010,5.275
4631,4.980,5.265
4632,4.960,5.250
4633,4.930,5.220
4634,4.900,5.190
4635,4.875,5.170
4636,4.860,5.160
4637,4.835,5.140
4638,4.815,5.115
4639,4.790,5.100
4640,4.795,5.105
4641,4.785,5.080
4642,4.775,5.070
4643,4.755,5.065
4644,4.770,5.070
4645,4.770,5.060
4646,4.760,5.045
4647,4.745,5.050
4648,4.755,5.060
4649,4.755,5.060
4650,4.755,5.055
4651,4.755,5.040
4652,4.745,5.050
4653,4.765,5.055
4654,4.765,5.040
4655,4.770,5.040
4656,4.755,5.040
4657,4.785,5.060
4658,4.785,5.065
4659,4.785,5.060
4660,4.775,5.070
4661,4.795,5.085
4662,4.795,5.080
4663,4.805,5.070
4664,4.790,5.085
4665,4.810,5.085
4666,4.805,5.095
4667,4.800,5.085
4668,4.805,5.090
4669,4.810,5.105
4670,4.820,5.105
4671,4.820,5.100
4672,4.805,5.100
4673,4.820,5.115
4674,4.820,5.115
4675,4.815,5.110
4676,4.810,5.105
4677,4.810,5.115
4678,4.820,5.115
4679,4.815,5.100
4680,4.800,5.090
4681,4.805,5.105
4682,4.810,5.115
4683,4.800,5.100
4684,4.790,5.090
4685,4.785,5.085
4686,4.790,5.095
4687,4.785,5.090
4688,4.770,5.060
4689,4.760,5.055
4690,4.780,5.060
4691,4.770,5.055
4692,4.760,5.035
4693,4.745,5.030
4694,4.745,5.045
4695,4.755,5.045
4696,4.740,5.040
4697,4.730,5.040
4698,4.735,5.040
4699,4.735,5.045
4700,4.735,5.045
4701,4.700,5.035
4702,4.715,5.030
4703,4.735,5.035
4704,4.725,5.025
4705,4.715,5.020
4706,4.710,5.025
4707,4.735,5.025
4708,4.730,5.030
4709,4.715,5.005
4710,4.715,5.020
4711,4.735,5.030
4712,4.720,5.025
4713,4.720,5.010
4714,4.715,5.015
4715,4.725,5.030
4716,4.735,5.035
4717,4.740,5.025
4718,4.730,5.015
4719,4.755,5.030
4720,4.770,5.035
4721,4.770,5.020
4722,4.780,5.035
4723,4.790,5.045
4724,4.805,5.050
4725,4.800,5.055
4726,4.815,5.035
4727,4.830,5.050
4728,4.840,5.055
4729,4.835,5.045
4730,4.835,5.035
4731,4.830,5.035
4732,4.830,5.040
4733,4.810,5.025
4734,4.780,5.015
4735,4.770,5.010
4736,4.795,5.010
4737,4.805,5.020
4738,4.805,5.030
4739,4.785,5.060
4740,4.765,5.065
4741,4.750,5.070
4742,4.735,5.050
4743,4.715,5.045
4744,4.705,5.050
4745,4.700,5.040
4746,4.690,5.030
4747,4.685,5.015
4748,4.680,5.035
4749,4.680,5.030
4750,4.665,5.025
4751,4.670,5.015
4752,4.665,5.025
4753,4.685,5.025
4754,4.680,5.020
4755,4.670,5.035
4756,4.675,5.035
4757,4.690,5.045
4758,4.685,5.045
4759,4.675,5.030
4760,4.665,5.035
4761,4.680,5.045
4762,4.630,5.040
4763,4.545,5.020
4764,4.480,5.000
4765,4.535,5.025
4766,4.630,5.055
4767,4.810,5.105
4768,5.185,5.235
4769,5.740,5.485
4770,6.275,5.820
4771,6.730,6.170
4772,6.950,6.485
4773,6.915,6.595
4774,6.410,6.300
4775,6.185,6.165
4776,4.945,5.085
4777,4.625,4.715
4778,4.590,4.650
4779,4.635,4.745
4780,4.740,4.895
4781,4.785,5.030
4782,4.770,5.105
4783,4.735,5.095
4784,4.725,5.065
4785,4.715,5.060
4786,4.710,5.075
4787,4.685,5.070
4788,4.660,5.050
4789,4.640,5.060
4790,4.660,5.060
4791,4.650,5.075
4792,4.645,5.065
4793,4.635,5.060
4794,4.640,5.075
4795,4.645,5.070
4796,4.645,5.065
4797,4.635,5.065
4798,4.640,5.075
4799,4.645,5.095
4800,4.645,5.090
4801,4.640,5.080
4802,4.640,5.075
4803,4.655,5.080
4804,4.660,5.090
4805,4.660,5.090
4806,4.660,5.090
4807,4.670,5.110
4808,4.675,5.100
4809,4.680,5.095
4810,4.685,5.115
4811,4.705,5.115
4812,4.705,5.110
4813,4.710,5.105
4814,4.710,5.125
4815,4.735,5.140
4816,4.745,5.140
4817,4.760,5.145
4818,4.760,5.155
4819,4.795,5.180
4820,4.815,5.190
4821,4.830,5.195
4822,4.845,5.200
4823,4.880,5.220
4824,4.910,5.245
4825,4.915,5.255
4826,4.945,5.260
4827,4.990,5.295
4828,5.025,5.305
4829,5.040,5.325
4830,5.055,5.315
4831,5.080,5.355
4832,5.115,5.380
4833,5.140,5.390
4834,5.150,5.385
4835,5.165,5.400
4836,5.200,5.430
4837,5.220,5.435
4838,5.220,5.430
4839,5.225,5.445
4840,5.245,5.470
4841,5.245,5.465
4842,5.235,5.450
4843,5.230,5.440
4844,5.230,5.455
4845,5.205,5.435
4846,5.165,5.415
4847,5.135,5.395
4848,5.115,5.390
4849,5.085,5.365
4850,5.065,5.355
4851,4.990,5.290
4852,4.965,5.275
4853,4.945,5.245
4854,4.915,5.210
4855,4.885,5.180
4856,4.870,5.170
4857,4.855,5.170
4858,4.835,5.145
4859,4.830,5.135
4860,4.820,5.130
4861,4.820,5.140
4862,4.825,5.125
4863,4.810,5.105
4864,4.805,5.105
4865,4.815,5.115
4866,4.815,5.105
4867,4.810,5.095
4868,4.810,5.105
4869,4.820,5.115
4870,4.820,5.115
4871,4.815,5.105
4872,4.805,5.105
4873,4.805,5.120
4874,4.825,5.120
4875,4.815,5.115
4876,4.825,5.115
4877,4.825,5.130
4878,4.850,5.140
4879,4.840,5.150
4880,4.840,5.145
4881,4.840,5.160
4882,4.860,5.160
4883,4.850,5.165
4884,4.850,5.155
4885,4.850,5.165
4886,4.865,5.185
4887,4.865,5.175
4888,4.840,5.160
4889,4.840,5.155
4890,4.860,5.170
4891,4.850,5.165
4892,4.835,5.150
4893,4.835,5.155
4894,4.855,5.175
4895,4.855,5.185
4896,4.840,5.160
4897,4.815,5.150
4898,4.825,5.150
4899,4.830,5.155
4900,4.820,5.155
4901,4.810,5.140
4902,4.810,5.140
4903,4.815,5.135
4904,4.805,5.120
4905,4.800,5.115
4906,4.785,5.125
4907,4.800,5.130
4908,4.780,5.115
4909,4.765,5.105
4910,4.760,5.105
4911,4.770,5.115
4912,4.775,5.105
4913,4.770,5.090
4914,4.760,5.090
4915,4.765,5.095
4916,4.760,5.095
4917,4.755,5.075
4918,4.750,5.085
4919,4.755,5.095
4920,4.760,5.085
4921,4.760,5.080
4922,4.740,5.080
4923,4.750,5.085
4924,4.755,5.075
4925,4.760,5.080
4926,4.750,5.060
4927,4.755,5.080
4928,4.765,5.085
4929,4.755,5.070
4930,4.740,5.085
4931,4.750,5.085
4932,4.770,5.100
4933,4.770,5.075
4934,4.785,5.070
4935,4.805,5.075
4936,4.830,5.090
4937,4.830,5.090
4938,4.835,5.085
4939,4.835,5.095
4940,4.870,5.110
4941,4.870,5.095
4942,4.865,5.100
4943,4.860,5.090
4944,4.885,5.110
4945,4.875,5.105
4946,4.860,5.085
4947,4.835,5.065
4948,4.820,5.070
4949,4.815,5.055
4950,4.820,5.050
4951,4.825,5.050
4952,4.840,5.100
4953,4.825,5.125
4954,4.780,5.110
4955,4.760,5.090
4956,4.755,5.100
4957,4.760,5.100
4958,4.735,5.095
4959,4.720,5.090
4960,4.710,5.080
4961,4.720,5.085
4962,4.715,5.085
4963,4.700,5.070
4964,4.695,5.075
4965,4.705,5.090
4966,4.705,5.085
4967,4.695,5.070
4968,4.685,5.080
4969,4.705,5.090
4970,4.715,5.085
4971,4.705,5.075
4972,4.700,5.085
4973,4.700,5.105
4974,4.710,5.100
4975,4.705,5.095
4976,4.575,5.065
4977,4.540,5.060
4978,4.610,5.095
4979,4.740,5.125
4980,5.010,5.195
4981,5.515,5.410
4982,6.090,5.725
4983,6.560,6.070
4984,6.895,6.390
4985,6.940,6.530
4986,6.590,6.375
4987,5.790,5.830
4988,5.025,5.160
4989,4.660,4.765
4990,4.605,4.710
4991,4.635,4.785
4992,4.760,4.940
4993,4.830,5.090
4994,4.810,5.150
4995,4.770,5.135
4996,4.755,5.110
4997,4.750,5.115
4998,4.740,5.140
4999,4.735,5.130
5000,4.725,5.125
5001,4.710,5.105
5002,4.705,5.110
5003,4.710,5.115
5004,4.695,5.110
5005,4.680,5.105
5006,4.685,5.110
5007,4.705,5.110
5008,4.700,5.110
5009,4.685,5.100
5010,4.690,5.105
5011,4.695,5.115
5012,4.700,5.115
5013,4.685,5.120
5014,4.690,5.125
5015,4.710,5.140
5016,4.720,5.135
5017,4.705,5.130
5018,4.705,5.120
5019,4.715,5.135
5020,4.720,5.130
5021,4.720,5.140
5022,4.715,5.135
5023,4.735,5.155
5024,4.750,5.160
5025,4.745,5.170
5026,4.760,5.170
5027,4.770,5.185
5028,4.795,5.195
5029,4.810,5.205
5030,4.810,5.205
5031,4.835,5.215
5032,4.870,5.235
5033,4.890,5.240
5034,4.905,5.245
5035,4.925,5.275
5036,4.975,5.305
5037,4.995,5.315
5038,5.020,5.315
5039,5.035,5.330
5040,5.075,5.355
5041,5.110,5.385
5042,5.120,5.395
5043,5.140,5.400
5044,5.165,5.430
5045,5.195,5.450
5046,5.200,5.435
5047,5.215,5.450
5048,5.230,5.465
5049,5.250,5.475
5050,5.255,5.475
5051,5.250,5.470
5052,5.240,5.485
5053,5.240,5.485
5054,5.215,5.455
5055,5.190,5.430
5056,5.170,5.435
5057,5.155,5.420
5058,5.105,5.390
5059,5.060,5.340
5060,5.035,5.325
5061,5.010,5.315
5062,4.985,5.280
5063,4.945,5.250
5064,4.925,5.235
5065,4.915,5.230
5066,4.905,5.205
5067,4.890,5.190
5068,4.875,5.185
5069,4.870,5.185
5070,4.875,5.185
5071,4.870,5.160
5072,4.850,5.155
5073,4.850,5.165
5074,4.865,5.165
5075,4.860,5.170
5076,4.845,5.140
5077,4.855,5.155
5078,4.860,5.165
5079,4.855,5.150
5080,4.825,5.150
5081,4.850,5.165
5082,4.870,5.175
5083,4.875,5.175
5084,4.865,5.150
5085,4.855,5.165
5086,4.875,5.170
5087,4.880,5.180
5088,4.885,5.170
5089,4.880,5.185
5090,4.890,5.195
5091,4.900,5.185
5092,4.890,5.185
5093,4.890,5.195
5094,4.900,5.200
5095,4.910,5.190
5096,4.900,5.185
5097,4.895,5.190
5098,4.900,5.210
5099,4.910,5.200
5100,4.905,5.205
5101,4.890,5.175
5102,4.895,5.185
5103,4.910,5.190
5104,4.900,5.190
5105,4.875,5.170
5106,4.870,5.180
5107,4.880,5.175
5108,4.870,5.165
5109,4.860,5.155
5110,4.865,5.155
5111,4.855,5.160
5112,4.855,5.160
5113,4.860,5.140
5114,4.840,5.145
5115,4.845,5.155
5116,4.850,5.155
5117,4.840,5.135
5118,4.830,5.125
5119,4.840,5.135
5120,4.850,5.135
5121,4.835,5.120
5122,4.810,5.110
5123,4.825,5.120
5124,4.830,5.115
5125,4.825,5.120
5126,4.800,5.100
5127,4.800,5.110
5128,4.810,5.115
5129,4.800,5.105
5130,4.785,5.090
5131,4.800,5.110
5132,4.815,5.110
5133,4.805,5.100
5134,4.800,5.085
5135,4.790,5.090
5136,4.810,5.100
5137,4.805,5.100
5138,4.795,5.095
5139,4.780,5.095
5140,4.795,5.110
5141,4.815,5.110
5142,4.810,5.095
5143,4.815,5.085
5144,4.850,5.110
5145,4.880,5.105
5146,4.875,5.100
5147,4.870,5.090
5148,4.895,5.115
5149,4.915,5.120
5150,4.910,5.115
5151,4.900,5.095
5152,4.910,5.110
5153,4.925,5.105
5154,4.915,5.095
5155,4.910,5.085
5156,4.900,5.090
5157,4.895,5.075
5158,4.875,5.070
5159,4.845,5.045
5160,4.855,5.050
5161,4.890,5.060
5162,4.885,5.070
5163,4.855,5.090
5164,4.830,5.100
5165,4.825,5.105
5166,4.825,5.115
5167,4.805,5.115
5168,4.790,5.110
5169,4.790,5.105
5170,4.775,5.110
5171,4.760,5.080
5172,4.745,5.080
5173,4.750,5.090
5174,4.755,5.090
5175,4.750,5.100
5176,4.750,5.085
5177,4.760,5.105
5178,4.755,5.100
5179,4.760,5.100
5180,4.760,5.090
5181,4.755,5.095
5182,4.770,5.105
5183,4.765,5.105
5184,4.755,5.095
5185,4.735,5.100
5186,4.690,5.105
5187,4.625,5.080
5188,4.615,5.060
5189,4.700,5.120
5190,4.885,5.190
5191,5.235,5.305
5192,5.725,5.560
5193,6.235,5.885
5194,6.665,6.205
5195,6.890,6.440
5196,6.775,6.445
5197,6.210,6.135
5198,5.425,5.545
5199,4.900,5.035
5200,4.775,4.905
5201,4.655,4.810
5202,4.775,4.950
5203,4.875,5.100
5204,4.855,5.155
5205,4.805,5.145
5206,4.785,5.125
5207,4.795,5.135
5208,4.780,5.135
5209,4.750,5.125
5210,4.740,5.120
5211,4.740,5.115
5212,4.735,5.120
5213,4.720,5.115
5214,4.715,5.110
5215,4.730,5.115
5216,4.735,5.105
5217,4.715,5.100
5218,4.715,5.095
5219,4.730,5.120
5220,4.740,5.115
5221,4.740,5.110
5222,4.720,5.115
5223,4.730,5.135
5224,4.740,5.130
5225,4.745,5.130
5226,4.730,5.120
5227,4.745,5.130
5228,4.755,5.140
5229,4.760,5.130
5230,4.750,5.135
5231,4.765,5.155
5232,4.790,5.165
5233,4.795,5.165
5234,4.795,5.165
5235,4.800,5.180
5236,4.830,5.200
5237,4.830,5.200
5238,4.840,5.205
5239,4.855,5.220
5240,4.885,5.245
5241,4.915,5.255
5242,4.925,5.260
5243,4.945,5.275
5244,4.990,5.310
5245,5.025,5.325
5246,5.045,5.335
5247,5.065,5.355
5248,5.105,5.390
5249,5.130,5.400
5250,5.140,5.405
5251,5.160,5.415
5252,5.185,5.430
5253,5.220,5.455
5254,5.235,5.455
5255,5.240,5.460
5256,5.265,5.475
5257,5.270,5.475
5258,5.275,5.475
5259,5.260,5.465
5260,5.245,5.465
5261,5.240,5.460
5262,5.220,5.445
5263,5.180,5.415
5264,5.145,5.410
5265,5.135,5.380
5266,5.100,5.365
5267,5.055,5.330
5268,5.020,5.310
5269,5.005,5.290
5270,4.985,5.260
5271,4.955,5.245
5272,4.930,5.230
5273,4.925,5.225
5274,4.915,5.205
5275,4.905,5.200
5276,4.890,5.170
5277,4.880,5.180
5278,4.880,5.175
5279,4.870,5.160
5280,4.865,5.145
5281,4.870,5.145
5282,4.890,5.150
5283,4.885,5.150
5284,4.875,5.150
5285,4.875,5.160
5286,4.895,5.165
5287,4.890,5.165
5288,4.885,5.145
5289,4.880,5.160
5290,4.900,5.165
5291,4.910,5.160
5292,4.900,5.160
5293,4.905,5.165
5294,4.905,5.180
5295,4.915,5.180
5296,4.915,5.180
5297,4.905,5.175
5298,4.915,5.185
5299,4.915,5.200
5300,4.920,5.195
5301,4.900,5.180
5302,4.910,5.175
5303,4.915,5.180
5304,4.905,5.175
5305,4.920,5.170
5306,4.915,5.175
5307,4.920,5.185
5308,4.920,5.185
5309,4.910,5.170
5310,4.905,5.175
5311,4.925,5.185
5312,4.910,5.180
5313,4.895,5.165
5314,4.895,5.155
5315,4.890,5.170
5316,4.905,5.165
5317,4.890,5.145
5318,4.885,5.140
5319,4.890,5.150
5320,4.885,5.135
5321,4.880,5.125
5322,4.870,5.120
5323,4.870,5.135
5324,4.880,5.130
5325,4.875,5.125
5326,4.845,5.110
5327,4.845,5.110
5328,4.850,5.120
5329,4.845,5.100
5330,4.830,5.090
5331,4.830,5.095
5332,4.840,5.105
5333,4.840,5.095
5334,4.830,5.080
5335,4.820,5.085
5336,4.835,5.095
5337,4.830,5.085
5338,4.825,5.075
5339,4.815,5.075
5340,4.825,5.090
5341,4.830,5.085
5342,4.820,5.070
5343,4.815,5.065
5344,4.820,5.075
5345,4.825,5.075
5346,4.820,5.060
5347,4.815,5.060
5348,4.830,5.070
5349,4.855,5.075
5350,4.860,5.070
5351,4.880,5.070
5352,4.895,5.080
5353,4.910,5.095
5354,4.905,5.090
5355,4.900,5.080
5356,4.915,5.090
5357,4.935,5.095
5358,4.930,5.085
5359,4.925,5.080
5360,4.935,5.085
5361,4.945,5.100
5362,4.935,5.095
5363,4.910,5.075
5364,4.890,5.065
5365,4.880,5.065
5366,4.890,5.050
5367,4.895,5.045
5368,4.895,5.070
5369,4.890,5.095
5370,4.870,5.105
5371,4.855,5.105
5372,4.830,5.095
5373,4.825,5.105
5374,4.820,5.105
5375,4.815,5.095
5376,4.780,5.075
5377,4.780,5.075
5378,4.790,5.075
5379,4.770,5.060
5380,4.750,5.055
5381,4.765,5.070
5382,4.770,5.080
5383,4.765,5.065
5384,4.745,5.055
5385,4.755,5.070
5386,4.765,5.080
5387,4.770,5.075
5388,4.760,5.060
5389,4.750,5.070
5390,4.770,5.070
5391,4.770,5.060
5392,4.755,5.065
5393,4.700,5.060
5394,4.635,5.060
5395,4.600,5.030
5396,4.630,5.035
5397,4.755,5.090
5398,5.010,5.180
5399,5.490,5.360
5400,5.660,5.450
5401,6.535,6.010
5402,6.950,6.375
5403,7.065,6.580
5404,6.815,6.505
5405,6.135,6.045
5406,5.335,5.390
5407,4.820,4.870
5408,4.665,4.665
5409,4.660,4.695
5410,4.775,4.880
5411,4.880,5.045
5412,4.870,5.125
5413,4.825,5.120
5414,4.800,5.095
5415,4.800,5.105
5416,4.800,5.110
5417,4.765,5.095
5418,4.740,5.085
5419,4.735,5.080
5420,4.735,5.085
5421,4.725,5.070
5422,4.720,5.085
5423,4.720,5.080
5424,4.735,5.090
5425,4.725,5.080
5426,4.715,5.070
5427,4.725,5.090
5428,4.735,5.095
5429,4.725,5.095
5430,4.715,5.080
5431,4.720,5.090
5432,4.745,5.105
5433,4.740,5.105
5434,4.730,5.095
5435,4.730,5.115
5436,4.750,5.125
5437,4.745,5.125
5438,4.750,5.110
5439,4.750,5.125
5440,4.760,5.130
5441,4.785,5.135
5442,4.780,5.130
5443,4.780,5.140
5444,4.805,5.155
5445,4.820,5.170
5446,4.830,5.165
5447,4.825,5.170
5448,4.855,5.195
5449,4.885,5.210
5450,4.900,5.210
5451,4.920,5.230
5452,4.955,5.250
5453,4.980,5.275
5454,5.020,5.280
5455,5.030,5.285
5456,5.065,5.330
5457,5.090,5.345
5458,5.120,5.345
5459,5.140,5.365
5460,5.175,5.395
5461,5.200,5.405
5462,5.215,5.420
5463,5.215,5.410
5464,5.230,5.430
5465,5.255,5.445
5466,5.275,5.445
5467,5.270,5.450
5468,5.270,5.455
5469,5.280,5.465
5470,5.290,5.460
5471,5.270,5.445
5472,5.250,5.430
5473,5.240,5.445
5474,5.220,5.425
5475,5.215,5.420
5476,5.145,5.370
5477,5.115,5.365
5478,5.090,5.330
5479,5.055,5.305
5480,5.010,5.270
5481,4.990,5.250
5482,4.975,5.230
5483,4.950,5.210
5484,4.920,5.195
5485,4.900,5.175
5486,4.905,5.175
5487,4.895,5.160
5488,4.870,5.140
5489,4.865,5.130
5490,4.860,5.135
5491,4.875,5.135
5492,4.860,5.120
5493,4.845,5.110
5494,4.860,5.130
5495,4.870,5.125
5496,4.860,5.120
5497,4.855,5.115
5498,4.860,5.125
5499,4.865,5.120
5500,4.875,5.115
5501,4.855,5.115
5502,4.850,5.125
5503,4.875,5.120
5504,4.870,5.125
5505,4.860,5.115
5506,4.875,5.130
5507,4.900,5.135
5508,4.890,5.135
5509,4.885,5.135
5510,4.890,5.140
5511,4.905,5.150
5512,4.910,5.145
5513,4.900,5.155
5514,4.890,5.140
5515,4.905,5.165
5516,4.910,5.155
5517,4.895,5.150
5518,4.890,5.150
5519,4.900,5.170
5520,4.895,5.160
5521,4.890,5.150
5522,4.895,5.150
5523,4.900,5.160
5524,4.900,5.160
5525,4.900,5.150
5526,4.890,5.140
5527,4.895,5.150
5528,4.900,5.160
5529,4.875,5.130
5530,4.865,5.120
5531,4.870,5.130
5532,4.875,5.140
5533,4.870,5.120
5534,4.860,5.105
5535,4.860,5.120
5536,4.865,5.130
5537,4.870,5.115
5538,4.860,5.095
5539,4.850,5.110
5540,4.850,5.110
5541,4.840,5.095
5542,4.835,5.085
5543,4.835,5.085
5544,4.845,5.095
5545,4.840,5.090
5546,4.830,5.080
5547,4.825,5.065
5548,4.830,5.075
5549,4.830,5.085
5550,4.830,5.080
5551,4.820,5.055
5552,4.820,5.065
5553,4.835,5.075
5554,4.815,5.060
5555,4.810,5.050
5556,4.810,5.065
5557,4.825,5.075
5558,4.830,5.060
5559,4.820,5.045
5560,4.820,5.055
5561,4.825,5.065
5562,4.830,5.060
5563,4.815,5.045
5564,4.815,5.050
5565,4.815,5.055
5566,4.825,5.060
5567,4.805,5.050
5568,4.820,5.050
5569,4.850,5.065
5570,4.880,5.060
5571,4.890,5.060
5572,4.875,5.060
5573,4.895,5.070
5574,4.905,5.070
5575,4.900,5.075
5576,4.915,5.065
5577,4.915,5.075
5578,4.930,5.090
5579,4.925,5.070
5580,4.925,5.060
5581,4.935,5.080
5582,4.925,5.075
5583,4.915,5.070
5584,4.890,5.050
5585,4.875,5.040
5586,4.870,5.030
5587,4.890,5.030
5588,4.890,5.035
5589,4.870,5.065
5590,4.865,5.095
5591,4.845,5.075
5592,4.825,5.075
5593,4.815,5.070
5594,4.810,5.080
5595,4.810,5.065
5596,4.790,5.050
5597,4.770,5.050
5598,4.755,5.060
5599,4.765,5.055
5600,4.760,5.045
5601,4.745,5.040
5602,4.750,5.060
5603,4.760,5.055
5604,4.755,5.040
5605,4.725,5.035
5606,4.735,5.050
5607,4.750,5.070
5608,4.765,5.050
5609,4.755,5.050
5610,4.745,5.050
5611,4.765,5.060
5612,4.750,5.055
5613,4.695,5.045
5614,4.600,5.040
5615,4.570,5.030
5616,4.640,5.050
5617,4.765,5.085
5618,5.055,5.175
5619,5.565,5.395
5620,6.130,5.700
5621,6.610,6.030
5622,6.940,6.375
5623,7.040,6.580
5624,6.810,6.510
5625,6.680,6.445
5626,5.405,5.475
5627,4.860,4.920
5628,4.690,4.680
5629,4.670,4.670
5630,4.710,4.785
5631,4.830,4.955
5632,4.885,5.080
5633,4.830,5.110
5634,4.795,5.090
5635,4.785,5.095
5636,4.790,5.090
5637,4.770,5.090
5638,4.745,5.065
5639,4.720,5.070
5640,4.730,5.075
5641,4.730,5.080
5642,4.720,5.080
5643,4.705,5.075
5644,4.710,5.080
5645,4.715,5.080
5646,4.705,5.080
5647,4.695,5.075
5648,4.710,5.100
5649,4.725,5.095
5650,4.720,5.100
5651,4.705,5.080
5652,4.710,5.100
5653,4.725,5.105
5654,4.725,5.100
5655,4.705,5.095
5656,4.725,5.115
5657,4.755,5.115
5658,4.755,5.120
5659,4.750,5.110
5660,4.750,5.115
5661,4.760,5.135
5662,4.780,5.130
5663,4.770,5.140
5664,4.775,5.140
5665,4.805,5.160
5666,4.815,5.155
5667,4.820,5.155
5668,4.830,5.175
5669,4.860,5.195
5670,4.885,5.200
5671,4.895,5.200
5672,4.910,5.225
5673,4.955,5.250
5674,4.990,5.260
5675,4.995,5.265
5676,5.025,5.285
5677,5.065,5.320
5678,5.095,5.335
5679,5.110,5.325
5680,5.115,5.340
5681,5.160,5.375
5682,5.185,5.390
5683,5.205,5.400
5684,5.210,5.405
5685,5.225,5.415
5686,5.265,5.435
5687,5.270,5.445
5688,5.275,5.440
5689,5.280,5.445
5690,5.290,5.465
5691,5.295,5.465
5692,5.260,5.450
5693,5.245,5.440
5694,5.250,5.445
5695,5.240,5.430
5696,5.195,5.415
5697,5.165,5.390
5698,5.130,5.375
5699,5.115,5.355
5700,5.100,5.345
5701,5.025,5.300
5702,5.010,5.280
5703,4.990,5.255
5704,4.960,5.230
5705,4.915,5.220
5706,4.900,5.200
5707,4.900,5.185
5708,4.885,5.175
5709,4.870,5.140
5710,4.865,5.135
5711,4.875,5.145
5712,4.875,5.140
5713,4.860,5.120
5714,4.840,5.125
5715,4.855,5.125
5716,4.860,5.110
5717,4.840,5.105
5718,4.830,5.105
5719,4.845,5.120
5720,4.860,5.120
5721,4.850,5.100
5722,4.855,5.105
5723,4.855,5.125
5724,4.870,5.120
5725,4.865,5.130
5726,4.850,5.120
5727,4.875,5.130
5728,4.885,5.140
5729,4.885,5.130
5730,4.860,5.120
5731,4.885,5.145
5732,4.900,5.150
5733,4.895,5.155
5734,4.890,5.145
5735,4.885,5.140
5736,4.900,5.145
5737,4.900,5.145
5738,4.885,5.140
5739,4.880,5.145
5740,4.900,5.155
5741,4.890,5.150
5742,4.895,5.130
5743,4.885,5.145
5744,4.885,5.170
5745,4.885,5.160
5746,4.880,5.140
5747,4.875,5.150
5748,4.890,5.170
5749,4.885,5.160
5750,4.890,5.155
5751,4.860,5.145
5752,4.860,5.145
5753,4.870,5.140
5754,4.855,5.125
5755,4.850,5.120
5756,4.855,5.125
5757,4.855,5.130
5758,4.850,5.120
5759,4.825,5.115
5760,4.835,5.110
5761,4.830,5.110
5762,4.830,5.115
5763,4.810,5.100
5764,4.810,5.085
5765,4.815,5.100
5766,4.835,5.105
5767,4.815,5.080
5768,4.810,5.085
5769,4.815,5.100
5770,4.825,5.090
5771,4.805,5.065
5772,4.790,5.075
5773,4.790,5.085
5774,4.795,5.085
5775,4.790,5.080
5776,4.775,5.065
5777,4.785,5.075
5778,4.800,5.080
5779,4.790,5.060
5780,4.775,5.055
5781,4.780,5.060
5782,4.800,5.050
5783,4.795,5.065
5784,4.785,5.050
5785,4.785,5.055
5786,4.790,5.070
5787,4.795,5.065
5788,4.790,5.060
5789,4.790,5.060
5790,4.800,5.075
5791,4.825,5.070
5792,4.845,5.065
5793,4.860,5.070
5794,4.860,5.085
5795,4.875,5.085
5796,4.870,5.080
5797,4.855,5.075
5798,4.880,5.080
5799,4.890,5.080
5800,4.895,5.080
5801,4.885,5.060
5802,4.905,5.075
5803,4.925,5.090
5804,4.910,5.075
5805,4.890,5.070
5806,4.875,5.065
5807,4.865,5.040
5808,4.855,5.025
5809,4.850,5.015
5810,4.860,5.025
5811,4.860,5.060
5812,4.855,5.085
5813,4.820,5.080
5814,4.790,5.090
5815,4.805,5.090
5816,4.785,5.080
5817,4.765,5.070
5818,4.750,5.065
5819,4.770,5.075
5820,4.760,5.075
5821,4.735,5.055
5822,4.735,5.045
5823,4.740,5.050
5824,4.750,5.065
5825,4.745,5.070
5826,4.740,5.055
5827,4.735,5.060
5828,4.745,5.045
5829,4.740,5.040
5830,4.735,5.045
5831,4.740,5.050
5832,4.755,5.070
5833,4.755,5.065
5834,4.730,5.060
5835,4.725,5.065
5836,4.670,5.065
5837,4.590,5.040
5838,4.590,5.030
5839,4.680,5.085
5840,4.860,5.150
5841,5.240,5.270
5842,5.780,5.535
5843,6.305,5.870
5844,6.735,6.195
5845,6.910,6.440
5846,6.750,6.425
5847,6.165,6.110
5848,5.415,5.535
5849,4.895,4.980
5850,4.770,4.840
5851,4.625,4.720
5852,4.725,4.850
5853,4.840,5.020
5854,4.845,5.095
5855,4.800,5.110
5856,4.790,5.110
5857,4.795,5.110
5858,4.785,5.095
5859,4.750,5.090
5860,4.735,5.090
5861,4.735,5.090
5862,4.735,5.090
5863,4.720,5.060
5864,4.710,5.075
5865,4.715,5.095
5866,4.720,5.085
5867,4.705,5.085
5868,4.705,5.090
5869,4.720,5.090
5870,4.715,5.085
5871,4.705,5.080
5872,4.705,5.090
5873,4.720,5.110
5874,4.730,5.105
5875,4.725,5.100
5876,4.710,5.090
5877,4.725,5.105
5878,4.740,5.115
5879,4.730,5.110
5880,4.730,5.085
5881,4.735,5.110
5882,4.740,5.120
5883,4.740,5.130
5884,4.740,5.120
5885,4.750,5.130
5886,4.770,5.135
5887,4.795,5.140
5888,4.785,5.145
5889,4.795,5.155
5890,4.840,5.175
5891,4.845,5.180
5892,4.840,5.185
5893,4.855,5.185
5894,4.895,5.215
5895,4.910,5.225
5896,4.920,5.220
5897,4.935,5.250
5898,4.970,5.275
5899,4.995,5.300
5900,5.000,5.305
5901,5.045,5.315
5902,5.085,5.345
5903,5.110,5.355
5904,5.110,5.365
5905,5.125,5.375
5906,5.155,5.390
5907,5.190,5.415
5908,5.195,5.420
5909,5.200,5.420
5910,5.220,5.435
5911,5.245,5.445
5912,5.250,5.450
5913,5.250,5.440
5914,5.265,5.450
5915,5.260,5.465
5916,5.250,5.445
5917,5.240,5.420
5918,5.225,5.425
5919,5.205,5.435
5920,5.175,5.415
5921,5.135,5.370
5922,5.100,5.350
5923,5.075,5.345
5924,5.060,5.325
5925,5.050,5.310
5926,4.995,5.270
5927,4.980,5.260
5928,4.965,5.250
5929,4.935,5.215
5930,4.900,5.205
5931,4.905,5.190
5932,4.915,5.185
5933,4.905,5.175
5934,4.890,5.145
5935,4.870,5.155
5936,4.885,5.155
5937,4.875,5.150
5938,4.860,5.135
5939,4.870,5.125
5940,4.880,5.130
5941,4.885,5.145
5942,4.880,5.125
5943,4.875,5.155
5944,4.885,5.155
5945,4.885,5.155
5946,4.885,5.120
5947,4.885,5.130
5948,4.890,5.150
5949,4.900,5.150
5950,4.905,5.145
5951,4.880,5.140
5952,4.885,5.155
5953,4.905,5.160
5954,4.900,5.160
5955,4.895,5.155
5956,4.905,5.170
5957,4.915,5.175
5958,4.920,5.180
5959,4.910,5.175
5960,4.915,5.180
5961,4.925,5.185
5962,4.920,5.175
5963,4.910,5.170
5964,4.910,5.165
5965,4.910,5.185
5966,4.915,5.190
5967,4.905,5.175
5968,4.900,5.170
5969,4.900,5.175
5970,4.905,5.165
5971,4.895,5.155
5972,4.885,5.145
5973,4.880,5.165
5974,4.900,5.155
5975,4.900,5.155
5976,4.875,5.140
5977,4.880,5.155
5978,4.890,5.165
5979,4.880,5.145
5980,4.860,5.130
5981,4.860,5.135
5982,4.865,5.125
5983,4.860,5.120
5984,4.845,5.115
5985,4.840,5.110
5986,4.855,5.115
5987,4.855,5.105
5988,4.830,5.095
5989,4.820,5.105
5990,4.825,5.110
5991,4.830,5.110
5992,4.815,5.095
5993,4.810,5.095
5994,4.815,5.100
5995,4.810,5.090
5996,4.815,5.085
5997,4.810,5.085
5998,4.825,5.100
5999,4.835,5.095
6000,4.830,5.100
6001,4.805,5.080
6002,4.820,5.095
6003,4.825,5.095
6004,4.810,5.075
6005,4.810,5.075
6006,4.810,5.080
6007,4.815,5.090
6008,4.815,5.085
6009,4.805,5.075
6010,4.815,5.070
6011,4.835,5.090
6012,4.845,5.090
6013,4.860,5.080
6014,4.870,5.095
6015,4.890,5.110
6016,4.905,5.095
6017,4.895,5.095
6018,4.890,5.100
6019,4.920,5.110
6020,4.930,5.095
6021,4.915,5.085
6022,4.900,5.080
6023,4.920,5.095
6024,4.935,5.105
6025,4.930,5.100
6026,4.905,5.080
6027,4.890,5.090
6028,4.885,5.070
6029,4.870,5.045
6030,4.870,5.030
6031,4.885,5.050
6032,4.895,5.065
6033,4.885,5.090
6034,4.845,5.095
6035,4.830,5.110
6036,4.835,5.120
6037,4.830,5.110
6038,4.805,5.100
6039,4.775,5.090
6040,4.800,5.100
6041,4.795,5.095
6042,4.780,5.080
6043,4.770,5.070
6044,4.770,5.085
6045,4.780,5.085
6046,4.770,5.075
6047,4.755,5.075
6048,4.765,5.090
6049,4.775,5.085
6050,4.775,5.080
6051,4.760,5.075
6052,4.770,5.090
6053,4.780,5.095
6054,4.785,5.085
6055,4.760,5.085
6056,4.760,5.095
6057,4.765,5.105
6058,4.720,5.095
6059,4.650,5.065
6060,4.645,5.075
6061,4.715,5.110
6062,4.825,5.145
6063,5.030,5.210
6064,5.425,5.360
6065,5.890,5.620
6066,6.310,5.875
6067,6.640,6.130
6068,6.835,6.385
6069,6.785,6.420
6070,6.345,6.210
6071,5.645,5.735
6072,5.040,5.205
6073,4.725,4.870
6074,4.655,4.780
6075,4.665,4.775
6076,4.815,4.960
6077,4.885,5.095
6078,4.865,5.140
6079,4.830,5.155
6080,4.790,5.120
6081,4.810,5.125
6082,4.815,5.135
6083,4.795,5.125
6084,4.750,5.115
6085,4.760,5.115
6086,4.755,5.120
6087,4.750,5.105
6088,4.745,5.105
6089,4.745,5.105
6090,4.735,5.115
6091,4.750,5.120
6092,4.740,5.105
6093,4.745,5.105
6094,4.745,5.120
6095,4.755,5.120
6096,4.750,5.110
6097,4.735,5.110
6098,4.755,5.125
6099,4.755,5.125
6100,4.760,5.130
6101,4.745,5.120
6102,4.745,5.135
6103,4.750,5.135
6104,4.765,5.130
6105,4.760,5.130
6106,4.760,5.145
6107,4.780,5.140
6108,4.785,5.155
6109,4.780,5.145
6110,4.800,5.160
6111,4.820,5.170
6112,4.825,5.185
6113,4.820,5.170
6114,4.825,5.185
6115,4.855,5.200
6116,4.865,5.205
6117,4.865,5.200
6118,4.875,5.215
6119,4.915,5.245
6120,4.945,5.255
6121,4.940,5.250
6122,4.970,5.265
6123,5.005,5.285
6124,5.035,5.300
6125,5.035,5.305
6126,5.060,5.320
6127,5.090,5.365
6128,5.125,5.365
6129,5.150,5.365
6130,5.155,5.375
6131,5.165,5.405
6132,5.200,5.410
6133,5.215,5.420
6134,5.225,5.420
6135,5.235,5.440
6136,5.260,5.440
6137,5.270,5.435
6138,5.270,5.435
6139,5.265,5.450
6140,5.285,5.455
6141,5.295,5.450
6142,5.270,5.435
6143,5.250,5.430
6144,5.245,5.430
6145,5.225,5.415
6146,5.190,5.395
6147,5.155,5.380
6148,5.135,5.380
6149,5.115,5.355
6150,5.105,5.345
6151,5.035,5.290
6152,5.015,5.280
6153,5.005,5.270
6154,4.970,5.240
6155,4.945,5.210
6156,4.940,5.215
6157,4.920,5.190
6158,4.920,5.185
6159,4.895,5.165
6160,4.900,5.165
6161,4.890,5.170
6162,4.895,5.155
6163,4.880,5.140
6164,4.875,5.150
6165,4.885,5.140
6166,4.890,5.145
6167,4.880,5.125
6168,4.865,5.140
6169,4.870,5.140
6170,4.880,5.140
6171,4.880,5.115
6172,4.880,5.115
6173,4.900,5.125
6174,4.900,5.135
6175,4.910,5.135
6176,4.885,5.120
6177,4.895,5.135
6178,4.915,5.160
6179,4.910,5.150
6180,4.900,5.140
6181,4.905,5.150
6182,4.930,5.170
6183,4.925,5.150
6184,4.925,5.140
6185,4.930,5.160
6186,4.940,5.170
6187,4.930,5.185
6188,4.920,5.170
6189,4.915,5.175
6190,4.935,5.180
6191,4.940,5.175
6192,4.930,5.175
6193,4.920,5.180
6194,4.945,5.180
6195,4.950,5.190
6196,4.925,5.175
6197,4.925,5.165
6198,4.935,5.170
6199,4.940,5.175
6200,4.935,5.175
6201,4.910,5.150
6202,4.910,5.160
6203,4.925,5.160
6204,4.920,5.150
6205,4.895,5.145
6206,4.895,5.145
6207,4.910,5.155
6208,4.900,5.140
6209,4.885,5.130
6210,4.880,5.120
6211,4.890,5.130
6212,4.885,5.120
6213,4.865,5.105
6214,4.850,5.110
6215,4.870,5.105
6216,4.875,5.110
6217,4.860,5.110
6218,4.850,5.100
6219,4.860,5.115
6220,4.870,5.110
6221,4.855,5.085
6222,4.845,5.100
6223,4.840,5.100
6224,4.850,5.090
6225,4.845,5.085
6226,4.840,5.075
6227,4.850,5.085
6228,4.850,5.080
6229,4.840,5.075
6230,4.830,5.065
6231,4.830,5.080
6232,4.835,5.080
6233,4.835,5.070
6234,4.825,5.065
6235,4.835,5.070
6236,4.845,5.080
6237,4.850,5.075
6238,4.845,5.060
6239,4.855,5.065
6240,4.885,5.080
6241,4.900,5.080
6242,4.905,5.070
6243,4.905,5.080
6244,4.915,5.100
6245,4.925,5.095
6246,4.935,5.075
6247,4.940,5.075
6248,4.950,5.090
6249,4.965,5.095
6250,4.960,5.100
6251,4.960,5.090
6252,4.960,5.100
6253,4.960,5.095
6254,4.935,5.055
6255,4.905,5.040
6256,4.905,5.040
6257,4.920,5.035
6258,4.925,5.050
6259,4.925,5.065
6260,4.905,5.100
6261,4.895,5.115
6262,4.865,5.100
6263,4.845,5.085
6264,4.820,5.085
6265,4.825,5.085
6266,4.820,5.080
6267,4.800,5.070
6268,4.785,5.060
6269,4.775,5.065
6270,4.785,5.065
6271,4.780,5.055
6272,4.775,5.065
6273,4.785,5.075
6274,4.790,5.065
6275,4.790,5.070
6276,4.775,5.060
6277,4.775,5.075
6278,4.795,5.070
6279,4.790,5.060
6280,4.780,5.060
6281,4.770,5.075
6282,4.745,5.080
6283,4.650,5.050
6284,4.580,5.035
6285,4.640,5.055
6286,4.770,5.100
6287,5.055,5.180
6288,5.530,5.360
6289,6.090,5.660
6290,6.625,6.050
6291,7.010,6.425
6292,7.075,6.605
6293,6.750,6.460
6294,5.980,5.915
6295,5.195,5.220
6296,4.750,4.745
6297,4.655,4.655
6298,4.720,4.780
6299,4.870,4.945
6300,4.915,4.995
6301,4.875,5.125
6302,4.840,5.120
6303,4.835,5.105
6304,4.825,5.095
6305,4.800,5.090
6306,4.775,5.095
6307,4.780,5.085
6308,4.770,5.085
6309,4.755,5.075
6310,4.735,5.080
6311,4.745,5.090
6312,4.750,5.085
6313,4.735,5.075
6314,4.730,5.085
6315,4.745,5.100
6316,4.755,5.080
6317,4.745,5.080
6318,4.735,5.090
6319,4.745,5.100
6320,4.755,5.105
6321,4.755,5.090
6322,4.745,5.105
6323,4.755,5.105
6324,4.775,5.125
6325,4.775,5.125
6326,4.755,5.115
6327,4.780,5.135
6328,4.795,5.135
6329,4.790,5.130
6330,4.790,5.130
6331,4.810,5.150
6332,4.830,5.170
6333,4.835,5.170
6334,4.835,5.165
6335,4.860,5.185
6336,4.895,5.205
6337,4.905,5.200
6338,4.925,5.210
6339,4.935,5.225
6340,4.980,5.250
6341,5.000,5.260
6342,5.025,5.270
6343,5.035,5.290
6344,5.080,5.315
6345,5.115,5.330
6346,5.135,5.335
6347,5.145,5.360
6348,5.195,5.390
6349,5.225,5.395
6350,5.235,5.395
6351,5.245,5.415
6352,5.275,5.435
6353,5.300,5.460
6354,5.305,5.450
6355,5.300,5.440
6356,5.325,5.450
6357,5.335,5.460
6358,5.315,5.450
6359,5.305,5.440
6360,5.295,5.450
6361,5.290,5.450
6362,5.250,5.420
6363,5.215,5.395
6364,5.185,5.375
6365,5.165,5.370
6366,5.125,5.340
6367,5.070,5.295
6368,5.040,5.280
6369,5.020,5.265
6370,4.995,5.240
6371,4.960,5.220
6372,4.940,5.200
6373,4.935,5.190
6374,4.930,5.175
6375,4.925,5.165
6376,4.895,5.150
6377,4.890,5.155
6378,4.895,5.150
6379,4.895,5.135
6380,4.890,5.120
6381,4.885,5.130
6382,4.905,5.135
6383,4.890,5.120
6384,4.880,5.110
6385,4.880,5.120
6386,4.900,5.135
6387,4.900,5.135
6388,4.895,5.120
6389,4.895,5.125
6390,4.910,5.145
6391,4.920,5.140
6392,4.915,5.120
6393,4.915,5.140
6394,4.925,5.150
6395,4.930,5.155
6396,4.930,5.140
6397,4.920,5.145
6398,4.930,5.170
6399,4.950,5.170
6400,4.945,5.165
6401,4.925,5.155
6402,4.930,5.170
6403,4.940,5.170
6404,4.945,5.155
6405,4.925,5.160
6406,4.930,5.160
6407,4.940,5.185
6408,4.935,5.160
6409,4.925,5.155
6410,4.920,5.165
6411,4.925,5.165
6412,4.930,5.160
6413,4.920,5.150
6414,4.910,5.160
6415,4.920,5.165
6416,4.920,5.140
6417,4.905,5.135
6418,4.905,5.135
6419,4.905,5.150
6420,4.905,5.140
6421,4.895,5.120
6422,4.880,5.120
6423,4.895,5.125
6424,4.900,5.120
6425,4.885,5.110
6426,4.870,5.100
6427,4.855,5.110
6428,4.865,5.105
6429,4.860,5.095
6430,4.845,5.080
6431,4.840,5.095
6432,4.855,5.095
6433,4.840,5.080
6434,4.840,5.075
6435,4.835,5.075
6436,4.845,5.080
6437,4.835,5.070
6438,4.830,5.050
6439,4.830,5.055
6440,4.840,5.080
6441,4.845,5.075
6442,4.840,5.060
6443,4.825,5.060
6444,4.835,5.070
6445,4.845,5.065
6446,4.835,5.050
6447,4.820,5.050
6448,4.845,5.080
6449,4.840,5.065
6450,4.840,5.070
6451,4.845,5.060
6452,4.855,5.075
6453,4.895,5.080
6454,4.915,5.070
6455,4.890,5.060
6456,4.910,5.075
6457,4.915,5.080
6458,4.920,5.075
6459,4.930,5.070
6460,4.935,5.080
6461,4.950,5.090
6462,4.955,5.075
6463,4.945,5.070
6464,4.945,5.070
6465,4.935,5.070
6466,4.915,5.050
6467,4.895,5.025
6468,4.885,5.030
6469,4.920,5.045
6470,4.910,5.075
6471,4.880,5.075
6472,4.855,5.075
6473,4.850,5.085
6474,4.835,5.085
6475,4.840,5.075
6476,4.790,5.055
6477,4.800,5.065
6478,4.800,5.055
6479,4.790,5.045
6480,4.770,5.040
6481,4.770,5.055
6482,4.785,5.050
6483,4.780,5.045
6484,4.775,5.040
6485,4.765,5.055
6486,4.790,5.065
6487,4.800,5.065
6488,4.780,5.050
6489,4.775,5.065
6490,4.775,5.065
6491,4.750,5.070
6492,4.645,5.040
6493,4.595,5.025
6494,4.655,5.040
6495,4.780,5.090
6496,5.080,5.180
6497,5.610,5.420
6498,6.235,5.785
6499,6.770,6.185
6500,6.910,6.315
6501,6.930,6.535
6502,6.305,6.135
6503,5.450,5.420
6504,4.835,4.810
6505,4.655,4.605
6506,4.700,4.710
6507,4.820,4.875
6508,4.900,5.040
6509,4.875,5.100
6510,4.830,5.100
6511,4.820,5.085
6512,4.820,5.090
6513,4.780,5.080
6514,4.755,5.075
6515,4.760,5.080
6516,4.755,5.065
6517,4.740,5.065
6518,4.735,5.060
6519,4.740,5.075
6520,4.740,5.065
6521,4.745,5.065
6522,4.725,5.075
6523,4.735,5.090
6524,4.740,5.095
6525,4.745,5.100
6526,4.725,5.075
6527,4.740,5.085
6528,4.745,5.095
6529,4.745,5.080
6530,4.740,5.070
6531,4.750,5.105
6532,4.760,5.095
6533,4.770,5.105
6534,4.765,5.100
6535,4.780,5.115
6536,4.795,5.120
6537,4.800,5.130
6538,4.795,5.120
6539,4.805,5.120
6540,4.835,5.135
6541,4.855,5.140
6542,4.850,5.140
6543,4.855,5.150
6544,4.895,5.180
6545,4.925,5.180
6546,4.940,5.185
6547,4.955,5.205
6548,5.000,5.235
6549,5.020,5.250
6550,5.030,5.255
6551,5.070,5.275
6552,5.110,5.310
6553,5.135,5.330
6554,5.160,5.320
6555,5.180,5.340
6556,5.205,5.365
6557,5.240,5.390
6558,5.255,5.390
6559,5.260,5.395
6560,5.280,5.425
6561,5.305,5.445
6562,5.325,5.445
6563,5.320,5.440
6564,5.320,5.445
6565,5.335,5.450
6566,5.325,5.445
6567,5.305,5.435
6568,5.275,5.425
6569,5.250,5.415
6570,5.240,5.390
6571,5.200,5.360
6572,5.155,5.350
6573,5.125,5.340
6574,5.095,5.310
6575,5.080,5.300
6576,5.020,5.240
6577,5.005,5.235
6578,4.985,5.230
6579,4.955,5.200
6580,4.940,5.170
6581,4.925,5.170
6582,4.925,5.150
6583,4.910,5.140
6584,4.895,5.130
6585,4.890,5.130
6586,4.895,5.125
6587,4.895,5.115
6588,4.880,5.110
6589,4.880,5.120
6590,4.880,5.125
6591,4.890,5.120
6592,4.885,5.105
6593,4.885,5.115
6594,4.905,5.120
6595,4.905,5.115
6596,4.905,5.095
6597,4.890,5.115
6598,4.900,5.130
6599,4.910,5.125
6600,4.905,5.125
6601,4.905,5.120
6602,4.905,5.135
6603,4.920,5.135
6604,4.930,5.140
6605,4.915,5.135
6606,4.930,5.145
6607,4.930,5.155
6608,4.930,5.155
6609,4.920,5.145
6610,4.915,5.150
6611,4.930,5.155
6612,4.940,5.140
6613,4.915,5.140
6614,4.915,5.145
6615,4.930,5.155
6616,4.930,5.150
6617,4.905,5.145
6618,4.900,5.140
6619,4.910,5.155
6620,4.910,5.135
6621,4.900,5.115
6622,4.885,5.105
6623,4.890,5.120
6624,4.900,5.115
6625,4.905,5.115
6626,4.870,5.110
6627,4.880,5.125
6628,4.880,5.110
6629,4.870,5.095
6630,4.860,5.080
6631,4.845,5.095
6632,4.850,5.080
6633,4.860,5.080
6634,4.840,5.075
6635,4.845,5.080
6636,4.845,5.085
6637,4.845,5.075
6638,4.830,5.060
6639,4.830,5.065
6640,4.845,5.065
6641,4.845,5.070
6642,4.835,5.050
6643,4.820,5.050
6644,4.830,5.060
6645,4.820,5.060
6646,4.810,5.040
6647,4.805,5.040
6648,4.815,5.055
6649,4.825,5.050
6650,4.835,5.055
6651,4.805,5.050
6652,4.825,5.050
6653,4.825,5.050
6654,4.810,5.035
6655,4.790,5.010
6656,4.810,5.035
6657,4.815,5.040
6658,4.835,5.035
6659,4.840,5.020
6660,4.855,5.035
6661,4.885,5.055
6662,4.895,5.060
6663,4.890,5.050
6664,4.890,5.055
6665,4.895,5.070
6666,4.930,5.055
6667,4.930,5.050
6668,4.920,5.060
6669,4.935,5.065
6670,4.945,5.075
6671,4.940,5.060
6672,4.910,5.050
6673,4.905,5.060
6674,4.890,5.025
6675,4.880,5.025
6676,4.880,5.010
6677,4.900,5.040
6678,4.910,5.055
6679,4.880,5.070
6680,4.840,5.055
6681,4.830,5.070
6682,4.845,5.075
6683,4.820,5.065
6684,4.800,5.050
6685,4.795,5.055
6686,4.795,5.045
6687,4.785,5.030
6688,4.765,5.025
6689,4.760,5.040
6690,4.785,5.055
6691,4.795,5.055
6692,4.775,5.040
6693,4.770,5.045
6694,4.775,5.045
6695,4.780,5.055
6696,4.780,5.045
6697,4.780,5.040
6698,4.780,5.065
6699,4.785,5.065
6700,4.780,5.060
6701,4.665,5.030
6702,4.625,5.030
6703,4.670,5.040
6704,4.770,5.090
6705,4.980,5.145
6706,5.415,5.315
6707,5.945,5.560
6708,6.410,5.865
6709,6.800,6.170
6710,6.970,6.375
6711,6.855,6.385
6712,6.290,6.080
6713,5.530,5.505
6714,4.950,4.985
6715,4.715,4.740
6716,4.660,4.715
6717,4.730,4.815
6718,4.860,4.975
6719,4.890,5.085
6720,4.855,5.100
6721,4.820,5.080
6722,4.800,5.080
6723,4.810,5.095
6724,4.790,5.100
6725,4.780,5.090
6726,4.735,5.045
6727,4.740,5.055
6728,4.760,5.075
6729,4.740,5.070
6730,4.730,5.060
6731,4.735,5.075
6732,4.750,5.070
6733,4.750,5.075
6734,4.735,5.070
6735,4.725,5.065
6736,4.740,5.080
6737,4.750,5.080
6738,4.735,5.070
6739,4.740,5.070
6740,4.750,5.090
6741,4.755,5.085
6742,4.760,5.080
6743,4.755,5.095
6744,4.760,5.115
6745,4.770,5.110
6746,4.760,5.090
6747,4.770,5.095
6748,4.785,5.110
6749,4.800,5.115
6750,4.805,5.120
6751,4.800,5.115
6752,4.820,5.135
6753,4.835,5.135
6754,4.840,5.135
6755,4.845,5.130
6756,4.875,5.165
6757,4.905,5.185
6758,4.925,5.195
6759,4.930,5.200
6760,4.950,5.230
6761,4.985,5.240
6762,5.015,5.260
6763,5.030,5.275
6764,5.055,5.305
6765,5.095,5.315
6766,5.115,5.330
6767,5.125,5.310
6768,5.145,5.330
6769,5.185,5.365
6770,5.205,5.375
6771,5.220,5.380
6772,5.235,5.395
6773,5.250,5.420
6774,5.260,5.420
6775,5.270,5.415
6776,5.275,5.425
6777,5.290,5.435
6778,5.295,5.445
6779,5.280,5.440
6780,5.255,5.420
6781,5.250,5.415
6782,5.230,5.390
6783,5.215,5.370
6784,5.180,5.355
6785,5.155,5.355
6786,5.130,5.340
6787,5.095,5.300
6788,5.055,5.275
6789,5.030,5.250
6790,5.020,5.230
6791,4.995,5.210
6792,4.970,5.185
6793,4.955,5.175
6794,4.945,5.170
6795,4.940,5.165
6796,4.925,5.145
6797,4.905,5.140
6798,4.915,5.145
6799,4.915,5.125
6800,4.910,5.115
6801,4.895,5.105
6802,4.895,5.120
6803,4.905,5.115
6804,4.905,5.105
6805,4.890,5.115
6806,4.900,5.115
6807,4.920,5.120
6808,4.920,5.110
6809,4.910,5.100
6810,4.915,5.105
6811,4.935,5.110
6812,4.935,5.110
6813,4.930,5.100
6814,4.920,5.110
6815,4.945,5.125
6816,4.950,5.120
6817,4.935,5.115
6818,4.930,5.130
6819,4.940,5.140
6820,4.950,5.145
6821,4.940,5.140
6822,4.935,5.145
6823,4.950,5.155
6824,4.955,5.160
6825,4.950,5.165
6826,4.925,5.145
6827,4.950,5.155
6828,4.955,5.155
6829,4.945,5.150
6830,4.910,5.140
6831,4.915,5.145
6832,4.930,5.150
6833,4.925,5.135
6834,4.915,5.120
6835,4.915,5.140
6836,4.915,5.135
6837,4.915,5.120
6838,4.890,5.105
6839,4.885,5.100
6840,4.905,5.120
6841,4.895,5.110
6842,4.890,5.090
6843,4.880,5.090
6844,4.885,5.105
6845,4.885,5.090
6846,4.875,5.085
6847,4.860,5.070
6848,4.875,5.085
6849,4.870,5.085
6850,4.875,5.080
6851,4.845,5.055
6852,4.855,5.065
6853,4.865,5.065
6854,4.865,5.055
6855,4.845,5.045
6856,4.845,5.060
6857,4.860,5.055
6858,4.860,5.050
6859,4.840,5.045
6860,4.845,5.050
6861,4.855,5.055
6862,4.860,5.055
6863,4.840,5.045
6864,4.840,5.045
6865,4.880,5.050
6866,4.900,5.055
6867,4.900,5.040
6868,4.920,5.045
6869,4.925,5.065
6870,4.940,5.060
6871,4.925,5.055
6872,4.935,5.055
6873,4.950,5.060
6874,4.965,5.065
6875,4.960,5.065
6876,4.960,5.050
6877,4.975,5.070
6878,4.975,5.065
6879,4.955,5.050
6880,4.935,5.020
6881,4.920,5.025
6882,4.915,5.030
6883,4.925,5.010
6884,4.930,5.005
6885,4.920,5.035
6886,4.920,5.055
6887,4.895,5.065
6888,4.860,5.060
6889,4.850,5.065
6890,4.845,5.065
6891,4.845,5.065
6892,4.825,5.055
6893,4.815,5.045
6894,4.815,5.045
6895,4.805,5.040
6896,4.795,5.030
6897,4.780,5.035
6898,4.785,5.045
6899,4.795,5.045
6900,4.800,5.050
6901,4.785,5.040
6902,4.795,5.050
6903,4.810,5.050
6904,4.810,5.040
6905,4.790,5.045
6906,4.795,5.060
6907,4.795,5.060
6908,4.775,5.050
6909,4.690,5.030
6910,4.650,5.020
6911,4.675,5.035
6912,4.740,5.060
6913,4.855,5.110
6914,5.160,5.205
6915,5.640,5.415
6916,6.175,5.710
6917,6.625,6.015
6918,6.935,6.310
6919,6.950,6.430
6920,6.585,6.260
6921,5.845,5.765
6922,5.160,5.180
6923,4.770,4.790
6924,4.690,4.675
6925,4.680,4.665
6926,4.820,4.890
6927,4.900,5.040
6928,4.890,5.095
6929,4.845,5.095
6930,4.825,5.070
6931,4.835,5.090
6932,4.845,5.095
6933,4.810,5.080
6934,4.770,5.055
6935,4.765,5.065
6936,4.775,5.085
6937,4.770,5.060
6938,4.755,5.055
6939,4.745,5.065
6940,4.755,5.075
6941,4.775,5.070
6942,4.765,5.060
6943,4.755,5.060
6944,4.755,5.080
6945,4.770,5.075
6946,4.760,5.065
6947,4.755,5.065
6948,4.760,5.095
6949,4.775,5.090
6950,4.770,5.095
6951,4.760,5.085
6952,4.775,5.100
6953,4.785,5.100
6954,4.785,5.090
6955,4.780,5.090
6956,4.800,5.100
6957,4.815,5.110
6958,4.815,5.120
6959,4.820,5.110
6960,4.825,5.130
6961,4.850,5.140
6962,4.860,5.140
6963,4.865,5.135
6964,4.880,5.150
6965,4.900,5.170
6966,4.920,5.195
6967,4.930,5.185
6968,4.955,5.205
6969,4.990,5.230
6970,5.015,5.240
6971,5.025,5.245
6972,5.050,5.260
6973,5.090,5.295
6974,5.120,5.310
6975,5.125,5.315
6976,5.150,5.340
6977,5.185,5.360
6978,5.215,5.370
6979,5.230,5.385
6980,5.235,5.380
6981,5.260,5.405
6982,5.285,5.415
6983,5.305,5.410
6984,5.305,5.410
6985,5.320,5.435
6986,5.330,5.445
6987,5.335,5.435
6988,5.315,5.425
6989,5.300,5.430
6990,5.300,5.430
6991,5.270,5.410
6992,5.240,5.385
6993,5.215,5.370
6994,5.190,5.360
6995,5.160,5.330
6996,5.130,5.295
6997,5.080,5.275
6998,5.065,5.265
6999,5.030,5.245
7000,5.020,5.240
7001,4.965,5.195
7002,4.955,5.180
7003,4.950,5.160
7004,4.935,5.135
7005,4.930,5.145
7006,4.920,5.145
7007,4.930,5.130
7008,4.915,5.125
7009,4.910,5.100
7010,4.890,5.115
7011,4.905,5.115
7012,4.915,5.115
7013,4.890,5.105
7014,4.900,5.100
7015,4.910,5.110
7016,4.915,5.090
7017,4.915,5.095
7018,4.905,5.100
7019,4.925,5.115
7020,4.925,5.125
7021,4.920,5.110
7022,4.925,5.110
7023,4.930,5.125
7024,4.945,5.130
7025,4.945,5.120
7026,4.940,5.120
7027,4.955,5.140
7028,4.945,5.135
7029,4.950,5.130
7030,4.925,5.125
7031,4.940,5.140
7032,4.945,5.135
7033,4.955,5.145
7034,4.950,5.140
7035,4.950,5.145
7036,4.950,5.145
7037,4.940,5.135
7038,4.935,5.130
7039,4.930,5.135
7040,4.945,5.160
7041,4.945,5.135
7042,4.935,5.130
7043,4.925,5.130
7044,4.930,5.140
7045,4.930,5.125
7046,4.910,5.120
7047,4.900,5.120
7048,4.910,5.125
7049,4.915,5.110
7050,4.910,5.115
7051,4.890,5.095
7052,4.890,5.095
7053,4.905,5.105
7054,4.895,5.095
7055,4.870,5.085
7056,4.880,5.095
7057,4.890,5.095
7058,4.890,5.080
7059,4.870,5.070
7060,4.870,5.070
7061,4.875,5.080
7062,4.885,5.075
7063,4.860,5.060
7064,4.855,5.075
7065,4.865,5.070
7066,4.870,5.065
7067,4.870,5.050
7068,4.855,5.065
7069,4.865,5.070
7070,4.875,5.070
7071,4.860,5.050
7072,4.850,5.040
7073,4.855,5.065
7074,4.870,5.055
7075,4.875,5.055
7076,4.835,5.035
7077,4.850,5.060
7078,4.865,5.050
7079,4.860,5.040
7080,4.850,5.045
7081,4.865,5.050
7082,4.885,5.050
7083,4.905,5.055
7084,4.910,5.050
7085,4.930,5.065
7086,4.935,5.075
7087,4.945,5.080
7088,4.935,5.065
7089,4.935,5.070
7090,4.975,5.080
7091,4.975,5.070
7092,4.965,5.060
7093,4.955,5.055
7094,4.985,5.070
7095,4.990,5.070
7096,4.955,5.045
7097,4.945,5.035
7098,4.935,5.050
7099,4.920,5.030
7100,4.915,5.030
7101,4.915,5.010
7102,4.940,5.040
7103,4.930,5.060
7104,4.915,5.075
7105,4.880,5.065
7106,4.870,5.075
7107,4.870,5.080
7108,4.855,5.060
7109,4.840,5.045
7110,4.820,5.050
7111,4.830,5.045
7112,4.810,5.045
7113,4.795,5.035
7114,4.800,5.050
7115,4.805,5.045
7116,4.810,5.050
7117,4.800,5.040
7118,4.795,5.045
7119,4.805,5.050
7120,4.805,5.050
