'sample interval','ECG1','ECG2'
'0.004 sec','mV','mV'
0,0.055,0.485
1,0.125,0.495
2,0.135,0.505
3,0.115,0.495
4,0.095,0.485
5,0.110,0.460
6,0.125,0.435
7,0.090,0.420
8,0.065,0.405
9,0.080,0.390
10,0.090,0.370
11,0.045,0.335
12,0.005,0.285
13,-0.035,0.215
14,-0.055,0.150
15,-0.015,0.105
16,0.000,0.075
17,-0.045,0.065
18,-0.075,0.035
19,-0.065,-0.015
20,-0.070,-0.050
21,-0.115,-0.075
22,-0.150,-0.085
23,-0.180,-0.090
24,-0.220,-0.100
25,-0.275,-0.110
26,-0.315,-0.115
27,-0.350,-0.115
28,-0.335,-0.120
29,-0.290,-0.130
30,-0.260,-0.135
31,-0.235,-0.135
32,-0.215,-0.120
33,-0.200,-0.100
34,-0.200,-0.100
35,-0.210,-0.110
36,-0.245,-0.115
37,-0.280,-0.115
38,-0.235,-0.110
39,-0.170,-0.100
40,-0.165,-0.095
41,-0.160,-0.095
42,-0.210,-0.100
43,-0.265,-0.105
44,-0.265,-0.110
45,-0.265,-0.115
46,-0.230,-0.115
47,-0.195,-0.115
48,-0.205,-0.120
49,-0.210,-0.125
50,-0.180,-0.125
51,-0.155,-0.125
52,-0.175,-0.125
53,-0.195,-0.130
54,-0.210,-0.155
55,-0.225,-0.175
56,-0.215,-0.165
57,-0.210,-0.160
58,-0.230,-0.175
59,-0.230,-0.185
60,-0.190,-0.185
61,-0.165,-0.190
62,-0.175,-0.205
63,-0.195,-0.215
64,-0.220,-0.220
65,-0.225,-0.225
66,-0.205,-0.230
67,-0.210,-0.230
68,-0.240,-0.215
69,-0.280,-0.215
70,-0.320,-0.235
71,-0.265,-0.245
72,-0.165,-0.245
73,-0.170,-0.250
74,-0.220,-0.260
75,-0.235,-0.265
76,-0.230,-0.260
77,-0.280,-0.255
78,-0.355,-0.260
79,-0.355,-0.260
80,-0.340,-0.250
81,-0.315,-0.245
82,-0.290,-0.245
83,-0.260,-0.255
84,-0.225,-0.275
85,-0.255,-0.275
86,-0.285,-0.275
87,-0.250,-0.275
88,-0.215,-0.275
89,-0.245,-0.265
90,-0.265,-0.255
91,-0.195,-0.275
92,-0.145,-0.295
93,-0.195,-0.285
94,-0.240,-0.275
95,-0.265,-0.260
96,-0.270,-0.245
97,-0.220,-0.260
98,-0.210,-0.275
99,-0.285,-0.265
100,-0.335,-0.255
101,-0.325,-0.260
102,-0.315,-0.265
103,-0.310,-0.265
104,-0.260,-0.265
105,-0.165,-0.270
106,-0.125,-0.275
107,-0.145,-0.270
108,-0.165,-0.260
109,-0.195,-0.250
110,-0.200,-0.240
111,-0.190,-0.230
112,-0.190,-0.235
113,-0.200,-0.250
114,-0.245,-0.250
115,-0.310,-0.240
116,-0.245,-0.240
117,-0.140,-0.250
118,-0.175,-0.250
119,-0.250,-0.240
120,-0.230,-0.235
121,-0.190,-0.230
122,-0.230,-0.225
123,-0.280,-0.225
124,-0.150,-0.225
125,-0.285,-0.225
126,-0.005,-0.215
127,-0.015,-0.195
128,-0.230,-0.205
129,-0.415,-0.215
130,-0.255,-0.225
131,-0.120,-0.235
132,-0.175,-0.215
133,-0.225,-0.195
134,-0.195,-0.200
135,-0.150,-0.205
136,-0.045,-0.200
137,0.000,-0.195
138,-0.125,-0.200
139,-0.205,-0.200
140,-0.175,-0.180
141,-0.145,-0.160
142,-0.110,-0.140
143,-0.105,-0.125
144,-0.155,-0.130
145,-0.120,-0.135
146,0.025,-0.120
147,0.075,-0.100
148,0.035,-0.070
149,-0.025,-0.055
150,-0.105,-0.060
151,-0.105,-0.060
152,-0.045,-0.050
153,-0.005,-0.075
154,0.030,-0.120
155,-0.020,-0.160
156,-0.120,-0.195
157,-0.055,-0.210
158,0.070,-0.220
159,0.055,-0.225
160,0.005,-0.230
161,-0.030,-0.215
162,-0.060,-0.190
163,-0.130,-0.200
164,-0.210,-0.220
165,-0.175,-0.210
166,-0.130,-0.190
167,-0.185,-0.200
168,-0.245,-0.215
169,-0.095,-0.220
170,0.045,-0.225
171,0.030,-0.220
172,0.005,-0.215
173,-0.105,-0.210
174,-0.220,-0.210
175,-0.390,-0.270
176,-0.525,-0.275
177,-0.505,-0.085
178,-0.485,0.085
179,-0.475,0.210
180,-0.260,0.260
181,0.400,0.145
182,1.110,0.130
183,1.900,0.325
184,2.495,0.580
185,2.795,0.925
186,3.025,0.980
187,3.170,0.670
188,2.760,0.100
189,1.780,-0.740
190,0.850,-1.105
191,-0.040,-1.065
192,-0.580,-0.975
193,-0.885,-0.850
194,-0.945,-0.725
195,-0.865,-0.595
196,-0.840,-0.475
197,-0.850,-0.350
198,-0.715,-0.215
199,-0.520,-0.080
200,-0.355,-0.025
201,-0.205,0.000
202,-0.175,0.010
203,-0.180,0.020
204,-0.240,0.025
205,-0.305,0.030
206,-0.300,0.040
207,-0.280,0.050
208,-0.215,0.055
209,-0.145,0.065
210,-0.095,0.085
211,-0.045,0.105
212,-0.065,0.130
213,-0.090,0.155
214,-0.160,0.150
215,-0.210,0.145
216,-0.090,0.165
217,0.005,0.185
218,0.020,0.205
219,0.015,0.230
220,-0.080,0.260
221,-0.125,0.285
222,-0.050,0.300
223,0.005,0.320
224,-0.005,0.340
225,-0.015,0.365
226,-0.005,0.395
227,0.005,0.425
228,0.015,0.455
229,0.040,0.485
230,0.085,0.510
231,0.150,0.535
232,0.235,0.555
233,0.250,0.575
234,0.205,0.595
235,0.175,0.610
236,0.155,0.620
237,0.185,0.615
238,0.255,0.600
239,0.275,0.590
240,0.275,0.580
241,0.300,0.560
242,0.335,0.530
243,0.340,0.505
244,0.330,0.480
245,0.275,0.455
246,0.215,0.430
247,0.275,0.375
248,0.360,0.320
249,0.315,0.290
250,0.365,0.315
251,0.175,0.210
252,0.095,0.165
253,0.070,0.125
254,0.045,0.085
255,0.010,0.035
256,-0.020,-0.005
257,0.030,-0.030
258,0.065,-0.055
259,0.000,-0.075
260,-0.055,-0.095
261,-0.065,-0.120
262,-0.075,-0.135
263,-0.080,-0.150
264,-0.095,-0.165
265,-0.125,-0.160
266,-0.150,-0.155
267,-0.170,-0.150
268,-0.185,-0.150
269,-0.185,-0.165
270,-0.160,-0.175
271,-0.105,-0.170
272,-0.080,-0.160
273,-0.090,-0.150
274,-0.105,-0.145
275,-0.125,-0.145
276,-0.130,-0.140
277,-0.120,-0.130
278,-0.095,-0.130
279,-0.065,-0.140
280,-0.090,-0.145
281,-0.140,-0.140
282,-0.140,-0.125
283,-0.120,-0.110
284,-0.110,-0.110
285,-0.100,-0.120
286,-0.085,-0.130
287,-0.070,-0.140
288,-0.090,-0.145
289,-0.120,-0.140
290,-0.095,-0.140
291,-0.060,-0.150
292,-0.065,-0.145
293,-0.075,-0.135
294,-0.110,-0.160
295,-0.145,-0.185
296,-0.085,-0.190
297,-0.030,-0.195
298,0.030,-0.190
299,0.060,-0.185
300,-0.100,-0.200
301,-0.225,-0.215
302,-0.225,-0.220
303,-0.220,-0.225
304,-0.180,-0.225
305,-0.155,-0.225
306,-0.145,-0.230
307,-0.135,-0.235
308,-0.145,-0.230
309,-0.150,-0.225
310,-0.135,-0.235
311,-0.095,-0.245
312,-0.015,-0.245
313,-0.025,-0.240
314,-0.125,-0.230
315,-0.185,-0.225
316,-0.210,-0.230
317,-0.215,-0.235
318,-0.195,-0.240
319,-0.150,-0.245
320,-0.085,-0.245
321,-0.095,-0.240
322,-0.140,-0.230
323,-0.150,-0.225
324,-0.140,-0.230
325,-0.160,-0.235
326,-0.195,-0.240
327,-0.185,-0.245
328,-0.160,-0.245
329,-0.115,-0.235
330,-0.060,-0.220
331,-0.075,-0.215
332,-0.100,-0.220
333,-0.105,-0.230
334,-0.105,-0.245
335,-0.115,-0.240
336,-0.125,-0.235
337,-0.130,-0.235
338,-0.135,-0.235
339,-0.170,-0.225
340,-0.195,-0.215
341,-0.120,-0.220
342,-0.055,-0.225
343,-0.050,-0.220
344,-0.060,-0.215
345,-0.130,-0.215
346,-0.180,-0.215
347,-0.155,-0.220
348,-0.130,-0.225
349,-0.115,-0.220
350,-0.115,-0.215
351,-0.145,-0.210
352,-0.165,-0.200
353,-0.155,-0.185
354,-0.140,-0.180
355,-0.115,-0.195
356,-0.085,-0.210
357,-0.045,-0.220
358,-0.060,-0.215
359,-0.130,-0.195
360,-0.140,-0.185
361,-0.115,-0.190
362,-0.100,-0.190
363,-0.090,-0.180
364,-0.095,-0.185
365,-0.110,-0.200
366,-0.095,-0.205
367,-0.065,-0.200
368,-0.070,-0.185
369,-0.090,-0.170
370,-0.095,-0.160
371,-0.095,-0.150
372,-0.095,-0.140
373,-0.090,-0.130
374,-0.065,-0.125
375,-0.085,-0.125
376,0.030,-0.090
377,0.095,-0.065
378,0.060,-0.060
379,0.025,-0.055
380,0.020,-0.060
381,0.015,-0.070
382,0.010,-0.105
383,0.005,-0.140
384,-0.025,-0.185
385,-0.045,-0.225
386,-0.060,-0.220
387,-0.065,-0.215
388,-0.030,-0.220
389,-0.005,-0.225
390,-0.015,-0.215
391,-0.040,-0.205
392,-0.085,-0.200
393,-0.125,-0.195
394,-0.150,-0.205
395,-0.160,-0.215
396,-0.145,-0.215
397,-0.115,-0.215
398,-0.070,-0.210
399,-0.045,-0.205
400,-0.040,-0.200
401,-0.050,-0.195
402,-0.075,-0.200
403,-0.230,-0.265
404,-0.455,-0.355
405,-0.560,-0.285
406,-0.610,-0.135
407,-0.520,0.030
408,-0.375,0.200
409,0.060,0.190
410,0.575,0.125
411,1.265,0.305
412,1.995,0.530
413,2.430,0.885
414,2.830,1.260
415,2.985,1.125
416,3.130,0.950
417,2.595,0.060
418,2.020,-0.820
419,0.885,-0.990
420,-0.195,-1.145
421,-0.620,-0.990
422,-0.995,-0.840
423,-0.990,-0.680
424,-0.960,-0.525
425,-0.790,-0.385
426,-0.635,-0.250
427,-0.535,-0.135
428,-0.445,-0.045
429,-0.405,-0.035
430,-0.360,-0.025
431,-0.295,-0.005
432,-0.255,0.005
433,-0.260,0.010
434,-0.260,0.015
435,-0.240,0.025
436,-0.200,0.040
437,-0.140,0.055
438,-0.115,0.075
439,-0.140,0.100
440,-0.175,0.115
441,-0.215,0.120
442,-0.230,0.130
443,-0.215,0.140
444,-0.185,0.145
445,-0.150,0.145
446,-0.140,0.165
447,-0.150,0.195
448,-0.145,0.220
449,-0.130,0.240
450,-0.095,0.260
451,-0.055,0.280
452,-0.070,0.300
453,-0.100,0.320
454,-0.070,0.350
455,-0.030,0.380
456,-0.010,0.410
457,0.010,0.440
458,0.020,0.460
459,0.035,0.485
460,0.045,0.505
461,0.060,0.525
462,0.140,0.555
463,0.210,0.585
464,0.160,0.595
465,0.120,0.605
466,0.160,0.600
467,0.195,0.595
468,0.215,0.590
469,0.235,0.585
470,0.245,0.590
471,0.270,0.585
472,0.325,0.545
473,0.340,0.505
474,0.265,0.475
475,0.215,0.440
476,0.220,0.395
477,0.235,0.350
478,0.260,0.310
479,0.255,0.260
480,0.210,0.205
481,0.155,0.155
482,0.095,0.105
483,0.005,0.065
484,-0.100,0.025
485,-0.130,-0.005
486,-0.100,-0.025
487,-0.095,-0.055
488,-0.110,-0.085
489,-0.130,-0.120
490,-0.155,-0.155
491,-0.170,-0.165
492,-0.180,-0.170
493,-0.150,-0.185
494,-0.105,-0.200
495,-0.065,-0.205
496,-0.030,-0.205
497,-0.125,-0.205
498,-0.235,-0.205
499,-0.275,-0.200
500,-0.245,-0.205
501,-0.315,-0.185
502,-0.315,-0.185
503,-0.285,-0.190
504,-0.255,-0.195
505,-0.215,-0.185
506,-0.175,-0.175
507,-0.160,-0.180
508,-0.150,-0.185
509,-0.180,-0.175
510,-0.205,-0.165
511,-0.210,-0.160
512,-0.180,-0.155
513,-0.055,-0.165
514,-0.010,-0.175
515,-0.155,-0.170
516,-0.245,-0.160
517,-0.255,-0.145
518,-0.250,-0.135
519,-0.210,-0.140
520,-0.175,-0.155
521,-0.140,-0.180
522,-0.130,-0.195
523,-0.140,-0.195
524,-0.150,-0.195
525,-0.160,-0.195
526,-0.145,-0.200
527,-0.110,-0.210
528,-0.130,-0.215
529,-0.185,-0.215
530,-0.145,-0.215
531,-0.060,-0.220
532,-0.085,-0.225
533,-0.160,-0.220
534,-0.175,-0.215
535,-0.180,-0.210
536,-0.225,-0.225
537,-0.275,-0.250
538,-0.245,-0.255
539,-0.200,-0.250
540,-0.195,-0.245
541,-0.200,-0.245
542,-0.165,-0.240
543,-0.125,-0.235
544,-0.175,-0.255
545,-0.225,-0.275
546,-0.210,-0.260
547,-0.190,-0.245
548,-0.135,-0.245
549,-0.090,-0.245
550,-0.130,-0.240
551,-0.170,-0.235
552,-0.200,-0.245
553,-0.225,-0.255
554,-0.235,-0.255
555,-0.245,-0.255
556,-0.245,-0.255
557,-0.235,-0.255
558,-0.190,-0.245
559,-0.165,-0.240
560,-0.155,-0.255
561,-0.165,-0.265
562,-0.210,-0.255
563,-0.225,-0.240
564,-0.205,-0.230
565,-0.165,-0.230
566,-0.100,-0.240
567,-0.105,-0.245
568,-0.160,-0.250
569,-0.210,-0.250
570,-0.250,-0.240
571,-0.245,-0.235
572,-0.205,-0.235
573,-0.190,-0.235
574,-0.180,-0.230
575,-0.180,-0.230
576,-0.190,-0.240
577,-0.195,-0.245
578,-0.200,-0.240
579,-0.205,-0.235
580,-0.200,-0.235
581,-0.140,-0.235
582,-0.080,-0.235
583,-0.110,-0.235
584,-0.155,-0.235
585,-0.225,-0.235
586,-0.295,-0.235
587,-0.250,-0.220
588,-0.205,-0.205
589,-0.190,-0.215
590,-0.175,-0.225
591,-0.160,-0.220
592,-0.150,-0.215
593,-0.180,-0.215
594,-0.185,-0.215
595,-0.090,-0.215
596,-0.025,-0.215
597,-0.030,-0.210
598,-0.080,-0.205
599,-0.210,-0.210
600,-0.285,-0.215
601,-0.250,-0.210
602,-0.225,-0.205
603,-0.215,-0.205
604,-0.200,-0.200
605,-0.175,-0.185
606,-0.160,-0.170
607,-0.145,-0.160
608,-0.130,-0.155
609,-0.120,-0.155
610,-0.080,-0.140
611,-0.025,-0.115
612,-0.005,-0.100
613,0.000,-0.090
614,0.005,-0.085
615,0.010,-0.090
616,0.005,-0.095
617,-0.010,-0.090
618,-0.025,-0.110
619,-0.040,-0.145
620,-0.080,-0.170
621,-0.130,-0.190
622,-0.145,-0.215
623,-0.160,-0.240
624,-0.135,-0.235
625,-0.165,-0.245
626,-0.105,-0.210
627,-0.115,-0.205
628,-0.155,-0.210
629,-0.195,-0.215
630,-0.185,-0.220
631,-0.170,-0.225
632,-0.120,-0.215
633,-0.080,-0.205
634,-0.120,-0.205
635,-0.155,-0.205
636,-0.180,-0.200
637,-0.180,-0.195
638,-0.125,-0.205
639,-0.150,-0.235
640,-0.355,-0.295
641,-0.525,-0.280
642,-0.645,-0.125
643,-0.645,0.030
644,-0.470,0.190
645,-0.160,0.290
646,0.300,0.325
647,0.960,0.420
648,1.810,0.575
649,2.405,0.835
650,2.805,1.180
651,3.060,1.060
652,3.225,0.635
653,2.510,-0.085
654,1.330,-0.965
655,0.375,-1.180
656,-0.485,-1.115
657,-0.845,-1.000
658,-1.035,-0.865
659,-1.035,-0.775
660,-0.985,-0.700
661,-0.925,-0.560
662,-0.865,-0.415
663,-0.755,-0.270
664,-0.635,-0.125
665,-0.455,-0.075
666,-0.270,-0.030
667,-0.280,-0.015
668,-0.295,-0.005
669,-0.315,0.005
670,-0.335,0.015
671,-0.290,0.020
672,-0.245,0.025
673,-0.220,0.045
674,-0.195,0.065
675,-0.205,0.070
676,-0.205,0.075
677,-0.155,0.085
678,-0.125,0.095
679,-0.165,0.105
680,-0.195,0.115
681,-0.195,0.135
682,-0.185,0.145
683,-0.155,0.155
684,-0.125,0.165
685,-0.100,0.170
686,-0.080,0.185
687,-0.065,0.210
688,-0.065,0.240
689,-0.085,0.270
690,-0.085,0.300
691,-0.065,0.340
692,-0.045,0.355
693,-0.025,0.355
694,0.000,0.375
695,0.035,0.410
696,0.055,0.435
697,0.070,0.450
698,0.135,0.460
699,0.215,0.470
700,0.215,0.485
701,0.185,0.500
702,0.150,0.505
703,0.120,0.505
704,0.155,0.505
705,0.210,0.500
706,0.215,0.485
707,0.215,0.470
708,0.230,0.445
709,0.255,0.415
710,0.265,0.390
711,0.275,0.365
712,0.235,0.330
713,0.195,0.295
714,0.165,0.260
715,0.135,0.220
716,0.115,0.175
717,0.105,0.130
718,0.180,0.095
719,0.210,0.065
720,0.105,0.055
721,0.015,0.035
722,-0.030,-0.005
723,-0.075,-0.045
724,-0.105,-0.075
725,-0.125,-0.095
726,-0.115,-0.105
727,-0.105,-0.115
728,-0.100,-0.110
729,-0.105,-0.105
730,-0.130,-0.110
731,-0.145,-0.115
732,-0.145,-0.110
733,-0.135,-0.105
734,-0.115,-0.105
735,-0.085,-0.100
736,-0.050,-0.090
737,-0.040,-0.085
738,-0.050,-0.090
739,-0.075,-0.095
740,-0.105,-0.100
741,-0.100,-0.100
742,-0.080,-0.090
743,-0.055,-0.090
744,-0.030,-0.100
745,0.000,-0.105
746,0.030,-0.105
747,0.000,-0.105
748,-0.040,-0.100
749,-0.055,-0.095
750,-0.045,-0.095
751,-0.035,-0.100
752,0.005,-0.095
753,-0.080,-0.115
754,-0.155,-0.135
755,-0.100,-0.130
756,-0.055,-0.125
757,-0.045,-0.140
758,-0.040,-0.155
759,-0.080,-0.150
760,-0.090,-0.145
761,0.015,-0.170
762,0.095,-0.185
763,0.095,-0.180
764,0.035,-0.175
765,-0.160,-0.180
766,-0.250,-0.185
767,-0.155,-0.175
768,-0.090,-0.170
769,-0.070,-0.185
770,-0.080,-0.195
771,-0.135,-0.210
772,-0.165,-0.215
773,-0.165,-0.220
774,-0.120,-0.225
775,-0.040,-0.225
776,-0.010,-0.220
777,-0.025,-0.205
778,-0.090,-0.195
779,-0.175,-0.200
780,-0.170,-0.205
781,-0.110,-0.205
782,-0.060,-0.205
783,-0.010,-0.205
784,-0.030,-0.205
785,-0.075,-0.210
786,-0.115,-0.215
787,-0.160,-0.215
788,-0.110,-0.215
789,-0.040,-0.215
790,-0.070,-0.210
791,-0.110,-0.200
792,-0.110,-0.205
793,-0.105,-0.215
794,-0.065,-0.215
795,-0.025,-0.215
796,-0.065,-0.215
797,-0.105,-0.215
798,-0.085,-0.195
799,-0.065,-0.175
800,-0.060,-0.190
801,-0.055,-0.205
802,-0.055,-0.200
803,-0.050,-0.195
804,-0.010,-0.200
805,0.005,-0.205
806,-0.045,-0.200
807,-0.075,-0.195
808,-0.080,-0.195
809,-0.065,-0.195
810,-0.010,-0.205
811,0.005,-0.215
812,-0.040,-0.205
813,-0.065,-0.190
814,-0.060,-0.180
815,-0.055,-0.175
816,-0.060,-0.170
817,-0.065,-0.170
818,-0.065,-0.185
819,-0.060,-0.190
820,-0.040,-0.180
821,-0.040,-0.175
822,-0.050,-0.175
823,-0.045,-0.180
824,-0.030,-0.190
825,-0.005,-0.195
826,0.020,-0.190
827,-0.010,-0.185
828,-0.055,-0.185
829,-0.035,-0.180
830,0.000,-0.170
831,0.060,-0.165
832,0.120,-0.170
833,0.025,-0.175
834,-0.085,-0.165
835,-0.110,-0.165
836,-0.135,-0.165
837,-0.095,-0.165
838,-0.055,-0.165
839,-0.025,-0.155
840,0.005,-0.145
841,0.005,-0.130
842,0.010,-0.115
843,0.035,-0.110
844,0.055,-0.105
845,0.055,-0.090
846,0.055,-0.075
847,0.065,-0.060
848,0.080,-0.045
849,0.105,-0.040
850,0.135,-0.035
851,0.160,-0.030
852,0.170,-0.035
853,0.155,-0.065
854,0.130,-0.095
855,0.095,-0.120
856,0.065,-0.145
857,0.040,-0.165
858,0.025,-0.175
859,0.020,-0.180
860,0.030,-0.180
861,0.055,-0.165
862,0.040,-0.165
863,0.000,-0.180
864,-0.015,-0.185
865,-0.010,-0.190
866,0.010,-0.190
867,0.040,-0.180
868,0.020,-0.175
869,-0.015,-0.170
870,0.000,-0.160
871,0.030,-0.150
872,0.085,-0.160
873,0.140,-0.180
874,-0.145,-0.250
875,0.145,-0.185
876,-0.555,-0.155
877,-0.645,0.020
878,-0.385,0.150
879,-0.105,0.275
880,0.340,0.220
881,0.825,0.195
882,1.570,0.350
883,2.245,0.540
884,2.620,0.905
885,2.940,1.160
886,3.060,1.050
887,2.985,0.730
888,2.405,-0.110
889,1.660,-0.745
890,0.560,-0.960
891,-0.265,-1.045
892,-0.650,-0.905
893,-0.875,-0.780
894,-0.865,-0.665
895,-0.785,-0.550
896,-0.630,-0.435
897,-0.520,-0.310
898,-0.440,-0.175
899,-0.370,-0.075
900,-0.305,-0.005
901,-0.245,0.020
902,-0.195,0.010
903,-0.155,0.015
904,-0.120,0.035
905,-0.105,0.050
906,-0.105,0.060
907,-0.075,0.090
908,-0.035,0.125
909,-0.045,0.135
910,-0.070,0.135
911,-0.085,0.135
912,-0.100,0.135
913,-0.060,0.150
914,-0.010,0.170
915,0.025,0.180
916,0.060,0.190
917,-0.005,0.215
918,-0.075,0.235
919,-0.015,0.250
920,0.045,0.265
921,0.035,0.285
922,0.025,0.305
923,0.035,0.335
924,0.050,0.365
925,0.080,0.385
926,0.110,0.410
927,0.135,0.440
928,0.155,0.470
929,0.165,0.495
930,0.190,0.520
931,0.245,0.545
932,0.290,0.570
933,0.310,0.595
934,0.305,0.615
935,0.255,0.615
936,0.245,0.615
937,0.290,0.625
938,0.340,0.630
939,0.395,0.620
940,0.415,0.605
941,0.390,0.585
942,0.380,0.560
943,0.395,0.535
944,0.400,0.505
945,0.390,0.470
946,0.395,0.435
947,0.410,0.405
948,0.380,0.360
949,0.330,0.310
950,0.315,0.260
951,0.320,0.215
952,0.280,0.170
953,0.225,0.125
954,0.165,0.080
955,0.100,0.040
956,0.080,0.005
957,0.060,-0.030
958,0.065,-0.060
959,0.085,-0.095
960,0.020,-0.105
961,-0.045,-0.115
962,-0.075,-0.125
963,-0.100,-0.135
964,-0.045,-0.145
965,0.000,-0.155
966,-0.035,-0.165
967,-0.065,-0.175
968,-0.060,-0.165
969,-0.065,-0.155
970,-0.105,-0.145
971,-0.095,-0.135
972,0.040,-0.145
973,0.100,-0.155
974,0.000,-0.150
975,-0.080,-0.145
976,-0.120,-0.145
977,-0.105,-0.145
978,-0.015,-0.140
979,0.035,-0.135
980,0.035,-0.120
981,0.005,-0.120
982,-0.055,-0.130
983,-0.075,-0.135
984,-0.055,-0.135
985,-0.010,-0.130
986,0.050,-0.115
987,0.040,-0.105
988,-0.015,-0.110
989,-0.035,-0.125
990,-0.030,-0.140
991,-0.020,-0.145
992,-0.010,-0.145
993,-0.015,-0.145
994,-0.030,-0.150
995,-0.015,-0.155
996,0.010,-0.160
997,0.015,-0.175
998,0.010,-0.190
999,0.005,-0.195
1000,0.005,-0.195
1001,0.025,-0.205
1002,0.045,-0.205
1003,0.035,-0.210
1004,0.020,-0.215
1005,-0.075,-0.230
1006,-0.155,-0.245
1007,-0.130,-0.230
1008,-0.100,-0.215
1009,-0.070,-0.225
1010,-0.050,-0.235
1011,-0.080,-0.225
1012,-0.105,-0.215
1013,-0.090,-0.230
1014,-0.055,-0.245
1015,0.010,-0.245
1016,0.025,-0.245
1017,-0.055,-0.240
1018,-0.090,-0.235
1019,-0.040,-0.235
1020,-0.040,-0.235
1021,-0.095,-0.240
1022,-0.085,-0.245
1023,-0.005,-0.250
1024,0.005,-0.250
1025,-0.050,-0.235
1026,-0.100,-0.225
1027,-0.145,-0.230
1028,-0.105,-0.235
1029,-0.005,-0.240
1030,-0.010,-0.245
1031,-0.060,-0.245
1032,-0.030,-0.245
1033,0.040,-0.240
1034,-0.015,-0.235
1035,-0.110,-0.240
1036,-0.105,-0.245
1037,-0.080,-0.240
1038,-0.075,-0.235
1039,-0.075,-0.230
1040,-0.090,-0.225
1041,-0.110,-0.225
1042,-0.100,-0.225
1043,-0.085,-0.225
1044,-0.045,-0.225
1045,-0.005,-0.225
1046,0.035,-0.240
1047,0.070,-0.255
1048,-0.005,-0.230
1049,-0.065,-0.205
1050,-0.045,-0.210
1051,-0.020,-0.215
1052,0.020,-0.225
1053,0.030,-0.235
1054,-0.065,-0.225
1055,-0.135,-0.215
1056,-0.155,-0.215
1057,-0.135,-0.215
1058,-0.040,-0.225
1059,0.005,-0.235
1060,-0.035,-0.230
1061,-0.055,-0.225
1062,-0.050,-0.215
1063,-0.055,-0.205
1064,-0.080,-0.210
1065,-0.045,-0.215
1066,0.055,-0.220
1067,0.055,-0.220
1068,-0.015,-0.210
1069,-0.055,-0.205
1070,-0.075,-0.200
1071,-0.105,-0.195
1072,-0.135,-0.195
1073,-0.060,-0.190
1074,0.055,-0.180
1075,0.025,-0.175
1076,-0.060,-0.175
1077,-0.060,-0.160
1078,-0.040,-0.140
1079,-0.010,-0.135
1080,0.020,-0.130
1081,0.015,-0.105
1082,0.000,-0.080
1083,0.075,-0.075
1084,0.165,-0.085
1085,0.120,-0.075
1086,0.075,-0.065
1087,0.075,-0.090
1088,0.075,-0.120
1089,0.060,-0.170
1090,0.045,-0.215
1091,0.025,-0.215
1092,-0.010,-0.215
1093,-0.105,-0.230
1094,-0.145,-0.245
1095,-0.025,-0.230
1096,0.040,-0.215
1097,-0.060,-0.220
1098,-0.120,-0.225
1099,-0.105,-0.230
1100,-0.095,-0.235
1101,-0.090,-0.230
1102,-0.090,-0.225
1103,-0.105,-0.215
1104,-0.110,-0.205
1105,-0.085,-0.210
1106,-0.065,-0.215
1107,-0.045,-0.220
1108,-0.100,-0.275
1109,-0.210,-0.360
1110,-0.395,-0.335
1111,-0.620,-0.240
1112,-0.600,-0.125
1113,-0.460,0.000
1114,-0.125,0.085
1115,0.285,0.155
1116,0.935,0.255
1117,1.655,0.360
1118,2.205,0.705
1119,2.710,1.105
1120,2.895,1.200
1121,3.020,1.250
1122,2.615,0.535
1123,2.150,-0.265
1124,0.990,-0.725
1125,2.125,-0.305
1126,-0.535,-1.045
1127,-0.860,-0.910
1128,-0.975,-0.785
1129,-1.080,-0.655
1130,-0.985,-0.545
1131,-0.885,-0.430
1132,-0.720,-0.305
1133,-0.550,-0.190
1134,-0.365,-0.105
1135,-0.220,-0.035
1136,-0.265,-0.025
1137,-0.300,-0.015
1138,-0.320,-0.010
1139,-0.315,-0.005
1140,-0.240,0.000
1141,-0.205,0.015
1142,-0.235,0.045
1143,-0.255,0.065
1144,-0.255,0.060
1145,-0.240,0.055
1146,-0.195,0.060
1147,-0.185,0.070
1148,-0.210,0.080
1149,-0.200,0.095
1150,-0.155,0.115
1151,-0.135,0.135
1152,-0.140,0.155
1153,-0.145,0.165
1154,-0.145,0.165
1155,-0.145,0.175
1156,-0.140,0.195
1157,-0.095,0.230
1158,-0.040,0.265
1159,-0.055,0.280
1160,-0.095,0.290
1161,-0.105,0.320
1162,-0.110,0.350
1163,-0.085,0.365
1164,-0.050,0.380
1165,-0.015,0.410
1166,0.020,0.440
1167,0.070,0.460
1168,0.115,0.475
1169,0.115,0.495
1170,0.115,0.515
1171,0.150,0.510
1172,0.185,0.505
1173,0.155,0.525
1174,0.135,0.545
1175,0.205,0.535
1176,0.265,0.525
1177,0.270,0.510
1178,0.265,0.490
1179,0.225,0.450
1180,0.195,0.420
1181,0.175,0.395
1182,0.155,0.365
1183,0.110,0.335
1184,0.080,0.295
1185,0.060,0.245
1186,0.045,0.195
1187,0.040,0.150
1188,0.035,0.105
1189,0.040,0.065
1190,0.030,0.030
1191,-0.010,0.000
1192,-0.080,-0.035
1193,-0.180,-0.070
1194,-0.205,-0.100
1195,-0.185,-0.135
1196,-0.165,-0.145
1197,-0.150,-0.145
1198,-0.180,-0.145
1199,-0.230,-0.150
1200,-0.260,-0.160
1201,-0.280,-0.170
1202,-0.270,-0.175
1203,-0.250,-0.170
1204,-0.235,-0.165
1205,-0.220,-0.170
1206,-0.215,-0.175
1207,-0.220,-0.170
1208,-0.230,-0.165
1209,-0.245,-0.165
1210,-0.205,-0.165
1211,-0.165,-0.165
1212,-0.130,-0.165
1213,-0.100,-0.165
1214,-0.185,-0.150
1215,-0.255,-0.135
1216,-0.255,-0.140
1217,-0.250,-0.145
1218,-0.210,-0.145
1219,-0.175,-0.145
1220,-0.180,-0.140
1221,-0.185,-0.135
1222,-0.175,-0.140
1223,-0.170,-0.145
1224,-0.190,-0.150
1225,-0.205,-0.155
1226,-0.200,-0.165
1227,-0.195,-0.175
1228,-0.190,-0.165
1229,-0.190,-0.160
1230,-0.205,-0.175
1231,-0.200,-0.190
1232,-0.170,-0.200
1233,-0.160,-0.205
1234,-0.175,-0.205
1235,-0.220,-0.205
1236,-0.280,-0.210
1237,-0.295,-0.215
1238,-0.275,-0.210
1239,-0.250,-0.210
1240,-0.225,-0.220
1241,-0.225,-0.225
1242,-0.240,-0.220
1243,-0.250,-0.215
1244,-0.260,-0.220
1245,-0.265,-0.230
1246,-0.265,-0.240
1247,-0.225,-0.240
1248,-0.180,-0.230
1249,-0.180,-0.225
1250,-0.175,-0.225
1251,-0.240,-0.220
1252,-0.285,-0.215
1253,-0.270,-0.225
1254,-0.255,-0.235
1255,-0.290,-0.230
1256,-0.315,-0.225
1257,-0.245,-0.225
1258,-0.195,-0.225
1259,-0.250,-0.225
1260,-0.295,-0.225
1261,-0.290,-0.215
1262,-0.285,-0.205
1263,-0.275,-0.215
1264,-0.260,-0.225
1265,-0.245,-0.225
1266,-0.235,-0.225
1267,-0.225,-0.220
1268,-0.215,-0.215
1269,-0.205,-0.205
1270,-0.215,-0.195
1271,-0.260,-0.210
1272,-0.275,-0.215
1273,-0.255,-0.220
1274,-0.240,-0.220
1275,-0.225,-0.210
1276,-0.215,-0.205
1277,-0.220,-0.210
1278,-0.245,-0.215
1279,-0.275,-0.210
1280,-0.270,-0.205
1281,-0.245,-0.200
1282,-0.220,-0.195
1283,-0.200,-0.190
1284,-0.225,-0.195
1285,-0.265,-0.210
1286,-0.255,-0.215
1287,-0.230,-0.210
1288,-0.195,-0.205
1289,-0.160,-0.200
1290,-0.210,-0.195
1291,-0.270,-0.190
1292,-0.275,-0.185
1293,-0.275,-0.185
1294,-0.270,-0.195
1295,-0.265,-0.205
1296,-0.230,-0.195
1297,-0.195,-0.185
1298,-0.210,-0.185
1299,-0.220,-0.185
1300,-0.185,-0.170
1301,-0.155,-0.155
1302,-0.155,-0.145
1303,-0.155,-0.135
1304,-0.170,-0.135
1305,-0.185,-0.130
1306,-0.205,-0.105
1307,-0.175,-0.085
1308,-0.065,-0.085
1309,-0.020,-0.085
1310,-0.095,-0.075
1311,-0.115,-0.065
1312,-0.070,-0.070
1313,-0.070,-0.095
1314,-0.125,-0.135
1315,-0.170,-0.160
1316,-0.200,-0.175
1317,-0.215,-0.190
1318,-0.210,-0.205
1319,-0.195,-0.215
1320,-0.175,-0.210
1321,-0.180,-0.205
1322,-0.205,-0.200
1323,-0.230,-0.195
1324,-0.250,-0.195
1325,-0.235,-0.195
1326,-0.210,-0.200
1327,-0.195,-0.205
1328,-0.180,-0.200
1329,-0.205,-0.190
1330,-0.240,-0.180
1331,-0.170,-0.175
1332,-0.090,-0.175
1333,-0.275,-0.240
1334,-0.475,-0.315
1335,-0.645,-0.245
1336,-0.805,-0.170
1337,-0.725,-0.025
1338,-0.610,0.120
1339,-0.165,0.260
1340,0.330,0.385
1341,1.070,0.380
1342,1.770,0.430
1343,2.295,0.710
1344,2.720,0.965
1345,2.840,1.135
1346,2.835,1.055
1347,2.520,0.370
1348,1.890,-0.275
1349,0.655,-0.830
1350,-0.305,-1.135
1351,-0.815,-1.020
1352,-1.110,-0.910
1353,-1.130,-0.795
1354,-1.105,-0.690
1355,-1.010,-0.595
1356,-0.895,-0.480
1357,-0.765,-0.360
1358,-0.635,-0.235
1359,-0.505,-0.115
1360,-0.415,-0.045
1361,-0.350,-0.010
1362,-0.335,0.005
1363,-0.355,0.005
1364,-0.365,0.010
1365,-0.365,0.020
1366,-0.350,0.030
1367,-0.330,0.040
1368,-0.290,0.055
1369,-0.245,0.070
1370,-0.240,0.085
1371,-0.250,0.100
1372,-0.245,0.110
1373,-0.230,0.120
1374,-0.215,0.125
1375,-0.225,0.125
1376,-0.175,0.145
1377,-0.155,0.155
1378,-0.165,0.180
1379,-0.175,0.205
1380,-0.160,0.210
1381,-0.145,0.215
1382,-0.110,0.240
1383,-0.085,0.265
1384,-0.100,0.280
1385,-0.115,0.300
1386,-0.110,0.325
1387,-0.105,0.350
1388,-0.105,0.370
1389,-0.085,0.395
1390,-0.010,0.430
1391,0.035,0.460
1392,0.040,0.490
1393,0.045,0.505
1394,0.055,0.515
1395,0.070,0.525
1396,0.085,0.530
1397,0.115,0.535
1398,0.155,0.540
1399,0.175,0.545
1400,0.180,0.540
1401,0.190,0.520
1402,0.205,0.495
1403,0.225,0.470
1404,0.240,0.445
1405,0.225,0.420
1406,0.195,0.395
1407,0.185,0.375
1408,0.185,0.360
1409,0.165,0.315
1410,0.140,0.265
1411,0.115,0.220
1412,0.090,0.175
1413,0.035,0.125
1414,-0.020,0.080
1415,-0.050,0.050
1416,-0.080,0.020
1417,-0.095,-0.010
1418,-0.105,-0.035
1419,-0.130,-0.065
1420,-0.155,-0.095
1421,-0.155,-0.110
1422,-0.155,-0.125
1423,-0.175,-0.125
1424,-0.195,-0.125
1425,-0.195,-0.135
1426,-0.195,-0.145
1427,-0.185,-0.155
1428,-0.185,-0.165
1429,-0.225,-0.155
1430,-0.250,-0.145
1431,-0.230,-0.150
1432,-0.210,-0.155
1433,-0.195,-0.145
1434,-0.190,-0.135
1435,-0.210,-0.130
1436,-0.220,-0.125
1437,-0.205,-0.125
1438,-0.185,-0.125
1439,-0.165,-0.120
1440,-0.150,-0.115
1441,-0.140,-0.120
1442,-0.140,-0.125
1443,-0.150,-0.130
1444,-0.155,-0.135
1445,-0.155,-0.135
1446,-0.150,-0.135
1447,-0.140,-0.135
1448,-0.140,-0.135
1449,-0.150,-0.140
1450,-0.155,-0.150
1451,-0.155,-0.160
1452,-0.140,-0.165
1453,-0.120,-0.170
1454,-0.130,-0.175
1455,-0.150,-0.170
1456,-0.175,-0.165
1457,-0.200,-0.170
1458,-0.190,-0.180
1459,-0.165,-0.195
1460,-0.160,-0.205
1461,-0.155,-0.215
1462,-0.195,-0.225
1463,-0.235,-0.235
1464,-0.215,-0.225
1465,-0.195,-0.215
1466,-0.200,-0.225
1467,-0.205,-0.235
1468,-0.225,-0.235
1469,-0.240,-0.235
1470,-0.210,-0.225
1471,-0.185,-0.220
1472,-0.200,-0.240
1473,-0.210,-0.255
1474,-0.195,-0.250
1475,-0.185,-0.245
1476,-0.175,-0.245
1477,-0.175,-0.245
1478,-0.200,-0.235
1479,-0.215,-0.225
1480,-0.220,-0.240
1481,-0.225,-0.245
1482,-0.230,-0.250
1483,-0.225,-0.255
1484,-0.205,-0.250
1485,-0.185,-0.240
1486,-0.165,-0.230
1487,-0.165,-0.230
1488,-0.180,-0.240
1489,-0.190,-0.250
1490,-0.200,-0.260
1491,-0.205,-0.260
1492,-0.210,-0.250
1493,-0.215,-0.245
1494,-0.210,-0.240
1495,-0.205,-0.235
1496,-0.205,-0.235
1497,-0.200,-0.235
1498,-0.190,-0.230
1499,-0.185,-0.225
1500,-0.185,-0.225
1501,-0.180,-0.230
1502,-0.185,-0.225
1503,-0.185,-0.225
1504,-0.185,-0.225
1505,-0.185,-0.235
1506,-0.185,-0.245
1507,-0.185,-0.240
1508,-0.185,-0.235
1509,-0.170,-0.230
1510,-0.155,-0.225
1511,-0.170,-0.220
1512,-0.185,-0.215
1513,-0.185,-0.225
1514,-0.185,-0.235
1515,-0.180,-0.230
1516,-0.175,-0.225
1517,-0.175,-0.225
1518,-0.175,-0.225
1519,-0.185,-0.220
1520,-0.185,-0.215
1521,-0.160,-0.220
1522,-0.150,-0.225
1523,-0.165,-0.225
1524,-0.175,-0.220
1525,-0.180,-0.205
1526,-0.170,-0.195
1527,-0.145,-0.190
1528,-0.115,-0.180
1529,-0.080,-0.170
1530,-0.090,-0.155
1531,-0.130,-0.140
1532,-0.115,-0.130
1533,-0.065,-0.120
1534,-0.045,-0.115
1535,-0.030,-0.115
1536,-0.015,-0.115
1537,0.000,-0.110
1538,-0.020,-0.135
1539,-0.050,-0.170
1540,-0.085,-0.195
1541,-0.120,-0.220
1542,-0.140,-0.235
1543,-0.155,-0.245
1544,-0.135,-0.250
1545,-0.115,-0.255
1546,-0.130,-0.240
1547,-0.145,-0.225
1548,-0.165,-0.235
1549,-0.185,-0.245
1550,-0.195,-0.245
1551,-0.205,-0.245
1552,-0.185,-0.245
1553,-0.160,-0.245
1554,-0.140,-0.245
1555,-0.130,-0.245
1556,-0.155,-0.235
1557,-0.175,-0.225
1558,-0.180,-0.230
1559,-0.275,-0.270
1560,-0.505,-0.360
1561,-0.655,-0.350
1562,-0.700,-0.195
1563,-0.630,-0.040
1564,-0.430,0.115
1565,-0.005,0.170
1566,0.595,0.140
1567,1.295,0.250
1568,2.060,0.465
1569,2.505,0.790
1570,2.780,1.180
1571,2.945,1.125
1572,3.070,0.860
1573,2.345,0.120
1574,1.305,-0.795
1575,0.390,-1.050
1576,-0.490,-1.120
1577,-0.845,-1.025
1578,-1.090,-0.885
1579,-1.080,-0.760
1580,-1.020,-0.635
1581,-0.925,-0.530
1582,-0.820,-0.420
1583,-0.660,-0.290
1584,-0.495,-0.155
1585,-0.400,-0.115
1586,-0.305,-0.075
1587,-0.310,-0.065
1588,-0.315,-0.055
1589,-0.325,-0.045
1590,-0.335,-0.035
1591,-0.325,-0.030
1592,-0.315,-0.025
1593,-0.295,-0.015
1594,-0.270,0.000
1595,-0.250,0.020
1596,-0.235,0.035
1597,-0.245,0.045
1598,-0.255,0.055
1599,-0.245,0.060
1600,-0.230,0.070
1601,-0.210,0.090
1602,-0.195,0.110
1603,-0.190,0.125
1604,-0.175,0.140
1605,-0.150,0.155
1606,-0.135,0.170
1607,-0.130,0.185
1608,-0.130,0.215
1609,-0.145,0.250
1610,-0.130,0.280
1611,-0.085,0.305
1612,-0.065,0.330
1613,-0.060,0.355
1614,-0.030,0.375
1615,0.005,0.400
1616,0.000,0.420
1617,-0.020,0.450
1618,0.005,0.475
1619,0.045,0.500
1620,0.070,0.505
1621,0.090,0.510
1622,0.135,0.515
1623,0.180,0.510
1624,0.185,0.500
1625,0.185,0.505
1626,0.180,0.490
1627,0.185,0.495
1628,0.175,0.460
1629,0.170,0.425
1630,0.225,0.395
1631,0.270,0.360
1632,0.215,0.325
1633,0.160,0.290
1634,0.120,0.255
1635,0.085,0.215
1636,0.070,0.170
1637,0.050,0.125
1638,0.020,0.070
1639,-0.015,0.025
1640,-0.045,-0.015
1641,-0.065,-0.050
1642,-0.070,-0.070
1643,-0.090,-0.100
1644,-0.140,-0.135
1645,-0.180,-0.160
1646,-0.215,-0.185
1647,-0.240,-0.200
1648,-0.250,-0.215
1649,-0.255,-0.225
1650,-0.250,-0.220
1651,-0.245,-0.220
1652,-0.250,-0.235
1653,-0.250,-0.240
1654,-0.240,-0.230
1655,-0.225,-0.230
1656,-0.210,-0.240
1657,-0.220,-0.230
1658,-0.240,-0.210
1659,-0.245,-0.205
1660,-0.250,-0.210
1661,-0.250,-0.215
1662,-0.240,-0.215
1663,-0.225,-0.215
1664,-0.210,-0.210
1665,-0.230,-0.205
1666,-0.260,-0.200
1667,-0.255,-0.190
1668,-0.245,-0.185
1669,-0.240,-0.190
1670,-0.235,-0.195
1671,-0.215,-0.205
1672,-0.195,-0.215
1673,-0.170,-0.200
1674,-0.150,-0.185
1675,-0.180,-0.195
1676,-0.205,-0.205
1677,-0.205,-0.210
1678,-0.210,-0.215
1679,-0.230,-0.220
1680,-0.245,-0.225
1681,-0.225,-0.235
1682,-0.215,-0.245
1683,-0.220,-0.245
1684,-0.230,-0.245
1685,-0.245,-0.255
1686,-0.255,-0.265
1687,-0.245,-0.265
1688,-0.225,-0.265
1689,-0.205,-0.260
1690,-0.205,-0.260
1691,-0.225,-0.270
1692,-0.240,-0.275
1693,-0.255,-0.280
1694,-0.270,-0.285
1695,-0.280,-0.290
1696,-0.260,-0.295
1697,-0.220,-0.295
1698,-0.235,-0.295
1699,-0.280,-0.290
1700,-0.285,-0.295
1701,-0.270,-0.310
1702,-0.275,-0.315
1703,-0.290,-0.310
1704,-0.295,-0.300
1705,-0.295,-0.290
1706,-0.295,-0.285
1707,-0.290,-0.290
1708,-0.285,-0.295
1709,-0.295,-0.295
1710,-0.285,-0.295
1711,-0.275,-0.295
1712,-0.265,-0.290
1713,-0.255,-0.285
1714,-0.260,-0.295
1715,-0.265,-0.305
1716,-0.270,-0.305
1717,-0.270,-0.305
1718,-0.245,-0.305
1719,-0.225,-0.305
1720,-0.240,-0.290
1721,-0.265,-0.275
1722,-0.300,-0.275
1723,-0.320,-0.275
1724,-0.295,-0.285
1725,-0.275,-0.295
1726,-0.285,-0.295
1727,-0.295,-0.295
1728,-0.285,-0.285
1729,-0.265,-0.275
1730,-0.240,-0.280
1731,-0.230,-0.280
1732,-0.245,-0.270
1733,-0.265,-0.270
1734,-0.295,-0.280
1735,-0.295,-0.280
1736,-0.275,-0.270
1737,-0.265,-0.265
1738,-0.260,-0.270
1739,-0.260,-0.275
1740,-0.270,-0.275
1741,-0.260,-0.275
1742,-0.230,-0.275
1743,-0.220,-0.275
1744,-0.210,-0.270
1745,-0.255,-0.265
1746,-0.315,-0.265
1747,-0.300,-0.265
1748,-0.270,-0.260
1749,-0.265,-0.255
1750,-0.265,-0.255
1751,-0.280,-0.250
1752,-0.285,-0.245
1753,-0.290,-0.245
1754,-0.295,-0.245
1755,-0.265,-0.255
1756,-0.235,-0.265
1757,-0.240,-0.255
1758,-0.245,-0.245
1759,-0.265,-0.250
1760,-0.275,-0.255
1761,-0.225,-0.245
1762,-0.195,-0.235
1763,-0.240,-0.250
1764,-0.275,-0.265
1765,-0.265,-0.255
1766,-0.255,-0.245
1767,-0.265,-0.240
1768,-0.260,-0.235
1769,-0.210,-0.235
1770,-0.195,-0.230
1771,-0.230,-0.215
1772,-0.255,-0.200
1773,-0.275,-0.185
1774,-0.270,-0.175
1775,-0.240,-0.175
1776,-0.205,-0.160
1777,-0.160,-0.130
1778,-0.145,-0.115
1779,-0.140,-0.120
1780,-0.125,-0.120
1781,-0.110,-0.110
1782,-0.090,-0.120
1783,-0.070,-0.145
1784,-0.115,-0.180
1785,-0.180,-0.215
1786,-0.210,-0.235
1787,-0.230,-0.250
1788,-0.210,-0.255
1789,-0.180,-0.260
1790,-0.205,-0.255
1791,-0.240,-0.240
1792,-0.250,-0.240
1793,-0.255,-0.245
1794,-0.240,-0.245
1795,-0.225,-0.245
1796,-0.260,-0.245
1797,-0.295,-0.245
1798,-0.290,-0.235
1799,-0.280,-0.225
1800,-0.245,-0.220
1801,-0.215,-0.215
1802,-0.215,-0.230
1803,-0.255,-0.265
1804,-0.415,-0.360
1805,-0.575,-0.390
1806,-0.745,-0.265
1807,-0.815,-0.130
1808,-0.705,0.020
1809,-0.425,0.145
1810,0.105,0.220
1811,0.760,0.345
1812,1.570,0.525
1813,2.170,0.795
1814,2.570,1.165
1815,2.835,1.195
1816,2.980,0.940
1817,2.455,0.265
1818,1.455,-0.705
1819,0.525,-1.070
1820,-0.375,-1.105
1821,-0.845,-1.045
1822,-1.130,-0.935
1823,-1.170,-0.845
1824,-1.120,-0.755
1825,-1.050,-0.660
1826,-0.980,-0.565
1827,-0.905,-0.435
1828,-0.825,-0.295
1829,-0.675,-0.190
1830,-0.510,-0.085
1831,-0.435,-0.070
1832,-0.370,-0.060
1833,-0.375,-0.055
1834,-0.395,-0.065
1835,-0.400,-0.055
1836,-0.405,-0.045
1837,-0.390,-0.025
1838,-0.375,-0.005
1839,-0.370,0.005
1840,-0.360,0.015
1841,-0.310,0.020
1842,-0.270,0.025
1843,-0.295,0.030
1844,-0.315,0.040
1845,-0.300,0.070
1846,-0.285,0.095
1847,-0.280,0.095
1848,-0.260,0.100
1849,-0.210,0.125
1850,-0.185,0.145
1851,-0.210,0.150
1852,-0.230,0.160
1853,-0.250,0.180
1854,-0.235,0.200
1855,-0.160,0.225
1856,-0.125,0.250
1857,-0.120,0.280
1858,-0.125,0.310
1859,-0.145,0.340
1860,-0.125,0.370
1861,-0.075,0.395
1862,-0.030,0.415
1863,0.010,0.430
1864,0.040,0.440
1865,0.065,0.450
1866,0.065,0.455
1867,0.050,0.455
1868,0.045,0.460
1869,0.050,0.470
1870,0.105,0.460
1871,0.165,0.440
1872,0.130,0.420
1873,0.080,0.400
1874,0.075,0.395
1875,0.075,0.395
1876,0.095,0.360
1877,0.105,0.335
1878,0.095,0.300
1879,0.085,0.260
1880,0.060,0.200
1881,0.035,0.140
1882,0.040,0.105
1883,0.035,0.070
1884,-0.030,0.030
1885,-0.095,-0.010
1886,-0.150,-0.040
1887,-0.195,-0.070
1888,-0.200,-0.100
1889,-0.215,-0.125
1890,-0.255,-0.130
1891,-0.280,-0.140
1892,-0.265,-0.155
1893,-0.255,-0.165
1894,-0.265,-0.170
1895,-0.265,-0.175
1896,-0.230,-0.190
1897,-0.235,-0.190
1898,-0.280,-0.180
1899,-0.305,-0.175
1900,-0.310,-0.170
1901,-0.280,-0.165
1902,-0.220,-0.160
1903,-0.220,-0.155
1904,-0.260,-0.160
1905,-0.270,-0.165
1906,-0.260,-0.165
1907,-0.220,-0.150
1908,-0.170,-0.130
1909,-0.180,-0.130
1910,-0.215,-0.140
1911,-0.235,-0.155
1912,-0.250,-0.170
1913,-0.245,-0.175
1914,-0.230,-0.170
1915,-0.205,-0.165
1916,-0.180,-0.165
1917,-0.180,-0.170
1918,-0.185,-0.175
1919,-0.220,-0.175
1920,-0.255,-0.175
1921,-0.215,-0.185
1922,-0.175,-0.195
1923,-0.205,-0.195
1924,-0.235,-0.195
1925,-0.250,-0.200
1926,-0.265,-0.205
1927,-0.255,-0.205
1928,-0.245,-0.205
1929,-0.235,-0.220
1930,-0.225,-0.235
1931,-0.220,-0.235
1932,-0.215,-0.235
1933,-0.220,-0.240
1934,-0.235,-0.245
1935,-0.265,-0.250
1936,-0.285,-0.255
1937,-0.285,-0.255
1938,-0.265,-0.250
1939,-0.225,-0.240
1940,-0.205,-0.240
1941,-0.210,-0.255
1942,-0.240,-0.265
1943,-0.285,-0.260
1944,-0.300,-0.255
1945,-0.280,-0.260
1946,-0.275,-0.260
1947,-0.275,-0.250
1948,-0.260,-0.245
1949,-0.235,-0.250
1950,-0.205,-0.255
1951,-0.175,-0.255
1952,-0.220,-0.255
1953,-0.295,-0.260
1954,-0.305,-0.260
1955,-0.300,-0.250
1956,-0.290,-0.245
1957,-0.280,-0.240
1958,-0.240,-0.240
1959,-0.195,-0.255
1960,-0.205,-0.255
1961,-0.215,-0.255
1962,-0.230,-0.250
1963,-0.245,-0.245
1964,-0.260,-0.235
1965,-0.275,-0.225
1966,-0.265,-0.235
1967,-0.255,-0.245
1968,-0.240,-0.245
1969,-0.220,-0.245
1970,-0.200,-0.240
1971,-0.185,-0.235
1972,-0.200,-0.240
1973,-0.215,-0.245
1974,-0.220,-0.235
1975,-0.225,-0.225
1976,-0.230,-0.225
1977,-0.225,-0.225
1978,-0.200,-0.220
1979,-0.185,-0.215
1980,-0.200,-0.215
1981,-0.210,-0.215
1982,-0.220,-0.220
1983,-0.230,-0.225
1984,-0.240,-0.220
1985,-0.220,-0.210
1986,-0.180,-0.200
1987,-0.170,-0.205
1988,-0.180,-0.225
1989,-0.190,-0.230
1990,-0.200,-0.220
1991,-0.205,-0.215
1992,-0.210,-0.215
1993,-0.205,-0.215
1994,-0.190,-0.215
1995,-0.175,-0.210
1996,-0.160,-0.200
1997,-0.160,-0.200
1998,-0.170,-0.210
1999,-0.185,-0.210
2000,-0.175,-0.215
2001,-0.190,-0.190
2002,-0.175,-0.185
2003,-0.160,-0.190
2004,-0.145,-0.195
2005,-0.135,-0.200
2006,-0.130,-0.205
2007,-0.165,-0.195
2008,-0.195,-0.185
2009,-0.200,-0.190
2010,-0.205,-0.195
2011,-0.190,-0.185
2012,-0.175,-0.175
2013,-0.165,-0.175
2014,-0.155,-0.175
2015,-0.150,-0.175
2016,-0.145,-0.175
2017,-0.135,-0.165
2018,-0.130,-0.160
2019,-0.145,-0.180
2020,-0.150,-0.190
2021,-0.135,-0.165
2022,-0.120,-0.150
2023,-0.105,-0.135
2024,-0.100,-0.120
2025,-0.110,-0.110
2026,-0.100,-0.100
2027,-0.070,-0.090
2028,-0.055,-0.080
2029,-0.055,-0.070
2030,-0.040,-0.065
2031,-0.015,-0.060
2032,0.010,-0.045
2033,0.030,-0.030
2034,0.015,-0.065
2035,-0.020,-0.115
2036,-0.035,-0.145
2037,-0.050,-0.170
2038,-0.105,-0.185
2039,-0.160,-0.200
2040,-0.160,-0.200
2041,-0.150,-0.190
2042,-0.135,-0.185
2043,-0.125,-0.185
2044,-0.140,-0.185
2045,-0.155,-0.185
2046,-0.110,-0.190
2047,-0.065,-0.195
2048,-0.080,-0.175
2049,-0.100,-0.155
2050,-0.145,-0.160
2051,-0.185,-0.165
2052,-0.170,-0.175
2053,-0.165,-0.200
2054,-0.210,-0.260
2055,-0.315,-0.285
2056,-0.550,-0.220
2057,-0.695,-0.120
2058,-0.665,0.040
2059,-0.450,0.155
2060,0.030,0.220
2061,0.655,0.285
2062,1.455,0.350
2063,2.105,0.560
2064,2.605,0.920
2065,2.905,1.085
2066,3.040,1.090
2067,2.815,0.625
2068,2.340,-0.175
2069,1.430,-0.675
2070,0.275,-1.010
2071,-0.405,-1.035
2072,-0.875,-0.920
2073,-1.005,-0.795
2074,-1.010,-0.675
2075,-0.955,-0.560
2076,-0.870,-0.445
2077,-0.735,-0.305
2078,-0.585,-0.155
2079,-0.440,-0.070
2080,-0.300,0.005
2081,-0.280,0.015
2082,-0.270,0.020
2083,-0.280,0.025
2084,-0.305,0.025
2085,-0.260,0.040
2086,-0.215,0.055
2087,-0.195,0.065
2088,-0.175,0.075
2089,-0.200,0.095
2090,-0.225,0.115
2091,-0.205,0.115
2092,-0.185,0.115
2093,-0.185,0.120
2094,-0.175,0.130
2095,-0.115,0.160
2096,-0.080,0.185
2097,-0.110,0.195
2098,-0.145,0.210
2099,-0.175,0.235
2100,-0.170,0.255
2101,-0.105,0.250
2102,-0.065,0.265
2103,-0.070,0.310
2104,-0.070,0.345
2105,-0.055,0.370
2106,-0.025,0.395
2107,0.015,0.420
2108,0.045,0.440
2109,0.065,0.455
2110,0.090,0.490
2111,0.115,0.535
2112,0.110,0.555
2113,0.085,0.560
2114,0.095,0.575
2115,0.125,0.590
2116,0.165,0.595
2117,0.205,0.600
2118,0.235,0.605
2119,0.260,0.600
2120,0.275,0.590
2121,0.290,0.580
2122,0.280,0.545
2123,0.260,0.510
2124,0.240,0.475
2125,0.255,0.505
2126,0.265,0.420
2127,0.315,0.405
2128,0.260,0.345
2129,0.205,0.285
2130,0.175,0.245
2131,0.145,0.200
2132,0.110,0.160
2133,0.080,0.120
2134,0.025,0.080
2135,-0.005,0.040
2136,0.040,0.005
2137,0.055,-0.030
2138,-0.025,-0.060
2139,-0.100,-0.085
2140,-0.155,-0.095
2141,-0.185,-0.110
2142,-0.150,-0.125
2143,-0.130,-0.135
2144,-0.145,-0.145
2145,-0.155,-0.155
2146,-0.170,-0.170
2147,-0.165,-0.175
2148,-0.145,-0.180
2149,-0.130,-0.180
2150,-0.115,-0.170
2151,-0.120,-0.165
2152,-0.145,-0.165
2153,-0.155,-0.170
2154,-0.160,-0.180
2155,-0.190,-0.175
2156,-0.225,-0.155
2157,-0.205,-0.140
2158,-0.165,-0.130
2159,-0.135,-0.135
2160,-0.110,-0.150
2161,-0.105,-0.160
2162,-0.105,-0.170
2163,-0.085,-0.155
2164,-0.060,-0.130
2165,-0.095,-0.130
2166,-0.140,-0.140
2167,-0.165,-0.145
2168,-0.185,-0.145
2169,-0.170,-0.155
2170,-0.155,-0.165
2171,-0.130,-0.165
2172,-0.105,-0.165
2173,-0.065,-0.155
2174,-0.040,-0.145
2175,-0.095,-0.160
2176,-0.135,-0.175
2177,-0.150,-0.185
2178,-0.160,-0.195
2179,-0.130,-0.200
2180,-0.100,-0.205
2181,-0.075,-0.210
2182,-0.055,-0.215
2183,-0.065,-0.215
2184,-0.115,-0.215
2185,-0.215,-0.225
2186,-0.270,-0.235
2187,-0.250,-0.235
2188,-0.215,-0.235
2189,-0.170,-0.235
2190,-0.145,-0.235
2191,-0.140,-0.240
2192,-0.135,-0.245
2193,-0.135,-0.250
2194,-0.140,-0.255
2195,-0.160,-0.250
2196,-0.165,-0.245
2197,-0.160,-0.245
2198,-0.155,-0.245
2199,-0.150,-0.240
2200,-0.195,-0.250
2201,-0.260,-0.270
2202,-0.225,-0.270
2203,-0.165,-0.260
2204,-0.135,-0.255
2205,-0.110,-0.250
2206,-0.140,-0.245
2207,-0.180,-0.240
2208,-0.180,-0.235
2209,-0.165,-0.245
2210,-0.155,-0.250
2211,-0.145,-0.255
2212,-0.185,-0.250
2213,-0.225,-0.245
2214,-0.205,-0.240
2215,-0.185,-0.235
2216,-0.150,-0.245
2217,-0.125,-0.255
2218,-0.130,-0.255
2219,-0.135,-0.255
2220,-0.125,-0.245
2221,-0.115,-0.235
2222,-0.110,-0.235
2223,-0.105,-0.235
2224,-0.115,-0.235
2225,-0.135,-0.235
2226,-0.165,-0.240
2227,-0.165,-0.245
2228,-0.115,-0.245
2229,-0.105,-0.245
2230,-0.150,-0.230
2231,-0.175,-0.225
2232,-0.175,-0.230
2233,-0.145,-0.230
2234,-0.090,-0.220
2235,-0.075,-0.220
2236,-0.095,-0.235
2237,-0.095,-0.235
2238,-0.075,-0.220
2239,-0.095,-0.220
2240,-0.140,-0.230
2241,-0.155,-0.225
2242,-0.155,-0.210
2243,-0.165,-0.210
2244,-0.180,-0.220
2245,-0.185,-0.225
2246,-0.185,-0.220
2247,-0.160,-0.220
2248,-0.130,-0.230
2249,-0.085,-0.230
2250,-0.125,-0.235
2251,-0.050,-0.205
2252,-0.065,-0.195
2253,-0.075,-0.210
2254,-0.085,-0.225
2255,-0.090,-0.210
2256,-0.100,-0.195
2257,-0.145,-0.200
2258,-0.180,-0.205
2259,-0.145,-0.210
2260,-0.100,-0.215
2261,-0.030,-0.215
2262,0.005,-0.210
2263,-0.070,-0.190
2264,-0.125,-0.175
2265,-0.120,-0.175
2266,-0.115,-0.170
2267,-0.105,-0.150
2268,-0.085,-0.135
2269,-0.060,-0.130
2270,-0.040,-0.120
2271,-0.015,-0.105
2272,0.010,-0.090
2273,0.040,-0.080
2274,0.055,-0.070
2275,0.060,-0.055
2276,0.030,-0.070
2277,-0.030,-0.115
2278,-0.005,-0.155
2279,0.080,-0.190
2280,0.020,-0.210
2281,-0.100,-0.220
2282,-0.140,-0.225
2283,-0.150,-0.225
2284,-0.115,-0.225
2285,-0.065,-0.220
2286,-0.090,-0.215
2287,-0.135,-0.210
2288,-0.145,-0.210
2289,-0.145,-0.220
2290,-0.050,-0.215
2291,0.050,-0.200
2292,-0.045,-0.210
2293,-0.145,-0.225
2294,-0.145,-0.210
2295,-0.145,-0.195
2296,-0.170,-0.210
2297,-0.215,-0.235
2298,-0.375,-0.315
2299,-0.525,-0.360
2300,-0.590,-0.215
2301,-0.615,-0.065
2302,-0.460,0.090
2303,-0.170,0.195
2304,0.490,0.150
2305,1.165,0.195
2306,1.885,0.470
2307,2.445,0.795
2308,2.730,1.220
2309,2.950,1.340
2310,3.070,0.995
2311,2.705,0.390
2312,1.755,-0.530
2313,0.840,-1.020
2314,-0.035,-1.070
2315,-0.615,-1.025
2316,-0.955,-0.890
2317,-1.080,-0.770
2318,-1.055,-0.660
2319,-0.970,-0.540
2320,-0.845,-0.425
2321,-0.695,-0.295
2322,-0.530,-0.165
2323,-0.455,-0.100
2324,-0.410,-0.065
2325,-0.395,-0.055
2326,-0.390,-0.050
2327,-0.315,-0.045
2328,-0.230,-0.045
2329,-0.210,-0.010
2330,-0.200,0.030
2331,-0.265,0.025
2332,-0.340,0.010
2333,-0.335,0.025
2334,-0.315,0.055
2335,-0.240,0.060
2336,-0.165,0.065
2337,-0.170,0.080
2338,-0.175,0.095
2339,-0.165,0.095
2340,-0.160,0.095
2341,-0.195,0.120
2342,-0.225,0.145
2343,-0.210,0.155
2344,-0.200,0.170
2345,-0.225,0.200
2346,-0.215,0.230
2347,-0.100,0.250
2348,-0.025,0.270
2349,-0.035,0.290
2350,-0.060,0.310
2351,-0.105,0.330
2352,-0.105,0.355
2353,-0.025,0.385
2354,0.015,0.420
2355,0.030,0.465
2356,0.040,0.485
2357,0.055,0.485
2358,0.070,0.490
2359,0.085,0.500
2360,0.095,0.520
2361,0.100,0.550
2362,0.125,0.565
2363,0.160,0.560
2364,0.185,0.545
2365,0.200,0.530
2366,0.230,0.510
2367,0.265,0.480
2368,0.290,0.460
2369,0.310,0.440
2370,0.300,0.410
2371,0.280,0.380
2372,0.205,0.325
2373,0.120,0.270
2374,0.095,0.230
2375,0.115,0.265
2376,0.050,0.150
2377,0.035,0.115
2378,0.035,0.070
2379,0.035,0.025
2380,-0.020,-0.025
2381,-0.065,-0.065
2382,-0.100,-0.090
2383,-0.125,-0.115
2384,-0.095,-0.130
2385,-0.085,-0.145
2386,-0.150,-0.160
2387,-0.205,-0.175
2388,-0.250,-0.185
2389,-0.285,-0.200
2390,-0.290,-0.215
2391,-0.280,-0.225
2392,-0.225,-0.220
2393,-0.200,-0.215
2394,-0.220,-0.215
2395,-0.240,-0.215
2396,-0.265,-0.220
2397,-0.270,-0.225
2398,-0.260,-0.220
2399,-0.240,-0.210
2400,-0.210,-0.195
2401,-0.160,-0.185
2402,-0.100,-0.185
2403,-0.135,-0.185
2404,-0.235,-0.180
2405,-0.280,-0.185
2406,-0.305,-0.200
2407,-0.260,-0.200
2408,-0.185,-0.190
2409,-0.150,-0.180
2410,-0.130,-0.170
2411,-0.150,-0.165
2412,-0.180,-0.170
2413,-0.205,-0.185
2414,-0.230,-0.200
2415,-0.215,-0.205
2416,-0.190,-0.200
2417,-0.160,-0.200
2418,-0.135,-0.205
2419,-0.180,-0.205
2420,-0.220,-0.205
2421,-0.145,-0.210
2422,-0.080,-0.215
2423,-0.160,-0.215
2424,-0.225,-0.215
2425,-0.240,-0.215
2426,-0.245,-0.215
2427,-0.185,-0.235
2428,-0.140,-0.255
2429,-0.165,-0.255
2430,-0.195,-0.255
2431,-0.245,-0.245
2432,-0.265,-0.235
2433,-0.235,-0.245
2434,-0.205,-0.255
2435,-0.175,-0.265
2436,-0.165,-0.275
2437,-0.190,-0.270
2438,-0.215,-0.265
2439,-0.240,-0.265
2440,-0.230,-0.265
2441,-0.185,-0.265
2442,-0.170,-0.265
2443,-0.180,-0.260
2444,-0.220,-0.255
2445,-0.285,-0.260
2446,-0.260,-0.265
2447,-0.185,-0.260
2448,-0.195,-0.255
2449,-0.235,-0.255
2450,-0.250,-0.260
2451,-0.260,-0.270
2452,-0.245,-0.270
2453,-0.220,-0.260
2454,-0.180,-0.255
2455,-0.140,-0.250
2456,-0.180,-0.245
2457,-0.230,-0.245
2458,-0.235,-0.255
2459,-0.235,-0.275
2460,-0.225,-0.265
2461,-0.215,-0.255
2462,-0.205,-0.255
2463,-0.195,-0.255
2464,-0.165,-0.245
2465,-0.145,-0.235
2466,-0.220,-0.245
2467,-0.280,-0.255
2468,-0.250,-0.250
2469,-0.220,-0.245
2470,-0.200,-0.240
2471,-0.185,-0.235
2472,-0.180,-0.235
2473,-0.175,-0.235
2474,-0.180,-0.240
2475,-0.185,-0.245
2476,-0.180,-0.250
2477,-0.185,-0.245
2478,-0.215,-0.215
2479,-0.235,-0.205
2480,-0.220,-0.230
2481,-0.220,-0.245
2482,-0.230,-0.245
2483,-0.225,-0.245
2484,-0.205,-0.245
2485,-0.180,-0.240
2486,-0.155,-0.230
2487,-0.175,-0.225
2488,-0.220,-0.220
2489,-0.190,-0.215
2490,-0.125,-0.215
2491,-0.140,-0.215
2492,-0.195,-0.215
2493,-0.195,-0.200
2494,-0.180,-0.180
2495,-0.185,-0.170
2496,-0.200,-0.160
2497,-0.170,-0.140
2498,-0.130,-0.120
2499,-0.045,-0.115
2500,-0.125,-0.115
2501,0.020,-0.095
2502,-0.005,-0.085
2503,-0.055,-0.110
2504,-0.105,-0.135
2505,-0.085,-0.165
2506,-0.065,-0.195
2507,-0.080,-0.210
2508,-0.105,-0.225
2509,-0.185,-0.225
2510,-0.245,-0.225
2511,-0.235,-0.225
2512,-0.210,-0.230
2513,-0.155,-0.250
2514,-0.135,-0.260
2515,-0.195,-0.240
2516,-0.220,-0.225
2517,-0.165,-0.230
2518,-0.135,-0.235
2519,-0.145,-0.225
2520,-0.170,-0.215
2521,-0.205,-0.215
2522,-0.200,-0.215
2523,-0.140,-0.210
2524,-0.175,-0.250
2525,-0.290,-0.330
2526,-0.475,-0.300
2527,-0.705,-0.185
2528,-0.755,-0.050
2529,-0.705,0.100
2530,-0.315,0.220
2531,0.220,0.325
2532,0.890,0.390
2533,1.605,0.440
2534,2.170,0.680
2535,2.690,0.970
2536,2.870,1.060
2537,2.980,1.115
2538,2.740,0.390
2539,2.455,-0.440
2540,1.225,-0.835
2541,-0.070,-1.195
2542,-0.610,-1.090
2543,-1.125,-0.975
2544,-1.135,-0.875
2545,-1.140,-0.780
2546,-1.065,-0.670
2547,-0.980,-0.560
2548,-0.830,-0.415
2549,-0.680,-0.280
2550,-0.510,-0.175
2551,-0.375,-0.090
2552,-0.385,-0.060
2553,-0.395,-0.035
2554,-0.380,-0.025
2555,-0.345,-0.015
2556,-0.280,-0.005
2557,-0.240,0.005
2558,-0.255,0.015
2559,-0.265,0.025
2560,-0.270,0.030
2561,-0.260,0.040
2562,-0.220,0.060
2563,-0.190,0.080
2564,-0.180,0.095
2565,-0.175,0.105
2566,-0.175,0.110
2567,-0.170,0.115
2568,-0.155,0.115
2569,-0.135,0.120
2570,-0.115,0.140
2571,-0.095,0.160
2572,-0.075,0.185
2573,-0.065,0.210
2574,-0.065,0.230
2575,-0.090,0.240
2576,-0.125,0.250
2577,-0.125,0.275
2578,-0.110,0.300
2579,-0.065,0.330
2580,-0.010,0.360
2581,0.015,0.380
2582,0.040,0.400
2583,0.070,0.430
2584,0.105,0.465
2585,0.130,0.470
2586,0.155,0.475
2587,0.170,0.485
2588,0.185,0.495
2589,0.210,0.500
2590,0.235,0.505
2591,0.245,0.495
2592,0.260,0.485
2593,0.295,0.475
2594,0.325,0.465
2595,0.340,0.450
2596,0.335,0.425
2597,0.265,0.390
2598,0.225,0.355
2599,0.260,0.320
2600,0.265,0.280
2601,0.215,0.240
2602,0.165,0.205
2603,0.105,0.175
2604,0.070,0.140
2605,0.045,0.095
2606,0.025,0.050
2607,0.000,0.000
2608,-0.020,-0.035
2609,-0.035,-0.055
2610,-0.050,-0.070
2611,-0.065,-0.085
2612,-0.070,-0.105
2613,-0.060,-0.120
2614,-0.065,-0.140
2615,-0.080,-0.165
2616,-0.125,-0.175
2617,-0.180,-0.170
2618,-0.195,-0.165
2619,-0.190,-0.160
2620,-0.160,-0.150
2621,-0.130,-0.140
2622,-0.135,-0.135
2623,-0.150,-0.140
2624,-0.105,-0.145
2625,-0.155,-0.145
2626,-0.075,-0.140
2627,-0.105,-0.135
2628,-0.080,-0.135
2629,-0.060,-0.135
2630,-0.115,-0.135
2631,-0.165,-0.135
2632,-0.145,-0.135
2633,-0.125,-0.135
2634,-0.120,-0.140
2635,-0.110,-0.145
2636,-0.085,-0.140
2637,-0.065,-0.135
2638,-0.070,-0.140
2639,-0.080,-0.145
2640,-0.100,-0.155
2641,-0.115,-0.165
2642,-0.110,-0.155
2643,-0.085,-0.145
2644,-0.035,-0.155
2645,-0.025,-0.165
2646,-0.070,-0.180
2647,-0.120,-0.190
2648,-0.170,-0.200
2649,-0.180,-0.205
2650,-0.150,-0.200
2651,-0.130,-0.195
2652,-0.115,-0.200
2653,-0.115,-0.210
2654,-0.130,-0.220
2655,-0.135,-0.230
2656,-0.135,-0.240
2657,-0.135,-0.235
2658,-0.130,-0.220
2659,-0.090,-0.220
2660,-0.045,-0.230
2661,-0.065,-0.230
2662,-0.110,-0.220
2663,-0.170,-0.220
2664,-0.240,-0.230
2665,-0.220,-0.235
2666,-0.190,-0.235
2667,-0.170,-0.230
2668,-0.155,-0.225
2669,-0.155,-0.235
2670,-0.155,-0.245
2671,-0.150,-0.245
2672,-0.145,-0.245
2673,-0.135,-0.235
2674,-0.125,-0.225
2675,-0.135,-0.225
2676,-0.130,-0.225
2677,-0.060,-0.235
2678,-0.015,-0.245
2679,-0.075,-0.235
2680,-0.130,-0.225
2681,-0.185,-0.215
2682,-0.215,-0.205
2683,-0.170,-0.210
2684,-0.145,-0.215
2685,-0.150,-0.215
2686,-0.150,-0.215
2687,-0.130,-0.225
2688,-0.110,-0.230
2689,-0.100,-0.215
2690,-0.095,-0.210
2691,-0.100,-0.220
2692,-0.090,-0.225
2693,-0.060,-0.220
2694,-0.070,-0.215
2695,-0.120,-0.215
2696,-0.145,-0.215
2697,-0.165,-0.215
2698,-0.130,-0.215
2699,-0.060,-0.210
2700,-0.075,-0.205
2701,-0.115,-0.210
2702,-0.125,-0.200
2703,-0.120,-0.180
2704,-0.115,-0.170
2705,-0.120,-0.160
2706,-0.070,-0.145
2707,-0.010,-0.130
2708,-0.030,-0.125
2709,-0.065,-0.135
2710,-0.060,-0.120
2711,-0.055,-0.105
2712,-0.020,-0.095
2713,0.020,-0.085
2714,0.065,-0.070
2715,0.100,-0.060
2716,0.060,-0.100
2717,0.020,-0.140
2718,-0.030,-0.180
2719,-0.060,-0.215
2720,-0.030,-0.220
2721,-0.010,-0.225
2722,-0.035,-0.230
2723,-0.055,-0.235
2724,-0.065,-0.225
2725,-0.075,-0.215
2726,-0.070,-0.220
2727,-0.090,-0.225
2728,-0.160,-0.220
2729,-0.195,-0.215
2730,-0.180,-0.220
2731,-0.165,-0.225
2732,-0.140,-0.220
2733,-0.120,-0.215
2734,-0.105,-0.210
2735,-0.080,-0.205
2736,-0.050,-0.200
2737,-0.175,-0.260
2738,-0.390,-0.355
2739,-0.545,-0.275
2740,-0.675,-0.115
2741,-0.580,0.030
2742,-0.420,0.175
2743,0.100,0.185
2744,0.700,0.150
2745,1.390,0.290
2746,2.095,0.455
2747,2.520,0.820
2748,2.915,1.205
2749,3.040,1.075
2750,2.935,1.225
2751,2.560,0.040
2752,1.935,-0.800
2753,0.820,-0.970
2754,-0.230,-1.115
2755,-0.615,-1.010
2756,-0.945,-0.900
2757,-0.930,-0.765
2758,-0.915,-0.635
2759,-0.885,-0.505
2760,-0.830,-0.375
2761,-0.680,-0.245
2762,-0.525,-0.130
2763,-0.385,-0.060
2764,-0.285,-0.015
2765,-0.285,-0.020
2766,-0.255,-0.015
2767,-0.175,0.015
2768,-0.155,0.035
2769,-0.230,0.025
2770,-0.260,0.020
2771,-0.225,0.035
2772,-0.200,0.050
2773,-0.185,0.065
2774,-0.135,0.080
2775,-0.055,0.095
2776,-0.080,0.110
2777,-0.170,0.120
2778,-0.205,0.135
2779,-0.200,0.155
2780,-0.170,0.165
2781,-0.135,0.165
2782,-0.105,0.185
2783,-0.075,0.215
2784,-0.060,0.240
2785,-0.050,0.260
2786,-0.010,0.275
2787,0.035,0.290
2788,0.010,0.315
2789,-0.030,0.340
2790,0.020,0.375
2791,0.080,0.410
2792,0.095,0.450
2793,0.105,0.485
2794,0.100,0.500
2795,0.095,0.515
2796,0.120,0.535
2797,0.150,0.555
2798,0.210,0.585
2799,0.265,0.615
2800,0.235,0.615
2801,0.215,0.615
2802,0.220,0.600
2803,0.245,0.585
2804,0.320,0.570
2805,0.380,0.550
2806,0.400,0.530
2807,0.395,0.510
2808,0.325,0.490
2809,0.285,0.455
2810,0.295,0.400
2811,0.295,0.350
2812,0.270,0.310
2813,0.245,0.265
2814,0.220,0.220
2815,0.170,0.170
2816,0.095,0.120
2817,0.070,0.070
2818,0.080,0.025
2819,0.060,-0.015
2820,0.020,-0.050
2821,0.005,-0.080
2822,0.000,-0.105
2823,-0.050,-0.120
2824,-0.120,-0.130
2825,-0.135,-0.150
2826,-0.135,-0.170
2827,-0.135,-0.185
2828,-0.135,-0.200
2829,-0.130,-0.190
2830,-0.120,-0.170
2831,-0.150,-0.180
2832,-0.190,-0.200
2833,-0.180,-0.205
2834,-0.155,-0.205
2835,-0.160,-0.215
2836,-0.165,-0.225
2837,-0.145,-0.205
2838,-0.125,-0.185
2839,-0.115,-0.180
2840,-0.110,-0.175
2841,-0.150,-0.175
2842,-0.180,-0.175
2843,-0.150,-0.175
2844,-0.120,-0.175
2845,-0.100,-0.165
2846,-0.090,-0.155
2847,-0.110,-0.155
2848,-0.115,-0.155
2849,-0.085,-0.155
2850,-0.050,-0.155
2851,-0.005,-0.155
2852,-0.025,-0.155
2853,-0.150,-0.165
2854,-0.195,-0.175
2855,-0.140,-0.160
2856,-0.090,-0.165
2857,-0.030,-0.190
2858,-0.040,-0.205
2859,-0.100,-0.200
2860,-0.120,-0.195
2861,-0.105,-0.190
2862,-0.085,-0.195
2863,-0.065,-0.210
2864,-0.065,-0.215
2865,-0.080,-0.215
2866,-0.085,-0.230
2867,-0.080,-0.250
2868,-0.075,-0.255
2869,-0.075,-0.250
2870,-0.140,-0.245
2871,-0.215,-0.245
2872,-0.195,-0.245
2873,-0.160,-0.245
2874,-0.150,-0.245
2875,-0.155,-0.245
2876,-0.125,-0.245
2877,-0.115,-0.245
2878,-0.115,-0.255
2879,-0.115,-0.265
2880,-0.130,-0.270
2881,-0.145,-0.275
2882,-0.145,-0.270
2883,-0.145,-0.265
2884,-0.115,-0.265
2885,-0.085,-0.265
2886,-0.035,-0.255
2887,-0.015,-0.245
2888,-0.085,-0.260
2889,-0.140,-0.275
2890,-0.165,-0.270
2891,-0.185,-0.265
2892,-0.175,-0.255
2893,-0.165,-0.245
2894,-0.165,-0.255
2895,-0.155,-0.265
2896,-0.130,-0.260
2897,-0.125,-0.255
2898,-0.145,-0.260
2899,-0.155,-0.265
2900,-0.150,-0.260
2901,-0.135,-0.255
2902,-0.115,-0.260
2903,-0.120,-0.265
2904,-0.145,-0.265
2905,-0.140,-0.265
2906,-0.115,-0.260
2907,-0.115,-0.250
2908,-0.130,-0.240
2909,-0.155,-0.235
2910,-0.190,-0.240
2911,-0.180,-0.240
2912,-0.160,-0.230
2913,-0.130,-0.235
2914,-0.100,-0.250
2915,-0.135,-0.255
2916,-0.180,-0.255
2917,-0.170,-0.255
2918,-0.155,-0.255
2919,-0.115,-0.245
2920,-0.075,-0.235
2921,-0.120,-0.240
2922,-0.160,-0.245
2923,-0.120,-0.225
2924,-0.085,-0.205
2925,-0.070,-0.195
2926,-0.065,-0.185
2927,-0.135,-0.185
2928,-0.180,-0.185
2929,-0.160,-0.175
2930,-0.140,-0.160
2931,-0.120,-0.125
2932,-0.095,-0.105
2933,-0.065,-0.100
2934,-0.035,-0.095
2935,-0.005,-0.100
2936,0.015,-0.115
2937,0.005,-0.145
2938,-0.015,-0.175
2939,-0.040,-0.200
2940,-0.055,-0.215
2941,-0.050,-0.220
2942,-0.065,-0.235
2943,-0.100,-0.255
2944,-0.120,-0.260
2945,-0.130,-0.240
2946,-0.155,-0.240
2947,-0.185,-0.250
2948,-0.170,-0.255
2949,-0.135,-0.250
2950,-0.175,-0.245
2951,-0.240,-0.245
2952,-0.200,-0.240
2953,-0.135,-0.230
2954,-0.155,-0.225
2955,-0.190,-0.225
2956,-0.185,-0.225
2957,-0.170,-0.225
2958,-0.235,-0.320
2959,-0.315,-0.425
2960,-0.535,-0.335
2961,-0.745,-0.240
2962,-0.695,-0.100
2963,-0.610,0.035
2964,-0.280,0.140
2965,0.125,0.245
2966,0.900,0.335
2967,1.650,0.475
2968,2.275,0.830
2969,2.785,1.110
2970,2.955,1.175
2971,2.955,0.945
2972,2.535,0.000
2973,1.825,-0.725
2974,0.570,-1.020
2975,-0.365,-1.155
2976,-0.805,-1.020
2977,-1.080,-0.905
2978,-1.140,-0.800
2979,-1.145,-0.690
2980,-1.070,-0.575
2981,-0.970,-0.445
2982,-0.840,-0.315
2983,-0.620,-0.205
2984,-0.325,-0.110
2985,-0.235,-0.075
2986,-0.270,-0.070
2987,-0.330,-0.060
2988,-0.400,-0.050
2989,-0.395,-0.045
2990,-0.350,-0.040
2991,-0.335,-0.025
2992,-0.340,-0.010
2993,-0.305,0.005
2994,-0.255,0.020
2995,-0.220,0.030
2996,-0.190,0.040
2997,-0.220,0.045
2998,-0.260,0.045
2999,-0.240,0.070
3000,-0.265,0.045
3001,-0.180,0.120
3002,-0.155,0.135
3003,-0.190,0.135
3004,-0.225,0.135
3005,-0.200,0.150
3006,-0.180,0.165
3007,-0.215,0.190
3008,-0.240,0.215
3009,-0.205,0.245
3010,-0.165,0.270
3011,-0.120,0.295
3012,-0.070,0.320
3013,-0.015,0.345
3014,0.045,0.375
3015,0.105,0.410
3016,0.110,0.440
3017,0.005,0.455
3018,-0.035,0.470
3019,0.025,0.485
3020,0.080,0.500
3021,0.145,0.515
3022,0.155,0.520
3023,0.110,0.505
3024,0.095,0.495
3025,0.125,0.495
3026,0.155,0.485
3027,0.200,0.465
3028,0.215,0.435
3029,0.215,0.405
3030,0.245,0.385
3031,0.290,0.365
3032,0.290,0.325
3033,0.270,0.275
3034,0.165,0.235
3035,0.035,0.195
3036,0.015,0.150
3037,0.010,0.105
3038,0.015,0.045
3039,0.030,-0.010
3040,-0.040,-0.020
3041,-0.120,-0.030
3042,-0.130,-0.075
3043,-0.135,-0.115
3044,-0.140,-0.125
3045,-0.145,-0.135
3046,-0.210,-0.160
3047,-0.265,-0.185
3048,-0.245,-0.180
3049,-0.230,-0.175
3050,-0.265,-0.190
3051,-0.290,-0.205
3052,-0.255,-0.200
3053,-0.225,-0.195
3054,-0.230,-0.190
3055,-0.235,-0.185
3056,-0.225,-0.195
3057,-0.215,-0.200
3058,-0.210,-0.185
3059,-0.195,-0.175
3060,-0.165,-0.175
3061,-0.170,-0.175
3062,-0.225,-0.165
3063,-0.250,-0.155
3064,-0.240,-0.155
3065,-0.235,-0.155
3066,-0.240,-0.160
3067,-0.225,-0.165
3068,-0.190,-0.170
3069,-0.170,-0.170
3070,-0.160,-0.160
3071,-0.190,-0.160
3072,-0.240,-0.170
3073,-0.215,-0.175
3074,-0.160,-0.180
3075,-0.105,-0.185
3076,-0.045,-0.180
3077,-0.140,-0.180
3078,-0.265,-0.190
3079,-0.245,-0.195
3080,-0.190,-0.195
3081,-0.205,-0.205
3082,-0.230,-0.220
3083,-0.260,-0.225
3084,-0.295,-0.235
3085,-0.165,-0.235
3086,-0.050,-0.235
3087,-0.190,-0.240
3088,-0.305,-0.245
3089,-0.200,-0.245
3090,-0.115,-0.245
3091,-0.205,-0.255
3092,-0.275,-0.265
3093,-0.275,-0.255
3094,-0.260,-0.245
3095,-0.180,-0.235
3096,-0.140,-0.225
3097,-0.195,-0.235
3098,-0.245,-0.245
3099,-0.280,-0.250
3100,-0.295,-0.255
3101,-0.265,-0.255
3102,-0.240,-0.255
3103,-0.225,-0.245
3104,-0.190,-0.240
3105,-0.125,-0.255
3106,-0.140,-0.260
3107,-0.225,-0.245
3108,-0.240,-0.235
3109,-0.195,-0.230
3110,-0.190,-0.230
3111,-0.215,-0.245
3112,-0.240,-0.245
3113,-0.265,-0.230
3114,-0.265,-0.225
3115,-0.250,-0.230
3116,-0.220,-0.235
3117,-0.185,-0.240
3118,-0.175,-0.250
3119,-0.180,-0.260
3120,-0.185,-0.255
3121,-0.190,-0.240
3122,-0.170,-0.230
3123,-0.140,-0.220
3124,-0.200,-0.220
3125,-0.135,-0.215
3126,-0.225,-0.230
3127,-0.175,-0.225
3128,-0.215,-0.225
3129,-0.255,-0.225
3130,-0.250,-0.235
3131,-0.235,-0.245
3132,-0.160,-0.230
3133,-0.100,-0.215
3134,-0.155,-0.225
3135,-0.200,-0.235
3136,-0.230,-0.225
3137,-0.245,-0.215
3138,-0.190,-0.210
3139,-0.170,-0.210
3140,-0.215,-0.235
3141,-0.220,-0.245
3142,-0.150,-0.210
3143,-0.135,-0.190
3144,-0.205,-0.210
3145,-0.215,-0.225
3146,-0.150,-0.210
3147,-0.115,-0.210
3148,-0.115,-0.225
3149,-0.145,-0.225
3150,-0.200,-0.205
3151,-0.225,-0.195
3152,-0.230,-0.190
3153,-0.225,-0.185
3154,-0.205,-0.180
3155,-0.145,-0.165
3156,-0.065,-0.150
3157,-0.085,-0.135
3158,-0.140,-0.120
3159,-0.120,-0.105
3160,-0.075,-0.090
3161,-0.065,-0.085
3162,-0.060,-0.080
3163,0.020,-0.080
3164,0.105,-0.090
3165,0.005,-0.150
3166,-0.110,-0.210
3167,-0.125,-0.205
3168,-0.135,-0.195
3169,-0.195,-0.215
3170,-0.255,-0.235
3171,-0.190,-0.230
3172,-0.135,-0.225
3173,-0.130,-0.220
3174,-0.125,-0.215
3175,-0.125,-0.220
3176,-0.125,-0.225
3177,-0.130,-0.225
3178,-0.125,-0.225
3179,-0.065,-0.215
3180,-0.055,-0.205
3181,-0.150,-0.195
3182,-0.215,-0.185
3183,-0.225,-0.190
3184,-0.230,-0.200
3185,-0.210,-0.220
3186,-0.265,-0.250
3187,-0.425,-0.285
3188,-0.560,-0.215
3189,-0.680,-0.030
3190,-0.570,0.140
3191,-0.270,0.305
3192,0.155,0.330
3193,0.670,0.245
3194,1.365,0.395
3195,2.170,0.685
3196,2.620,0.990
3197,2.905,1.310
3198,3.060,1.035
3199,3.160,0.535
3200,2.350,-0.220
3201,1.280,-1.050
3202,0.370,-1.140
3203,-0.505,-1.075
3204,-0.825,-0.945
3205,-1.065,-0.810
3206,-1.055,-0.710
3207,-1.020,-0.610
3208,-0.940,-0.485
3209,-0.855,-0.355
3210,-0.660,-0.215
3211,-0.470,-0.085
3212,-0.390,-0.040
3213,-0.315,0.005
3214,-0.345,0.000
3215,-0.355,-0.005
3216,-0.230,0.005
3217,-0.125,0.015
3218,-0.135,0.035
3219,-0.160,0.055
3220,-0.225,0.065
3221,-0.275,0.075
3222,-0.270,0.085
3223,-0.250,0.095
3224,-0.205,0.105
3225,-0.140,0.115
3226,-0.040,0.125
3227,0.010,0.145
3228,-0.005,0.170
3229,-0.060,0.185
3230,-0.165,0.200
3231,-0.200,0.210
3232,-0.170,0.225
3233,-0.135,0.235
3234,-0.095,0.240
3235,-0.035,0.260
3236,0.030,0.290
3237,0.050,0.325
3238,0.040,0.360
3239,0.000,0.390
3240,-0.050,0.415
3241,-0.025,0.435
3242,0.030,0.450
3243,0.080,0.475
3244,0.125,0.510
3245,0.170,0.530
3246,0.210,0.550
3247,0.230,0.555
3248,0.250,0.560
3249,0.240,0.565
3250,0.255,0.565
3251,0.210,0.555
3252,0.205,0.555
3253,0.285,0.535
3254,0.355,0.515
3255,0.315,0.495
3256,0.275,0.470
3257,0.275,0.430
3258,0.275,0.390
3259,0.265,0.360
3260,0.255,0.330
3261,0.240,0.295
3262,0.210,0.255
3263,0.150,0.210
3264,0.090,0.160
3265,0.040,0.115
3266,0.015,0.080
3267,0.050,0.050
3268,0.050,0.020
3269,-0.010,-0.015
3270,-0.050,-0.045
3271,-0.075,-0.070
3272,-0.090,-0.090
3273,-0.105,-0.105
3274,-0.120,-0.120
3275,-0.130,-0.130
3276,-0.105,-0.140
3277,-0.055,-0.150
3278,-0.080,-0.150
3279,-0.150,-0.140
3280,-0.165,-0.135
3281,-0.145,-0.140
3282,-0.120,-0.145
3283,-0.095,-0.145
3284,-0.095,-0.140
3285,-0.110,-0.130
3286,-0.150,-0.120
3287,-0.195,-0.110
3288,-0.190,-0.105
3289,-0.170,-0.100
3290,-0.145,-0.095
3291,-0.120,-0.095
3292,-0.110,-0.100
3293,-0.105,-0.105
3294,-0.090,-0.110
3295,-0.075,-0.115
3296,-0.055,-0.115
3297,-0.035,-0.115
3298,-0.060,-0.105
3299,-0.085,-0.095
3300,-0.100,-0.105
3301,-0.100,-0.115
3302,-0.020,-0.130
3303,0.025,-0.145
3304,-0.050,-0.135
3305,-0.105,-0.130
3306,-0.115,-0.150
3307,-0.125,-0.165
3308,-0.130,-0.155
3309,-0.135,-0.150
3310,-0.125,-0.165
3311,-0.115,-0.175
3312,-0.120,-0.185
3313,-0.125,-0.195
3314,-0.125,-0.190
3315,-0.120,-0.190
3316,-0.110,-0.205
3317,-0.105,-0.215
3318,-0.100,-0.220
3319,-0.100,-0.225
3320,-0.120,-0.225
3321,-0.105,-0.225
3322,-0.075,-0.225
3323,-0.105,-0.225
3324,-0.160,-0.225
3325,-0.185,-0.230
3326,-0.200,-0.240
3327,-0.185,-0.240
3328,-0.160,-0.230
3329,-0.140,-0.225
3330,-0.120,-0.220
3331,-0.085,-0.215
3332,-0.050,-0.215
3333,-0.105,-0.215
3334,-0.175,-0.225
3335,-0.195,-0.235
3336,-0.215,-0.245
3337,-0.170,-0.240
3338,-0.125,-0.235
3339,-0.130,-0.230
3340,-0.135,-0.225
3341,-0.145,-0.230
3342,-0.155,-0.235
3343,-0.140,-0.235
3344,-0.125,-0.235
3345,-0.110,-0.225
3346,-0.095,-0.215
3347,-0.110,-0.225
3348,-0.125,-0.235
3349,-0.120,-0.235
3350,-0.115,-0.235
3351,-0.120,-0.235
3352,-0.120,-0.235
3353,-0.100,-0.235
3354,-0.090,-0.235
3355,-0.115,-0.220
3356,-0.130,-0.215
3357,-0.145,-0.220
3358,-0.155,-0.225
3359,-0.150,-0.230
3360,-0.130,-0.230
3361,-0.100,-0.215
3362,-0.085,-0.205
3363,-0.080,-0.210
3364,-0.080,-0.215
3365,-0.090,-0.215
3366,-0.100,-0.215
3367,-0.110,-0.215
3368,-0.115,-0.215
3369,-0.115,-0.210
3370,-0.100,-0.205
3371,-0.080,-0.205
3372,-0.075,-0.205
3373,-0.080,-0.205
3374,-0.085,-0.205
3375,-0.085,-0.205
3376,-0.085,-0.210
3377,-0.075,-0.205
3378,-0.080,-0.210
3379,-0.085,-0.215
3380,-0.075,-0.205
3381,-0.065,-0.195
3382,-0.055,-0.185
3383,-0.045,-0.175
3384,-0.050,-0.145
3385,-0.055,-0.125
3386,-0.060,-0.120
3387,-0.060,-0.115
3388,-0.030,-0.105
3389,0.005,-0.095
3390,0.035,-0.095
3391,0.070,-0.095
3392,0.110,-0.085
3393,0.120,-0.090
3394,0.080,-0.125
3395,0.040,-0.160
3396,0.005,-0.205
3397,-0.025,-0.225
3398,-0.050,-0.230
3399,-0.065,-0.235
3400,-0.060,-0.235
3401,-0.060,-0.235
3402,-0.070,-0.230
3403,-0.075,-0.225
3404,-0.080,-0.230
3405,-0.085,-0.235
3406,-0.090,-0.235
3407,-0.085,-0.235
3408,-0.070,-0.230
3409,-0.085,-0.220
3410,-0.110,-0.210
3411,-0.105,-0.205
3412,-0.090,-0.205
3413,-0.070,-0.215
3414,-0.050,-0.230
3415,-0.215,-0.310
3416,-0.400,-0.390
3417,-0.535,-0.240
3418,-0.665,-0.085
3419,-0.535,0.070
3420,-0.380,0.215
3421,0.095,0.150
3422,0.605,0.115
3423,1.335,0.305
3424,2.025,0.530
3425,2.505,0.930
3426,2.915,1.205
3427,3.065,1.005
3428,3.015,0.610
3429,2.415,-0.330
3430,1.645,-1.005
3431,0.510,-1.100
3432,-0.370,-1.110
3433,-0.805,-0.960
3434,-1.045,-0.820
3435,-0.995,-0.700
3436,-0.920,-0.585
3437,-0.820,-0.465
3438,-0.700,-0.330
3439,-0.560,-0.175
3440,-0.440,-0.090
3441,-0.330,-0.050
3442,-0.270,-0.035
3443,-0.245,-0.035
3444,-0.240,-0.030
3445,-0.250,-0.020
3446,-0.250,-0.010
3447,-0.240,0.000
3448,-0.220,0.020
3449,-0.195,0.045
3450,-0.190,0.055
3451,-0.200,0.050
3452,-0.185,0.060
3453,-0.160,0.080
3454,-0.145,0.095
3455,-0.130,0.110
3456,-0.125,0.120
3457,-0.125,0.130
3458,-0.125,0.145
3459,-0.115,0.165
3460,-0.105,0.185
3461,-0.095,0.205
3462,-0.080,0.225
3463,-0.065,0.245
3464,-0.050,0.275
3465,-0.035,0.305
3466,-0.025,0.320
3467,-0.015,0.340
3468,-0.005,0.375
3469,0.010,0.415
3470,0.040,0.455
3471,0.075,0.485
3472,0.115,0.500
3473,0.145,0.520
3474,0.150,0.540
3475,0.155,0.555
3476,0.160,0.555
3477,0.175,0.555
3478,0.205,0.560
3479,0.230,0.565
3480,0.255,0.550
3481,0.265,0.540
3482,0.270,0.530
3483,0.280,0.510
3484,0.290,0.480
3485,0.300,0.460
3486,0.315,0.450
3487,0.315,0.415
3488,0.295,0.360
3489,0.270,0.310
3490,0.245,0.260
3491,0.210,0.215
3492,0.175,0.175
3493,0.145,0.120
3494,0.110,0.065
3495,0.070,0.020
3496,0.030,-0.020
3497,-0.010,-0.060
3498,-0.050,-0.100
3499,-0.065,-0.110
3500,-0.055,-0.105
3501,-0.085,-0.145
3502,-0.085,-0.165
3503,-0.110,-0.185
3504,-0.135,-0.205
3505,-0.145,-0.220
3506,-0.155,-0.235
3507,-0.160,-0.225
3508,-0.165,-0.215
3509,-0.165,-0.220
3510,-0.165,-0.225
3511,-0.170,-0.230
3512,-0.175,-0.235
3513,-0.175,-0.235
3514,-0.175,-0.230
3515,-0.180,-0.215
3516,-0.180,-0.205
3517,-0.160,-0.200
3518,-0.145,-0.195
3519,-0.150,-0.195
3520,-0.155,-0.195
3521,-0.150,-0.195
3522,-0.140,-0.195
3523,-0.130,-0.190
3524,-0.125,-0.185
3525,-0.130,-0.190
3526,-0.135,-0.190
3527,-0.130,-0.175
3528,-0.125,-0.170
3529,-0.125,-0.180
3530,-0.125,-0.190
3531,-0.130,-0.200
3532,-0.130,-0.200
3533,-0.120,-0.190
3534,-0.115,-0.190
3535,-0.115,-0.200
3536,-0.120,-0.210
3537,-0.130,-0.220
3538,-0.135,-0.225
3539,-0.135,-0.230
3540,-0.135,-0.235
3541,-0.135,-0.240
3542,-0.150,-0.255
3543,-0.165,-0.265
3544,-0.165,-0.265
3545,-0.165,-0.265
3546,-0.165,-0.270
3547,-0.165,-0.275
3548,-0.180,-0.270
3549,-0.195,-0.265
3550,-0.175,-0.275
3551,-0.160,-0.285
3552,-0.185,-0.295
3553,-0.205,-0.305
3554,-0.205,-0.300
3555,-0.205,-0.295
3556,-0.200,-0.290
3557,-0.195,-0.285
3558,-0.200,-0.290
3559,-0.210,-0.295
3560,-0.225,-0.305
3561,-0.235,-0.315
3562,-0.225,-0.305
3563,-0.215,-0.295
3564,-0.210,-0.295
3565,-0.205,-0.295
3566,-0.210,-0.295
3567,-0.215,-0.295
3568,-0.215,-0.295
3569,-0.215,-0.295
3570,-0.215,-0.300
3571,-0.215,-0.305
3572,-0.220,-0.310
3573,-0.225,-0.310
3574,-0.225,-0.300
3575,-0.225,-0.295
3576,-0.225,-0.300
3577,-0.225,-0.305
3578,-0.220,-0.300
3579,-0.210,-0.295
3580,-0.200,-0.290
3581,-0.195,-0.285
3582,-0.200,-0.285
3583,-0.210,-0.290
3584,-0.225,-0.305
3585,-0.225,-0.300
3586,-0.225,-0.295
3587,-0.220,-0.295
3588,-0.215,-0.295
3589,-0.215,-0.285
3590,-0.215,-0.275
3591,-0.215,-0.280
3592,-0.215,-0.285
3593,-0.215,-0.280
3594,-0.215,-0.275
3595,-0.200,-0.275
3596,-0.185,-0.275
3597,-0.195,-0.270
3598,-0.205,-0.265
3599,-0.205,-0.260
3600,-0.205,-0.255
3601,-0.210,-0.265
3602,-0.215,-0.275
3603,-0.205,-0.275
3604,-0.195,-0.275
3605,-0.200,-0.270
3606,-0.205,-0.265
3607,-0.200,-0.260
3608,-0.195,-0.255
3609,-0.190,-0.255
3610,-0.180,-0.250
3611,-0.170,-0.240
3612,-0.175,-0.245
3613,-0.190,-0.260
3614,-0.195,-0.260
3615,-0.195,-0.250
3616,-0.195,-0.245
3617,-0.195,-0.240
3618,-0.185,-0.215
3619,-0.170,-0.180
3620,-0.165,-0.175
3621,-0.160,-0.175
3622,-0.120,-0.160
3623,-0.080,-0.140
3624,-0.075,-0.135
3625,-0.075,-0.135
3626,-0.035,-0.120
3627,-0.005,-0.095
3628,-0.030,-0.140
3629,-0.055,-0.185
3630,-0.090,-0.215
3631,-0.125,-0.245
3632,-0.145,-0.255
3633,-0.165,-0.265
3634,-0.175,-0.270
3635,-0.185,-0.275
3636,-0.185,-0.270
3637,-0.185,-0.265
3638,-0.200,-0.275
3639,-0.215,-0.285
3640,-0.220,-0.280
3641,-0.220,-0.275
3642,-0.205,-0.265
3643,-0.195,-0.255
3644,-0.190,-0.255
3645,-0.185,-0.255
3646,-0.200,-0.260
3647,-0.190,-0.265
3648,-0.160,-0.260
3649,-0.245,-0.295
3650,-0.430,-0.375
3651,-0.600,-0.315
3652,-0.760,-0.160
3653,-0.715,0.015
3654,-0.555,0.200
3655,-0.080,0.255
3656,0.530,0.250
3657,1.250,0.405
3658,2.010,0.620
3659,2.455,0.930
3660,2.825,1.270
3661,3.010,0.955
3662,3.165,0.515
3663,2.265,-0.310
3664,1.230,-1.190
3665,0.325,-1.210
3666,-0.570,-1.170
3667,-0.895,-1.060
3668,-1.205,-0.955
3669,-1.180,-0.860
3670,-1.150,-0.765
3671,-1.065,-0.630
3672,-0.970,-0.490
3673,-0.845,-0.365
3674,-0.715,-0.240
3675,-0.570,-0.145
3676,-0.450,-0.065
3677,-0.410,-0.060
3678,-0.370,-0.055
3679,-0.350,-0.040
3680,-0.335,-0.025
3681,-0.335,-0.015
3682,-0.335,0.000
3683,-0.325,0.015
3684,-0.310,0.025
3685,-0.290,0.025
3686,-0.275,0.025
3687,-0.270,0.035
3688,-0.260,0.055
3689,-0.250,0.080
3690,-0.245,0.100
3691,-0.245,0.110
3692,-0.245,0.115
3693,-0.240,0.110
3694,-0.230,0.110
3695,-0.220,0.120
3696,-0.205,0.145
3697,-0.190,0.185
3698,-0.185,0.210
3699,-0.185,0.230
3700,-0.170,0.235
3701,-0.150,0.240
3702,-0.130,0.265
3703,-0.110,0.290
3704,-0.085,0.330
3705,-0.060,0.370
3706,-0.040,0.385
3707,-0.020,0.400
3708,-0.005,0.425
3709,0.015,0.455
3710,0.040,0.460
3711,0.065,0.465
3712,0.080,0.470
3713,0.095,0.475
3714,0.105,0.480
3715,0.125,0.485
3716,0.195,0.475
3717,0.250,0.465
3718,0.225,0.460
3719,0.210,0.455
3720,0.235,0.440
3721,0.235,0.420
3722,0.160,0.400
3723,0.095,0.370
3724,0.050,0.320
3725,0.030,0.275
3726,0.050,0.240
3727,0.065,0.200
3728,0.065,0.160
3729,0.045,0.120
3730,-0.010,0.075
3731,-0.070,0.035
3732,-0.135,-0.005
3733,-0.155,-0.045
3734,-0.135,-0.080
3735,-0.140,-0.095
3736,-0.165,-0.100
3737,-0.190,-0.115
3738,-0.215,-0.135
3739,-0.250,-0.155
3740,-0.285,-0.170
3741,-0.310,-0.180
3742,-0.330,-0.190
3743,-0.315,-0.195
3744,-0.290,-0.190
3745,-0.285,-0.175
3746,-0.290,-0.160
3747,-0.295,-0.160
3748,-0.300,-0.170
3749,-0.265,-0.175
3750,-0.305,-0.175
3751,-0.160,-0.185
3752,-0.105,-0.185
3753,-0.115,-0.165
3754,-0.135,-0.145
3755,-0.240,-0.145
3756,-0.335,-0.145
3757,-0.345,-0.155
3758,-0.355,-0.165
3759,-0.335,-0.175
3760,-0.290,-0.185
3761,-0.180,-0.185
3762,-0.105,-0.185
3763,-0.140,-0.175
3764,-0.175,-0.170
3765,-0.205,-0.185
3766,-0.220,-0.195
3767,-0.200,-0.195
3768,-0.185,-0.195
3769,-0.190,-0.190
3770,-0.195,-0.185
3771,-0.210,-0.200
3772,-0.225,-0.205
3773,-0.245,-0.210
3774,-0.260,-0.215
3775,-0.270,-0.215
3776,-0.285,-0.215
3777,-0.305,-0.215
3778,-0.315,-0.215
3779,-0.310,-0.220
3780,-0.295,-0.235
3781,-0.275,-0.250
3782,-0.255,-0.245
3783,-0.240,-0.230
3784,-0.250,-0.225
3785,-0.270,-0.230
3786,-0.275,-0.240
3787,-0.280,-0.250
3788,-0.255,-0.255
3789,-0.220,-0.260
3790,-0.215,-0.265
3791,-0.220,-0.260
3792,-0.245,-0.250
3793,-0.265,-0.245
3794,-0.260,-0.240
3795,-0.255,-0.235
3796,-0.285,-0.240
3797,-0.315,-0.245
3798,-0.305,-0.235
3799,-0.290,-0.225
3800,-0.260,-0.240
3801,-0.235,-0.255
3802,-0.240,-0.260
3803,-0.245,-0.265
3804,-0.245,-0.260
3805,-0.245,-0.255
3806,-0.245,-0.255
3807,-0.245,-0.255
3808,-0.240,-0.250
3809,-0.235,-0.245
3810,-0.245,-0.250
3811,-0.245,-0.255
3812,-0.215,-0.255
3813,-0.185,-0.255
3814,-0.160,-0.250
3815,-0.180,-0.245
3816,-0.245,-0.245
3817,-0.260,-0.245
3818,-0.235,-0.250
3819,-0.220,-0.250
3820,-0.210,-0.240
3821,-0.205,-0.235
3822,-0.210,-0.230
3823,-0.260,-0.225
3824,-0.320,-0.230
3825,-0.290,-0.235
3826,-0.230,-0.230
3827,-0.215,-0.220
3828,-0.215,-0.210
3829,-0.175,-0.195
3830,-0.130,-0.180
3831,-0.085,-0.175
3832,-0.040,-0.170
3833,-0.130,-0.155
3834,-0.235,-0.135
3835,-0.190,-0.120
3836,-0.145,-0.105
3837,-0.130,-0.095
3838,-0.115,-0.085
3839,-0.110,-0.100
3840,-0.105,-0.120
3841,-0.105,-0.165
3842,-0.110,-0.205
3843,-0.150,-0.215
3844,-0.185,-0.225
3845,-0.185,-0.225
3846,-0.175,-0.225
3847,-0.135,-0.230
3848,-0.125,-0.235
3849,-0.200,-0.235
3850,-0.245,-0.235
3851,-0.240,-0.235
3852,-0.230,-0.235
3853,-0.215,-0.235
3854,-0.205,-0.235
3855,-0.200,-0.220
3856,-0.195,-0.215
3857,-0.195,-0.215
3858,-0.170,-0.215
3859,-0.115,-0.210
3860,-0.180,-0.230
3861,-0.315,-0.270
3862,-0.460,-0.250
3863,-0.610,-0.195
3864,-0.645,-0.050
3865,-0.620,0.120
3866,-0.335,0.225
3867,0.035,0.305
3868,0.700,0.310
3869,1.440,0.290
3870,2.050,0.510
3871,2.635,0.780
3872,2.820,0.890
3873,2.965,0.990
3874,2.805,0.275
3875,2.975,0.995
3876,1.365,-0.845
3877,0.130,-1.190
3878,-0.425,-1.060
3879,-0.945,-0.925
3880,-1.075,-0.805
3881,-1.180,-0.685
3882,-1.115,-0.585
3883,-1.050,-0.485
3884,-0.945,-0.360
3885,-0.805,-0.235
3886,-0.525,-0.105
3887,-0.325,-0.005
3888,-0.310,0.005
3889,-0.295,0.015
3890,-0.300,0.020
3891,-0.295,0.030
3892,-0.260,0.050
3893,-0.240,0.065
3894,-0.260,0.055
3895,-0.265,0.055
3896,-0.230,0.080
3897,-0.230,0.095
3898,-0.260,0.100
3899,-0.255,0.110
3900,-0.220,0.120
3901,-0.195,0.135
3902,-0.175,0.155
3903,-0.125,0.165
3904,-0.055,0.160
3905,-0.010,0.170
3906,0.025,0.195
3907,0.010,0.225
3908,-0.025,0.255
3909,-0.100,0.270
3910,-0.190,0.280
3911,-0.150,0.300
3912,-0.085,0.320
3913,-0.040,0.365
3914,0.000,0.410
3915,-0.025,0.425
3916,-0.060,0.440
3917,0.005,0.475
3918,0.075,0.505
3919,0.045,0.520
3920,0.020,0.535
3921,0.130,0.545
3922,0.230,0.555
3923,0.280,0.575
3924,0.310,0.595
3925,0.205,0.575
3926,0.125,0.550
3927,0.145,0.525
3928,0.190,0.500
3929,0.285,0.480
3930,0.345,0.465
3931,0.310,0.445
3932,0.275,0.415
3933,0.245,0.355
3934,0.250,0.305
3935,0.315,0.280
3936,0.300,0.240
3937,0.180,0.185
3938,0.145,0.135
3939,0.210,0.095
3940,0.175,0.065
3941,0.050,0.040
3942,-0.090,0.000
3943,-0.230,-0.045
3944,-0.210,-0.080
3945,-0.095,-0.115
3946,-0.090,-0.125
3947,-0.140,-0.130
3948,-0.180,-0.140
3949,-0.215,-0.150
3950,-0.220,-0.170
3951,-0.210,-0.190
3952,-0.165,-0.195
3953,-0.115,-0.190
3954,-0.130,-0.185
3955,-0.160,-0.190
3956,-0.155,-0.195
3957,-0.140,-0.190
3958,-0.135,-0.180
3959,-0.145,-0.165
3960,-0.190,-0.180
3961,-0.235,-0.195
3962,-0.170,-0.175
3963,-0.120,-0.155
3964,-0.180,-0.155
3965,-0.230,-0.155
3966,-0.190,-0.165
3967,-0.135,-0.175
3968,-0.035,-0.165
3969,0.030,-0.155
3970,-0.050,-0.145
3971,-0.120,-0.135
3972,-0.170,-0.140
3973,-0.200,-0.145
3974,-0.175,-0.145
3975,-0.120,-0.155
3976,-0.020,-0.180
3977,0.035,-0.185
3978,0.040,-0.160
3979,0.020,-0.145
3980,-0.045,-0.145
3981,-0.075,-0.150
3982,-0.080,-0.165
3983,-0.085,-0.180
3984,-0.085,-0.195
3985,-0.100,-0.200
3986,-0.125,-0.185
3987,-0.110,-0.185
3988,-0.070,-0.200
3989,-0.090,-0.210
3990,-0.140,-0.220
3991,-0.190,-0.230
3992,-0.245,-0.240
3993,-0.105,-0.245
3994,0.085,-0.240
3995,-0.005,-0.235
3996,-0.150,-0.230
3997,-0.165,-0.225
3998,-0.160,-0.230
3999,-0.125,-0.235
4000,-0.155,-0.235
4001,-0.100,-0.230
4002,-0.115,-0.235
4003,-0.080,-0.240
4004,-0.045,-0.245
4005,-0.095,-0.240
4006,-0.135,-0.235
4007,-0.130,-0.245
4008,-0.125,-0.255
4009,-0.135,-0.245
4010,-0.145,-0.235
4011,-0.150,-0.225
4012,-0.145,-0.220
4013,-0.105,-0.240
4014,-0.075,-0.255
4015,-0.080,-0.250
4016,-0.060,-0.245
4017,0.020,-0.245
4018,0.025,-0.240
4019,-0.070,-0.225
4020,-0.145,-0.220
4021,-0.190,-0.235
4022,-0.190,-0.245
4023,-0.130,-0.245
4024,-0.125,-0.245
4025,-0.165,-0.245
4026,-0.110,-0.245
4027,0.020,-0.245
4028,-0.045,-0.245
4029,-0.210,-0.240
4030,-0.190,-0.235
4031,-0.085,-0.230
4032,-0.040,-0.200
4033,-0.015,-0.165
4034,0.015,-0.165
4035,0.040,-0.180
4036,0.045,-0.160
4037,0.050,-0.130
4038,-0.015,-0.125
4039,-0.095,-0.130
4040,-0.025,-0.135
4041,0.060,-0.135
4042,0.035,-0.155
4043,0.005,-0.175
4044,0.005,-0.220
4045,0.005,-0.265
4046,0.020,-0.270
4047,0.035,-0.275
4048,0.015,-0.275
4049,-0.015,-0.275
4050,-0.100,-0.260
4051,-0.150,-0.250
4052,-0.080,-0.275
4053,-0.045,-0.295
4054,-0.120,-0.285
4055,-0.175,-0.275
4056,-0.175,-0.275
4057,-0.160,-0.275
4058,-0.115,-0.265
4059,-0.095,-0.255
4060,-0.125,-0.250
4061,-0.145,-0.245
4062,-0.135,-0.250
4063,-0.170,-0.285
4064,-0.270,-0.350
4065,-0.400,-0.335
4066,-0.560,-0.245
4067,-0.630,-0.125
4068,-0.645,0.015
4069,-0.385,0.110
4070,0.040,0.180
4071,0.715,0.230
4072,1.505,0.270
4073,2.120,0.510
4074,2.670,0.825
4075,2.895,0.975
4076,3.020,1.075
4077,2.845,0.470
4078,2.600,-0.290
4079,1.515,-0.750
4080,0.310,-1.170
4081,-0.370,-1.105
4082,-1.005,-0.990
4083,-0.980,-0.875
4084,-0.925,-0.755
4085,-0.955,-0.635
4086,-0.975,-0.510
4087,-0.790,-0.400
4088,-0.615,-0.285
4089,-0.505,-0.160
4090,-0.405,-0.055
4091,-0.370,-0.040
4092,-0.345,-0.025
4093,-0.325,-0.035
4094,-0.285,-0.040
4095,-0.205,-0.010
4096,-0.155,0.015
4097,-0.195,0.020
4098,-0.225,0.030
4099,-0.225,0.045
4100,-0.205,0.055
4101,-0.155,0.055
4102,-0.130,0.060
4103,-0.145,0.075
4104,-0.150,0.090
4105,-0.125,0.115
4106,-0.135,0.135
4107,-0.175,0.155
4108,-0.175,0.170
4109,-0.135,0.185
4110,-0.085,0.210
4111,-0.035,0.240
4112,-0.030,0.265
4113,-0.055,0.280
4114,-0.040,0.295
4115,0.005,0.320
4116,0.005,0.345
4117,-0.010,0.375
4118,0.025,0.405
4119,0.075,0.440
4120,0.065,0.460
4121,0.040,0.480
4122,0.090,0.505
4123,0.150,0.530
4124,0.115,0.550
4125,0.155,0.535
4126,0.170,0.585
4127,0.275,0.595
4128,0.240,0.580
4129,0.210,0.565
4130,0.315,0.555
4131,0.400,0.545
4132,0.345,0.520
4133,0.295,0.490
4134,0.265,0.460
4135,0.260,0.430
4136,0.335,0.395
4137,0.360,0.355
4138,0.235,0.320
4139,0.145,0.280
4140,0.135,0.225
4141,0.130,0.170
4142,0.145,0.130
4143,0.140,0.095
4144,0.105,0.065
4145,0.040,0.025
4146,-0.065,-0.030
4147,-0.075,-0.070
4148,0.015,-0.100
4149,0.015,-0.120
4150,-0.065,-0.135
4151,-0.115,-0.150
4152,-0.150,-0.165
4153,-0.180,-0.180
4154,-0.205,-0.190
4155,-0.205,-0.200
4156,-0.190,-0.210
4157,-0.155,-0.200
4158,-0.105,-0.180
4159,-0.155,-0.185
4160,-0.230,-0.200
4161,-0.195,-0.205
4162,-0.135,-0.200
4163,-0.125,-0.195
4164,-0.130,-0.195
4165,-0.145,-0.190
4166,-0.160,-0.180
4167,-0.175,-0.175
4168,-0.185,-0.175
4169,-0.180,-0.175
4170,-0.175,-0.175
4171,-0.195,-0.175
4172,-0.200,-0.175
4173,-0.080,-0.170
4174,0.005,-0.165
4175,-0.110,-0.165
4176,-0.205,-0.165
4177,-0.205,-0.165
4178,-0.180,-0.165
4179,-0.080,-0.175
4180,-0.015,-0.185
4181,-0.055,-0.175
4182,-0.105,-0.165
4183,-0.160,-0.175
4184,-0.185,-0.190
4185,-0.155,-0.210
4186,-0.120,-0.225
4187,-0.080,-0.225
4188,-0.085,-0.220
4189,-0.150,-0.210
4190,-0.185,-0.215
4191,-0.180,-0.235
4192,-0.165,-0.245
4193,-0.145,-0.250
4194,-0.145,-0.255
4195,-0.165,-0.255
4196,-0.170,-0.255
4197,-0.160,-0.250
4198,-0.140,-0.245
4199,-0.120,-0.245
4200,-0.150,-0.250
4201,-0.195,-0.260
4202,-0.215,-0.265
4203,-0.230,-0.265
4204,-0.150,-0.265
4205,-0.055,-0.265
4206,-0.105,-0.260
4207,-0.170,-0.250
4208,-0.190,-0.250
4209,-0.215,-0.265
4210,-0.160,-0.260
4211,-0.105,-0.255
4212,-0.180,-0.250
4213,-0.240,-0.245
4214,-0.160,-0.245
4215,-0.100,-0.245
4216,-0.140,-0.245
4217,-0.170,-0.245
4218,-0.145,-0.240
4219,-0.120,-0.230
4220,-0.095,-0.205
4221,-0.090,-0.185
4222,-0.145,-0.185
4223,-0.180,-0.185
4224,-0.155,-0.175
4225,-0.115,-0.160
4226,-0.060,-0.140
4227,-0.025,-0.125
4228,-0.020,-0.125
4229,-0.005,-0.130
4230,0.020,-0.155
4231,0.030,-0.165
4232,0.020,-0.170
4233,0.005,-0.200
4234,-0.015,-0.245
4235,-0.040,-0.265
4236,-0.065,-0.270
4237,-0.105,-0.275
4238,-0.150,-0.275
4239,-0.175,-0.275
4240,-0.190,-0.270
4241,-0.195,-0.270
4242,-0.190,-0.280
4243,-0.180,-0.285
4244,-0.170,-0.290
4245,-0.160,-0.295
4246,-0.150,-0.295
4247,-0.155,-0.290
4248,-0.170,-0.280
4249,-0.165,-0.270
4250,-0.175,-0.275
4251,-0.140,-0.245
4252,-0.135,-0.235
4253,-0.120,-0.255
4254,-0.125,-0.280
4255,-0.375,-0.355
4256,-0.610,-0.405
4257,-0.725,-0.240
4258,-0.790,-0.080
4259,-0.605,0.055
4260,-0.325,0.155
4261,0.250,0.105
4262,0.865,0.110
4263,1.595,0.270
4264,2.210,0.510
4265,2.600,0.905
4266,2.915,1.070
4267,3.105,0.840
4268,2.800,0.310
4269,1.805,-0.640
4270,0.810,-1.145
4271,-0.180,-1.140
4272,-0.800,-1.055
4273,-1.075,-0.890
4274,-1.155,-0.750
4275,-1.085,-0.635
4276,-0.950,-0.510
4277,-0.770,-0.380
4278,-0.645,-0.265
4279,-0.555,-0.160
4280,-0.475,-0.100
4281,-0.395,-0.065
4282,-0.325,-0.050
4283,-0.250,-0.040
4284,-0.245,-0.025
4285,-0.260,-0.010
4286,-0.280,-0.005
4287,-0.300,0.000
4288,-0.275,0.015
4289,-0.240,0.030
4290,-0.210,0.040
4291,-0.180,0.050
4292,-0.225,0.065
4293,-0.275,0.075
4294,-0.215,0.090
4295,-0.155,0.105
4296,-0.190,0.115
4297,-0.220,0.130
4298,-0.160,0.170
4299,-0.105,0.205
4300,-0.110,0.220
4301,-0.115,0.235
4302,-0.125,0.240
4303,-0.120,0.250
4304,-0.060,0.275
4305,-0.015,0.300
4306,-0.020,0.335
4307,-0.025,0.365
4308,-0.025,0.400
4309,-0.015,0.430
4310,0.015,0.450
4311,0.045,0.475
4312,0.070,0.500
4313,0.090,0.520
4314,0.100,0.535
4315,0.125,0.545
4316,0.165,0.550
4317,0.190,0.550
4318,0.200,0.540
4319,0.210,0.535
4320,0.230,0.530
4321,0.235,0.510
4322,0.235,0.485
4323,0.250,0.465
4324,0.270,0.450
4325,0.245,0.415
4326,0.205,0.375
4327,0.185,0.335
4328,0.170,0.295
4329,0.205,0.250
4330,0.250,0.210
4331,0.185,0.160
4332,0.110,0.110
4333,0.075,0.060
4334,0.035,0.005
4335,-0.030,-0.030
4336,-0.095,-0.065
4337,-0.120,-0.090
4338,-0.140,-0.115
4339,-0.095,-0.135
4340,-0.065,-0.155
4341,-0.145,-0.165
4342,-0.215,-0.175
4343,-0.195,-0.195
4344,-0.175,-0.215
4345,-0.190,-0.210
4346,-0.210,-0.205
4347,-0.235,-0.215
4348,-0.250,-0.225
4349,-0.230,-0.220
4350,-0.215,-0.215
4351,-0.205,-0.215
4352,-0.205,-0.215
4353,-0.230,-0.205
4354,-0.240,-0.195
4355,-0.215,-0.190
4356,-0.180,-0.185
4357,-0.130,-0.180
4358,-0.110,-0.175
4359,-0.120,-0.175
4360,-0.115,-0.170
4361,-0.095,-0.160
4362,-0.120,-0.155
4363,-0.175,-0.155
4364,-0.200,-0.155
4365,-0.210,-0.155
4366,-0.215,-0.155
4367,-0.210,-0.155
4368,-0.175,-0.155
4369,-0.135,-0.155
4370,-0.105,-0.155
4371,-0.080,-0.160
4372,-0.085,-0.170
4373,-0.100,-0.180
4374,-0.160,-0.185
4375,-0.105,-0.185
4376,-0.140,-0.180
4377,-0.055,-0.185
4378,-0.135,-0.190
4379,-0.205,-0.195
4380,-0.210,-0.210
4381,-0.210,-0.225
4382,-0.165,-0.230
4383,-0.125,-0.235
4384,-0.145,-0.235
4385,-0.165,-0.235
4386,-0.140,-0.230
4387,-0.130,-0.225
4388,-0.160,-0.230
4389,-0.185,-0.235
4390,-0.185,-0.235
4391,-0.185,-0.235
4392,-0.190,-0.230
4393,-0.185,-0.225
4394,-0.160,-0.235
4395,-0.155,-0.245
4396,-0.190,-0.240
4397,-0.190,-0.240
4398,-0.160,-0.250
4399,-0.145,-0.255
4400,-0.145,-0.250
4401,-0.140,-0.240
4402,-0.125,-0.230
4403,-0.160,-0.230
4404,-0.230,-0.240
4405,-0.240,-0.245
4406,-0.215,-0.245
4407,-0.180,-0.230
4408,-0.145,-0.210
4409,-0.175,-0.220
4410,-0.225,-0.240
4411,-0.200,-0.245
4412,-0.155,-0.250
4413,-0.145,-0.250
4414,-0.145,-0.240
4415,-0.185,-0.235
4416,-0.230,-0.230
4417,-0.160,-0.205
4418,-0.085,-0.185
4419,-0.135,-0.180
4420,-0.180,-0.175
4421,-0.105,-0.165
4422,-0.035,-0.155
4423,-0.050,-0.140
4424,-0.065,-0.125
4425,-0.065,-0.115
4426,-0.065,-0.105
4427,-0.060,-0.115
4428,-0.050,-0.125
4429,-0.020,-0.135
4430,-0.010,-0.150
4431,-0.075,-0.170
4432,-0.105,-0.195
4433,-0.075,-0.230
4434,-0.075,-0.255
4435,-0.130,-0.255
4436,-0.165,-0.255
4437,-0.160,-0.260
4438,-0.155,-0.260
4439,-0.160,-0.245
4440,-0.170,-0.240
4441,-0.185,-0.250
4442,-0.210,-0.260
4443,-0.240,-0.270
4444,-0.255,-0.270
4445,-0.250,-0.260
4446,-0.210,-0.255
4447,-0.160,-0.250
4448,-0.165,-0.245
4449,-0.195,-0.240
4450,-0.180,-0.235
4451,-0.145,-0.240
4452,-0.305,-0.320
4453,-0.515,-0.410
4454,-0.630,-0.340
4455,-0.725,-0.245
4456,-0.660,-0.120
4457,-0.580,0.010
4458,-0.180,0.050
4459,0.235,0.095
4460,0.990,0.245
4461,1.735,0.405
4462,2.280,0.795
4463,2.780,1.140
4464,2.960,1.055
4465,3.005,0.840
4466,2.290,-0.090
4467,1.485,-0.870
4468,0.330,-1.040
4469,-0.620,-1.140
4470,-0.970,-0.985
4471,-1.185,-0.845
4472,-1.080,-0.745
4473,-1.005,-0.635
4474,-0.995,-0.510
4475,-0.925,-0.390
4476,-0.760,-0.275
4477,-0.595,-0.180
4478,-0.430,-0.120
4479,-0.350,-0.085
4480,-0.375,-0.080
4481,-0.380,-0.075
4482,-0.365,-0.070
4483,-0.350,-0.055
4484,-0.340,-0.035
4485,-0.325,-0.015
4486,-0.305,0.005
4487,-0.260,0.015
4488,-0.205,0.015
4489,-0.210,0.025
4490,-0.255,0.040
4491,-0.300,0.045
4492,-0.345,0.050
4493,-0.290,0.065
4494,-0.210,0.080
4495,-0.220,0.090
4496,-0.250,0.100
4497,-0.250,0.120
4498,-0.240,0.140
4499,-0.160,0.150
4500,-0.235,0.145
4501,-0.105,0.190
4502,-0.135,0.215
4503,-0.135,0.250
4504,-0.135,0.285
4505,-0.150,0.290
4506,-0.165,0.295
4507,-0.145,0.330
4508,-0.120,0.355
4509,-0.085,0.375
4510,-0.040,0.400
4511,0.030,0.430
4512,0.075,0.455
4513,0.040,0.450
4514,0.035,0.450
4515,0.110,0.465
4516,0.160,0.475
4517,0.175,0.480
4518,0.185,0.480
4519,0.185,0.465
4520,0.205,0.450
4521,0.260,0.435
4522,0.250,0.420
4523,0.170,0.405
4524,0.125,0.375
4525,0.095,0.340
4526,0.090,0.305
4527,0.105,0.260
4528,0.105,0.215
4529,0.090,0.165
4530,0.050,0.110
4531,-0.010,0.060
4532,0.005,0.015
4533,0.045,-0.025
4534,-0.010,-0.050
4535,-0.100,-0.070
4536,-0.165,-0.105
4537,-0.225,-0.150
4538,-0.235,-0.155
4539,-0.230,-0.160
4540,-0.240,-0.170
4541,-0.260,-0.180
4542,-0.260,-0.190
4543,-0.255,-0.195
4544,-0.230,-0.205
4545,-0.205,-0.215
4546,-0.220,-0.205
4547,-0.235,-0.195
4548,-0.230,-0.190
4549,-0.225,-0.185
4550,-0.205,-0.180
4551,-0.185,-0.175
4552,-0.195,-0.185
4553,-0.205,-0.195
4554,-0.195,-0.185
4555,-0.185,-0.175
4556,-0.165,-0.155
4557,-0.165,-0.145
4558,-0.200,-0.150
4559,-0.225,-0.155
4560,-0.215,-0.165
4561,-0.190,-0.175
4562,-0.155,-0.165
4563,-0.155,-0.155
4564,-0.195,-0.150
4565,-0.180,-0.150
4566,-0.105,-0.160
4567,-0.110,-0.165
4568,-0.180,-0.170
4569,-0.210,-0.175
4570,-0.230,-0.180
4571,-0.170,-0.190
4572,-0.075,-0.200
4573,-0.090,-0.200
4574,-0.160,-0.190
4575,-0.200,-0.195
4576,-0.235,-0.210
4577,-0.215,-0.215
4578,-0.175,-0.220
4579,-0.170,-0.220
4580,-0.180,-0.210
4581,-0.165,-0.220
4582,-0.140,-0.240
4583,-0.190,-0.245
4584,-0.255,-0.245
4585,-0.225,-0.245
4586,-0.195,-0.245
4587,-0.230,-0.240
4588,-0.260,-0.235
4589,-0.190,-0.240
4590,-0.125,-0.245
4591,-0.150,-0.240
4592,-0.180,-0.235
4593,-0.230,-0.250
4594,-0.260,-0.260
4595,-0.225,-0.240
4596,-0.195,-0.225
4597,-0.210,-0.235
4598,-0.225,-0.245
4599,-0.220,-0.250
4600,-0.205,-0.255
4601,-0.180,-0.245
4602,-0.170,-0.235
4603,-0.190,-0.240
4604,-0.175,-0.245
4605,-0.110,-0.240
4606,-0.120,-0.230
4607,-0.215,-0.220
4608,-0.265,-0.220
4609,-0.285,-0.230
4610,-0.235,-0.230
4611,-0.130,-0.220
4612,-0.130,-0.215
4613,-0.185,-0.210
4614,-0.180,-0.215
4615,-0.135,-0.230
4616,-0.160,-0.235
4617,-0.205,-0.230
4618,-0.215,-0.225
4619,-0.220,-0.220
4620,-0.195,-0.215
4621,-0.160,-0.210
4622,-0.155,-0.215
4623,-0.160,-0.230
4624,-0.175,-0.235
4625,-0.165,-0.235
4626,-0.170,-0.215
4627,-0.145,-0.195
4628,-0.165,-0.200
4629,-0.185,-0.205
4630,-0.130,-0.210
4631,-0.095,-0.215
4632,-0.175,-0.200
4633,-0.235,-0.185
4634,-0.175,-0.185
4635,-0.125,-0.185
4636,-0.135,-0.175
4637,-0.145,-0.165
4638,-0.150,-0.165
4639,-0.155,-0.160
4640,-0.160,-0.140
4641,-0.160,-0.125
4642,-0.145,-0.115
4643,-0.110,-0.100
4644,-0.045,-0.085
4645,-0.010,-0.075
4646,-0.025,-0.075
4647,-0.025,-0.070
4648,0.000,-0.055
4649,0.000,-0.070
4650,-0.030,-0.115
4651,-0.040,-0.150
4652,-0.030,-0.175
4653,-0.045,-0.190
4654,-0.080,-0.200
4655,-0.105,-0.205
4656,-0.125,-0.205
4657,-0.135,-0.200
4658,-0.135,-0.190
4659,-0.140,-0.195
4660,-0.150,-0.210
4661,-0.180,-0.215
4662,-0.210,-0.215
4663,-0.165,-0.215
4664,-0.100,-0.215
4665,-0.135,-0.200
4666,-0.180,-0.180
4667,-0.160,-0.175
4668,-0.135,-0.175
4669,-0.120,-0.180
4670,-0.115,-0.190
4671,-0.280,-0.260
4672,-0.435,-0.315
4673,-0.555,-0.200
4674,-0.655,-0.085
4675,-0.645,0.050
4676,-0.550,0.175
4677,-0.140,0.285
4678,0.370,0.365
4679,1.140,0.365
4680,1.845,0.460
4681,2.405,0.765
4682,2.810,0.980
4683,2.935,1.025
4684,2.880,0.725
4685,2.535,-0.095
4686,1.795,-0.685
4687,0.570,-0.995
4688,-0.290,-1.095
4689,-0.780,-0.965
4690,-1.015,-0.855
4691,-1.035,-0.755
4692,-1.015,-0.665
4693,-0.960,-0.580
4694,-0.865,-0.465
4695,-0.755,-0.335
4696,-0.600,-0.215
4697,-0.430,-0.100
4698,-0.335,-0.035
4699,-0.265,0.005
4700,-0.285,0.010
4701,-0.335,0.000
4702,-0.280,0.005
4703,-0.200,0.020
4704,-0.200,0.040
4705,-0.220,0.060
4706,-0.230,0.065
4707,-0.240,0.060
4708,-0.235,0.055
4709,-0.215,0.065
4710,-0.150,0.080
4711,-0.085,0.095
4712,-0.100,0.120
4713,-0.115,0.145
4714,-0.145,0.150
4715,-0.175,0.155
4716,-0.175,0.160
4717,-0.160,0.165
4718,-0.060,0.185
4719,0.005,0.210
4720,-0.035,0.245
4721,-0.065,0.275
4722,-0.075,0.285
4723,-0.065,0.300
4724,0.010,0.320
4725,0.035,0.345
4726,-0.030,0.370
4727,-0.030,0.395
4728,0.060,0.425
4729,0.095,0.445
4730,0.060,0.445
4731,0.055,0.455
4732,0.080,0.475
4733,0.145,0.485
4734,0.230,0.485
4735,0.260,0.490
4736,0.245,0.505
4737,0.225,0.505
4738,0.210,0.490
4739,0.215,0.475
4740,0.240,0.460
4741,0.245,0.440
4742,0.245,0.410
4743,0.245,0.395
4744,0.245,0.380
4745,0.225,0.350
4746,0.200,0.320
4747,0.195,0.285
4748,0.200,0.250
4749,0.180,0.215
4750,0.205,0.245
4751,0.120,0.150
4752,0.095,0.125
4753,0.075,0.100
4754,0.055,0.075
4755,0.020,0.035
4756,-0.015,-0.005
4757,-0.015,-0.040
4758,-0.015,-0.065
4759,-0.025,-0.060
4760,-0.045,-0.055
4761,-0.090,-0.070
4762,-0.110,-0.085
4763,-0.050,-0.090
4764,-0.025,-0.095
4765,-0.085,-0.100
4766,-0.115,-0.105
4767,-0.080,-0.095
4768,-0.055,-0.085
4769,-0.045,-0.075
4770,-0.045,-0.065
4771,-0.070,-0.060
4772,-0.090,-0.060
4773,-0.105,-0.070
4774,-0.085,-0.075
4775,-0.030,-0.080
4776,-0.010,-0.085
4777,-0.025,-0.080
4778,-0.045,-0.075
4779,-0.065,-0.075
4780,-0.065,-0.080
4781,-0.045,-0.090
4782,-0.020,-0.085
4783,0.000,-0.070
4784,-0.010,-0.085
4785,-0.030,-0.120
4786,-0.055,-0.125
4787,-0.080,-0.130
4788,-0.065,-0.135
4789,-0.040,-0.135
4790,-0.020,-0.135
4791,0.000,-0.140
4792,-0.070,-0.150
4793,-0.145,-0.155
4794,-0.145,-0.165
4795,-0.145,-0.175
4796,-0.100,-0.180
4797,-0.055,-0.185
4798,-0.080,-0.185
4799,-0.105,-0.185
4800,-0.110,-0.200
4801,-0.105,-0.215
4802,-0.045,-0.210
4803,-0.015,-0.205
4804,-0.110,-0.205
4805,-0.155,-0.205
4806,-0.085,-0.215
4807,-0.050,-0.225
4808,-0.095,-0.215
4809,-0.135,-0.205
4810,-0.165,-0.210
4811,-0.170,-0.215
4812,-0.130,-0.210
4813,-0.105,-0.205
4814,-0.105,-0.205
4815,-0.105,-0.205
4816,-0.105,-0.210
4817,-0.090,-0.215
4818,-0.065,-0.220
4819,-0.080,-0.225
4820,-0.130,-0.220
4821,-0.140,-0.215
4822,-0.130,-0.220
4823,-0.105,-0.210
4824,-0.075,-0.190
4825,-0.065,-0.200
4826,-0.070,-0.220
4827,-0.110,-0.220
4828,-0.155,-0.210
4829,-0.110,-0.205
4830,-0.045,-0.205
4831,-0.035,-0.205
4832,-0.030,-0.200
4833,-0.055,-0.205
4834,-0.095,-0.225
4835,-0.105,-0.205
4836,-0.115,-0.185
4837,-0.135,-0.195
4838,-0.155,-0.205
4839,-0.155,-0.205
4840,-0.145,-0.205
4841,-0.065,-0.210
4842,-0.005,-0.215
4843,-0.075,-0.205
4844,-0.115,-0.195
4845,-0.075,-0.190
4846,-0.045,-0.185
4847,-0.060,-0.190
4848,-0.075,-0.195
4849,-0.070,-0.190
4850,-0.060,-0.185
4851,-0.040,-0.190
4852,-0.030,-0.195
4853,-0.045,-0.190
4854,-0.055,-0.185
4855,-0.055,-0.185
4856,-0.055,-0.185
4857,-0.060,-0.185
4858,-0.085,-0.185
4859,-0.125,-0.190
4860,-0.125,-0.190
4861,-0.090,-0.180
4862,-0.060,-0.175
4863,-0.035,-0.175
4864,-0.035,-0.175
4865,-0.050,-0.175
4866,-0.055,-0.175
4867,-0.055,-0.170
4868,-0.055,-0.160
4869,-0.060,-0.150
4870,-0.065,-0.145
4871,-0.065,-0.145
4872,0.000,-0.145
4873,0.080,-0.145
4874,0.085,-0.135
4875,0.085,-0.145
4876,-0.010,-0.085
4877,-0.095,-0.055
4878,-0.015,-0.055
4879,0.055,-0.055
4880,0.075,-0.055
4881,0.095,-0.055
4882,0.105,-0.080
4883,0.105,-0.110
4884,0.045,-0.140
4885,-0.005,-0.165
4886,-0.010,-0.180
4887,-0.020,-0.195
4888,-0.045,-0.200
4889,-0.060,-0.205
4890,-0.040,-0.195
4891,-0.030,-0.185
4892,-0.045,-0.185
4893,-0.055,-0.190
4894,-0.055,-0.205
4895,-0.045,-0.215
4896,-0.010,-0.210
4897,-0.020,-0.200
4898,-0.070,-0.185
4899,-0.095,-0.170
4900,-0.100,-0.160
4901,-0.085,-0.155
4902,-0.050,-0.160
4903,-0.110,-0.230
4904,-0.230,-0.330
4905,-0.410,-0.275
4906,-0.620,-0.150
4907,-0.620,-0.030
4908,-0.545,0.090
4909,-0.215,0.150
4910,0.180,0.195
4911,0.855,0.235
4912,1.585,0.280
4913,2.155,0.585
4914,2.710,0.920
4915,2.865,1.105
4916,3.000,1.280
4917,2.865,0.545
4918,2.690,-0.200
4919,1.470,-0.695
4920,0.300,-1.150
4921,-0.285,-1.035
4922,-0.815,-0.920
4923,-0.895,-0.775
4924,-0.960,-0.640
4925,-0.900,-0.525
4926,-0.825,-0.410
4927,-0.690,-0.275
4928,-0.555,-0.160
4929,-0.425,-0.085
4930,-0.320,-0.035
4931,-0.270,-0.015
4932,-0.235,-0.005
4933,-0.225,0.005
4934,-0.215,0.015
4935,-0.215,0.020
4936,-0.200,0.025
4937,-0.165,0.035
4938,-0.140,0.050
4939,-0.130,0.065
4940,-0.110,0.075
4941,-0.080,0.080
4942,-0.090,0.090
4943,-0.135,0.100
4944,-0.155,0.115
4945,-0.150,0.135
4946,-0.105,0.155
4947,-0.045,0.170
4948,-0.080,0.185
4949,-0.155,0.200
4950,-0.135,0.205
4951,-0.085,0.210
4952,-0.050,0.235
4953,-0.020,0.260
4954,-0.005,0.285
4955,0.010,0.310
4956,0.020,0.340
4957,0.030,0.370
4958,0.055,0.385
4959,0.085,0.405
4960,0.070,0.435
4961,0.055,0.465
4962,0.080,0.480
4963,0.105,0.495
4964,0.115,0.510
4965,0.130,0.525
4966,0.170,0.530
4967,0.205,0.535
4968,0.205,0.535
4969,0.215,0.535
4970,0.260,0.530
4971,0.295,0.525
4972,0.310,0.510
4973,0.320,0.490
4974,0.300,0.470
4975,0.285,0.445
4976,0.275,0.410
4977,0.265,0.370
4978,0.265,0.335
4979,0.275,0.300
4980,0.300,0.255
4981,0.270,0.220
4982,0.175,0.185
4983,0.115,0.145
4984,0.080,0.105
4985,0.065,0.070
4986,0.065,0.045
4987,0.055,0.015
4988,0.035,-0.020
4989,-0.015,-0.060
4990,-0.080,-0.105
4991,-0.105,-0.120
4992,-0.120,-0.130
4993,-0.100,-0.145
4994,-0.065,-0.160
4995,-0.060,-0.165
4996,-0.070,-0.160
4997,-0.110,-0.160
4998,-0.150,-0.170
4999,-0.130,-0.175
5000,-0.155,-0.175
5001,-0.055,-0.165
5002,-0.015,-0.145
5003,-0.065,-0.145
5004,-0.115,-0.145
5005,-0.150,-0.145
5006,-0.175,-0.145
5007,-0.105,-0.140
5008,-0.045,-0.135
5009,-0.075,-0.130
5010,-0.095,-0.125
5011,-0.070,-0.125
5012,-0.055,-0.125
5013,-0.040,-0.135
5014,-0.025,-0.145
5015,-0.020,-0.140
5016,-0.015,-0.130
5017,-0.020,-0.115
5018,-0.050,-0.110
5019,-0.110,-0.125
5020,-0.130,-0.135
5021,-0.095,-0.150
5022,-0.080,-0.155
5023,-0.095,-0.150
5024,-0.105,-0.150
5025,-0.105,-0.160
5026,-0.095,-0.165
5027,-0.075,-0.170
5028,-0.060,-0.185
5029,-0.050,-0.200
5030,-0.085,-0.205
5031,-0.145,-0.205
5032,-0.085,-0.205
5033,0.020,-0.210
5034,-0.025,-0.215
5035,-0.120,-0.215
5036,-0.135,-0.215
5037,-0.140,-0.220
5038,-0.145,-0.235
5039,-0.145,-0.250
5040,-0.135,-0.250
5041,-0.120,-0.240
5042,-0.145,-0.230
5043,-0.175,-0.225
5044,-0.170,-0.235
5045,-0.160,-0.245
5046,-0.090,-0.240
5047,-0.030,-0.235
5048,-0.095,-0.230
5049,-0.150,-0.225
5050,-0.110,-0.235
5051,-0.075,-0.245
5052,-0.080,-0.240
5053,-0.090,-0.235
5054,-0.130,-0.235
5055,-0.155,-0.235
5056,-0.165,-0.230
5057,-0.175,-0.225
5058,-0.165,-0.230
5059,-0.155,-0.235
5060,-0.155,-0.240
5061,-0.140,-0.245
5062,-0.105,-0.240
5063,-0.100,-0.235
5064,-0.130,-0.230
5065,-0.120,-0.225
5066,-0.075,-0.225
5067,-0.075,-0.225
5068,-0.120,-0.230
5069,-0.145,-0.235
5070,-0.165,-0.230
5071,-0.150,-0.225
5072,-0.110,-0.220
5073,-0.095,-0.215
5074,-0.095,-0.210
5075,-0.105,-0.210
5076,-0.120,-0.220
5077,-0.105,-0.225
5078,-0.080,-0.225
5079,-0.110,-0.220
5080,-0.150,-0.210
5081,-0.140,-0.205
5082,-0.120,-0.205
5083,-0.135,-0.205
5084,-0.165,-0.215
5085,-0.140,-0.210
5086,-0.115,-0.205
5087,-0.140,-0.210
5088,-0.155,-0.215
5089,-0.060,-0.205
5090,0.015,-0.195
5091,-0.075,-0.195
5092,-0.150,-0.195
5093,-0.175,-0.195
5094,-0.185,-0.195
5095,-0.125,-0.195
5096,-0.085,-0.195
5097,-0.090,-0.190
5098,-0.095,-0.190
5099,-0.100,-0.205
5100,-0.105,-0.215
5101,-0.105,-0.205
5102,-0.125,-0.195
5103,-0.175,-0.190
5104,-0.175,-0.185
5105,-0.100,-0.190
5106,-0.070,-0.190
5107,-0.080,-0.180
5108,-0.100,-0.180
5109,-0.130,-0.195
5110,-0.125,-0.190
5111,-0.090,-0.165
5112,-0.105,-0.160
5113,-0.160,-0.170
5114,-0.135,-0.175
5115,-0.080,-0.175
5116,-0.080,-0.175
5117,-0.110,-0.180
5118,-0.115,-0.180
5119,-0.120,-0.170
5120,-0.130,-0.165
5121,-0.140,-0.170
5122,-0.140,-0.175
5123,-0.130,-0.175
5124,-0.085,-0.175
5125,-0.125,-0.175
5126,-0.065,-0.155
5127,-0.095,-0.145
5128,-0.085,-0.130
5129,-0.075,-0.115
5130,-0.070,-0.120
5131,-0.060,-0.125
5132,-0.025,-0.105
5133,0.005,-0.085
5134,-0.025,-0.065
5135,-0.040,-0.045
5136,0.005,-0.045
5137,0.035,-0.045
5138,0.040,-0.035
5139,0.035,-0.035
5140,0.000,-0.075
5141,-0.025,-0.115
5142,-0.025,-0.145
5143,-0.030,-0.165
5144,-0.045,-0.175
5145,-0.070,-0.185
5146,-0.115,-0.200
5147,-0.120,-0.205
5148,-0.085,-0.200
5149,-0.075,-0.195
5150,-0.095,-0.190
5151,-0.115,-0.185
5152,-0.135,-0.185
5153,-0.130,-0.185
5154,-0.105,-0.180
5155,-0.100,-0.175
5156,-0.110,-0.180
5157,-0.125,-0.175
5158,-0.140,-0.160
5159,-0.140,-0.155
5160,-0.130,-0.160
5161,-0.225,-0.250
5162,-0.350,-0.350
5163,-0.540,-0.245
5164,-0.740,-0.105
5165,-0.660,0.040
5166,-0.560,0.190
5167,0.035,0.225
5168,0.645,0.260
5169,1.415,0.495
5170,2.155,0.745
5171,2.535,1.125
5172,2.895,1.425
5173,3.065,1.075
5174,3.030,0.620
5175,2.005,-0.345
5176,1.005,-1.100
5177,0.070,-1.065
5178,-0.675,-1.010
5179,-0.915,-0.895
5180,-1.085,-0.790
5181,-1.075,-0.695
5182,-1.035,-0.595
5183,-0.940,-0.475
5184,-0.845,-0.360
5185,-0.745,-0.240
5186,-0.610,-0.140
5187,-0.440,-0.050
5188,-0.320,-0.005
5189,-0.240,0.000
5190,-0.235,0.010
5191,-0.290,0.020
5192,-0.300,0.030
5193,-0.270,0.040
5194,-0.255,0.050
5195,-0.255,0.070
5196,-0.225,0.075
5197,-0.180,0.075
5198,-0.165,0.085
5199,-0.165,0.100
5200,-0.210,0.105
5201,-0.270,0.110
5202,-0.265,0.120
5203,-0.240,0.130
5204,-0.170,0.155
5205,-0.095,0.180
5206,-0.085,0.185
5207,-0.090,0.190
5208,-0.135,0.195
5209,-0.185,0.205
5210,-0.140,0.230
5211,-0.095,0.255
5212,-0.085,0.275
5213,-0.075,0.295
5214,-0.065,0.330
5215,-0.055,0.365
5216,-0.065,0.385
5217,-0.065,0.405
5218,-0.005,0.420
5219,0.050,0.440
5220,0.085,0.470
5221,0.110,0.495
5222,0.085,0.510
5223,0.070,0.525
5224,0.090,0.515
5225,0.115,0.505
5226,0.140,0.515
5227,0.160,0.525
5228,0.180,0.530
5229,0.180,0.530
5230,0.145,0.515
5231,0.160,0.490
5232,0.230,0.460
5233,0.255,0.440
5234,0.235,0.430
5235,0.200,0.405
5236,0.160,0.370
5237,0.165,0.315
5238,0.200,0.255
5239,0.150,0.210
5240,0.060,0.175
5241,0.045,0.130
5242,0.060,0.075
5243,0.015,0.060
5244,-0.055,0.050
5245,-0.090,0.015
5246,-0.120,-0.020
5247,-0.130,-0.050
5248,-0.140,-0.080
5249,-0.100,-0.085
5250,-0.145,-0.085
5251,-0.100,-0.090
5252,-0.155,-0.085
5253,-0.135,-0.095
5254,-0.120,-0.105
5255,-0.185,-0.110
5256,-0.245,-0.115
5257,-0.240,-0.120
5258,-0.230,-0.125
5259,-0.175,-0.125
5260,-0.130,-0.125
5261,-0.095,-0.110
5262,-0.075,-0.095
5263,-0.120,-0.100
5264,-0.160,-0.105
5265,-0.175,-0.105
5266,-0.175,-0.105
5267,-0.140,-0.110
5268,-0.105,-0.115
5269,-0.080,-0.110
5270,-0.090,-0.110
5271,-0.155,-0.125
5272,-0.175,-0.135
5273,-0.155,-0.130
5274,-0.145,-0.130
5275,-0.150,-0.140
5276,-0.155,-0.145
5277,-0.150,-0.145
5278,-0.125,-0.150
5279,-0.090,-0.160
5280,-0.100,-0.165
5281,-0.135,-0.170
5282,-0.150,-0.170
5283,-0.160,-0.160
5284,-0.165,-0.170
5285,-0.165,-0.190
5286,-0.190,-0.195
5287,-0.220,-0.200
5288,-0.190,-0.205
5289,-0.150,-0.200
5290,-0.160,-0.195
5291,-0.180,-0.195
5292,-0.210,-0.205
5293,-0.235,-0.215
5294,-0.195,-0.220
5295,-0.155,-0.225
5296,-0.180,-0.220
5297,-0.200,-0.215
5298,-0.155,-0.210
5299,-0.120,-0.205
5300,-0.175,-0.215
5301,-0.215,-0.225
5302,-0.225,-0.230
5303,-0.235,-0.235
5304,-0.225,-0.225
5305,-0.205,-0.215
5306,-0.170,-0.220
5307,-0.160,-0.225
5308,-0.210,-0.220
5309,-0.240,-0.215
5310,-0.225,-0.220
5311,-0.215,-0.225
5312,-0.215,-0.225
5313,-0.185,-0.220
5314,-0.125,-0.205
5315,-0.120,-0.200
5316,-0.165,-0.210
5317,-0.185,-0.220
5318,-0.185,-0.230
5319,-0.195,-0.230
5320,-0.215,-0.210
5321,-0.205,-0.205
5322,-0.175,-0.210
5323,-0.155,-0.205
5324,-0.140,-0.190
5325,-0.180,-0.200
5326,-0.240,-0.220
5327,-0.240,-0.225
5328,-0.220,-0.225
5329,-0.175,-0.220
5330,-0.120,-0.210
5331,-0.130,-0.205
5332,-0.150,-0.200
5333,-0.160,-0.200
5334,-0.175,-0.215
5335,-0.180,-0.205
5336,-0.185,-0.195
5337,-0.190,-0.205
5338,-0.195,-0.215
5339,-0.175,-0.210
5340,-0.155,-0.205
5341,-0.145,-0.200
5342,-0.135,-0.195
5343,-0.115,-0.200
5344,-0.105,-0.205
5345,-0.150,-0.190
5346,-0.185,-0.175
5347,-0.170,-0.185
5348,-0.145,-0.195
5349,-0.115,-0.195
5350,-0.110,-0.195
5351,-0.150,-0.190
5352,-0.170,-0.185
5353,-0.155,-0.185
5354,-0.145,-0.185
5355,-0.145,-0.185
5356,-0.145,-0.185
5357,-0.145,-0.180
5358,-0.150,-0.175
5359,-0.165,-0.180
5360,-0.160,-0.180
5361,-0.130,-0.170
5362,-0.115,-0.165
5363,-0.115,-0.165
5364,-0.115,-0.165
5365,-0.110,-0.170
5366,-0.100,-0.175
5367,-0.090,-0.175
5368,-0.120,-0.175
5369,-0.165,-0.175
5370,-0.140,-0.160
5371,-0.090,-0.140
5372,-0.085,-0.135
5373,-0.090,-0.130
5374,-0.095,-0.120
5375,-0.095,-0.125
5376,-0.070,-0.085
5377,-0.055,-0.065
5378,-0.050,-0.065
5379,-0.045,-0.065
5380,-0.020,-0.055
5381,0.005,-0.045
5382,0.020,-0.040
5383,0.035,-0.040
5384,0.035,-0.080
5385,0.030,-0.115
5386,-0.015,-0.130
5387,-0.045,-0.150
5388,-0.050,-0.170
5389,-0.055,-0.185
5390,-0.050,-0.190
5391,-0.060,-0.190
5392,-0.115,-0.175
5393,-0.150,-0.165
5394,-0.170,-0.170
5395,-0.160,-0.175
5396,-0.105,-0.180
5397,-0.080,-0.185
5398,-0.095,-0.185
5399,-0.115,-0.180
5400,-0.135,-0.170
5401,-0.140,-0.165
5402,-0.130,-0.165
5403,-0.115,-0.170
5404,-0.095,-0.180
5405,-0.195,-0.235
5406,-0.355,-0.305
5407,-0.490,-0.185
5408,-0.625,0.005
5409,-0.555,0.155
5410,-0.425,0.290
5411,0.060,0.260
5412,0.610,0.195
5413,1.375,0.360
5414,2.165,0.560
5415,2.540,0.925
5416,2.885,1.295
5417,3.035,1.000
5418,3.150,0.670
5419,2.295,-0.230
5420,1.435,-1.065
5421,0.510,-1.065
5422,-0.350,-1.050
5423,-0.730,-0.930
5424,-1.040,-0.810
5425,-1.000,-0.720
5426,-0.955,-0.620
5427,-0.910,-0.500
5428,-0.845,-0.375
5429,-0.720,-0.245
5430,-0.585,-0.135
5431,-0.410,-0.055
5432,-0.290,0.000
5433,-0.265,0.015
5434,-0.250,0.025
5435,-0.270,0.030
5436,-0.280,0.035
5437,-0.260,0.040
5438,-0.215,0.055
5439,-0.150,0.080
5440,-0.130,0.100
5441,-0.170,0.110
5442,-0.170,0.115
5443,-0.145,0.115
5444,-0.125,0.120
5445,-0.105,0.140
5446,-0.100,0.155
5447,-0.110,0.170
5448,-0.130,0.185
5449,-0.155,0.200
5450,-0.125,0.210
5451,-0.065,0.220
5452,-0.055,0.250
5453,-0.060,0.280
5454,-0.040,0.310
5455,-0.010,0.340
5456,-0.015,0.350
5457,-0.030,0.360
5458,-0.030,0.385
5459,-0.015,0.415
5460,0.010,0.445
5461,0.040,0.475
5462,0.120,0.505
5463,0.190,0.535
5464,0.140,0.555
5465,0.100,0.575
5466,0.165,0.565
5467,0.215,0.555
5468,0.235,0.570
5469,0.255,0.585
5470,0.255,0.585
5471,0.255,0.585
5472,0.260,0.575
5473,0.275,0.555
5474,0.305,0.510
5475,0.325,0.480
5476,0.315,0.460
5477,0.290,0.435
5478,0.250,0.405
5479,0.230,0.370
5480,0.245,0.325
5481,0.255,0.280
5482,0.255,0.230
5483,0.205,0.185
5484,0.120,0.145
5485,0.080,0.100
5486,0.065,0.060
5487,0.055,0.015
5488,0.050,-0.030
5489,0.000,-0.060
5490,-0.065,-0.085
5491,-0.095,-0.105
5492,-0.110,-0.120
5493,-0.115,-0.135
5494,-0.115,-0.150
5495,-0.080,-0.155
5496,-0.040,-0.155
5497,-0.095,-0.165
5498,-0.160,-0.180
5499,-0.145,-0.185
5500,-0.165,-0.185
5501,-0.125,-0.155
5502,-0.135,-0.135
5503,-0.145,-0.140
5504,-0.155,-0.145
5505,-0.155,-0.160
5506,-0.155,-0.175
5507,-0.120,-0.170
5508,-0.095,-0.165
5509,-0.095,-0.160
5510,-0.095,-0.155
5511,-0.095,-0.150
5512,-0.095,-0.145
5513,-0.100,-0.150
5514,-0.105,-0.155
5515,-0.100,-0.155
5516,-0.095,-0.155
5517,-0.085,-0.150
5518,-0.070,-0.145
5519,-0.050,-0.155
5520,-0.055,-0.165
5521,-0.110,-0.170
5522,-0.135,-0.175
5523,-0.140,-0.180
5524,-0.135,-0.190
5525,-0.115,-0.200
5526,-0.095,-0.205
5527,-0.075,-0.205
5528,-0.090,-0.205
5529,-0.130,-0.210
5530,-0.155,-0.215
5531,-0.175,-0.220
5532,-0.150,-0.225
5533,-0.100,-0.225
5534,-0.100,-0.235
5535,-0.120,-0.250
5536,-0.105,-0.260
5537,-0.080,-0.270
5538,-0.125,-0.270
5539,-0.180,-0.260
5540,-0.195,-0.255
5541,-0.210,-0.260
5542,-0.175,-0.260
5543,-0.135,-0.255
5544,-0.085,-0.260
5545,-0.040,-0.265
5546,-0.125,-0.275
5547,-0.200,-0.285
5548,-0.160,-0.265
5549,-0.125,-0.245
5550,-0.155,-0.255
5551,-0.175,-0.265
5552,-0.170,-0.265
5553,-0.155,-0.265
5554,-0.110,-0.265
5555,-0.090,-0.265
5556,-0.155,-0.260
5557,-0.195,-0.255
5558,-0.200,-0.265
5559,-0.205,-0.275
5560,-0.195,-0.270
5561,-0.170,-0.265
5562,-0.130,-0.265
5563,-0.105,-0.260
5564,-0.110,-0.250
5565,-0.120,-0.245
5566,-0.130,-0.250
5567,-0.135,-0.255
5568,-0.130,-0.260
5569,-0.140,-0.265
5570,-0.175,-0.265
5571,-0.170,-0.265
5572,-0.145,-0.260
5573,-0.105,-0.250
5574,-0.065,-0.240
5575,-0.130,-0.240
5576,-0.225,-0.250
5577,-0.215,-0.255
5578,-0.175,-0.255
5579,-0.145,-0.255
5580,-0.120,-0.255
5581,-0.105,-0.250
5582,-0.090,-0.240
5583,-0.125,-0.235
5584,-0.175,-0.245
5585,-0.100,-0.245
5586,-0.030,-0.245
5587,-0.110,-0.235
5588,-0.185,-0.225
5589,-0.195,-0.215
5590,-0.200,-0.205
5591,-0.155,-0.220
5592,-0.115,-0.235
5593,-0.100,-0.230
5594,-0.085,-0.225
5595,-0.085,-0.215
5596,-0.095,-0.205
5597,-0.135,-0.220
5598,-0.155,-0.235
5599,-0.125,-0.225
5600,-0.100,-0.215
5601,-0.085,-0.205
5602,-0.075,-0.190
5603,-0.085,-0.175
5604,-0.095,-0.165
5605,-0.095,-0.160
5606,-0.055,-0.145
5607,0.020,-0.125
5608,0.050,-0.115
5609,0.040,-0.115
5610,0.050,-0.100
5611,0.080,-0.075
5612,0.085,-0.090
5613,0.065,-0.130
5614,-0.010,-0.165
5615,-0.100,-0.195
5616,-0.125,-0.215
5617,-0.130,-0.230
5618,-0.115,-0.240
5619,-0.090,-0.250
5620,-0.090,-0.245
5621,-0.100,-0.230
5622,-0.130,-0.240
5623,-0.160,-0.260
5624,-0.140,-0.260
5625,-0.165,-0.265
5626,-0.100,-0.235
5627,-0.095,-0.225
5628,-0.120,-0.225
5629,-0.145,-0.225
5630,-0.140,-0.235
5631,-0.130,-0.245
5632,-0.090,-0.235
5633,-0.070,-0.235
5634,-0.155,-0.290
5635,-0.270,-0.335
5636,-0.475,-0.310
5637,-0.625,-0.255
5638,-0.630,-0.105
5639,-0.560,0.030
5640,-0.325,0.150
5641,0.055,0.200
5642,0.665,0.120
5643,1.330,0.200
5644,2.065,0.500
5645,2.565,0.825
5646,2.805,1.175
5647,2.950,1.045
5648,3.000,0.455
5649,2.325,-0.215
5650,1.075,-0.955
5651,0.130,-1.175
5652,-0.625,-1.060
5653,-0.950,-0.920
5654,-1.050,-0.770
5655,-1.030,-0.655
5656,-0.950,-0.555
5657,-0.820,-0.415
5658,-0.675,-0.270
5659,-0.560,-0.150
5660,-0.455,-0.045
5661,-0.370,-0.030
5662,-0.285,-0.040
5663,-0.250,-0.035
5664,-0.220,-0.020
5665,-0.250,-0.005
5666,-0.290,0.010
5667,-0.260,0.030
5668,-0.225,0.045
5669,-0.230,0.045
5670,-0.235,0.045
5671,-0.195,0.065
5672,-0.155,0.085
5673,-0.160,0.105
5674,-0.160,0.125
5675,-0.105,0.130
5676,-0.070,0.135
5677,-0.095,0.150
5678,-0.120,0.165
5679,-0.145,0.180
5680,-0.155,0.200
5681,-0.105,0.225
5682,-0.070,0.250
5683,-0.045,0.270
5684,-0.040,0.295
5685,-0.080,0.320
5686,-0.075,0.340
5687,-0.005,0.355
5688,0.035,0.385
5689,0.040,0.430
5690,0.045,0.465
5691,0.045,0.485
5692,0.065,0.505
5693,0.100,0.525
5694,0.135,0.540
5695,0.170,0.560
5696,0.205,0.565
5697,0.245,0.570
5698,0.255,0.570
5699,0.260,0.560
5700,0.285,0.545
5701,0.315,0.530
5702,0.270,0.510
5703,0.205,0.490
5704,0.235,0.470
5705,0.290,0.450
5706,0.300,0.410
5707,0.310,0.370
5708,0.255,0.330
5709,0.185,0.285
5710,0.165,0.225
5711,0.145,0.165
5712,0.145,0.130
5713,0.140,0.090
5714,0.050,0.045
5715,-0.025,0.000
5716,-0.020,-0.040
5717,-0.025,-0.075
5718,-0.080,-0.090
5719,-0.125,-0.110
5720,-0.140,-0.135
5721,-0.150,-0.160
5722,-0.130,-0.180
5723,-0.115,-0.195
5724,-0.105,-0.190
5725,-0.115,-0.185
5726,-0.170,-0.195
5727,-0.210,-0.205
5728,-0.225,-0.205
5729,-0.210,-0.205
5730,-0.155,-0.200
5731,-0.125,-0.195
5732,-0.130,-0.190
5733,-0.170,-0.185
5734,-0.240,-0.190
5735,-0.215,-0.190
5736,-0.125,-0.180
5737,-0.070,-0.175
5738,-0.030,-0.170
5739,-0.080,-0.165
5740,-0.180,-0.165
5741,-0.205,-0.165
5742,-0.205,-0.170
5743,-0.190,-0.170
5744,-0.170,-0.160
5745,-0.130,-0.155
5746,-0.090,-0.160
5747,-0.105,-0.170
5748,-0.130,-0.180
5749,-0.125,-0.185
5750,-0.135,-0.185
5751,-0.095,-0.175
5752,-0.085,-0.165
5753,-0.105,-0.180
5754,-0.125,-0.195
5755,-0.160,-0.205
5756,-0.195,-0.215
5757,-0.160,-0.215
5758,-0.135,-0.215
5759,-0.155,-0.225
5760,-0.165,-0.235
5761,-0.100,-0.235
5762,-0.060,-0.235
5763,-0.090,-0.235
5764,-0.135,-0.235
5765,-0.195,-0.240
5766,-0.230,-0.245
5767,-0.200,-0.240
5768,-0.175,-0.235
5769,-0.145,-0.245
5770,-0.135,-0.255
5771,-0.170,-0.255
5772,-0.190,-0.255
5773,-0.200,-0.260
5774,-0.205,-0.265
5775,-0.200,-0.270
5776,-0.195,-0.275
5777,-0.200,-0.270
5778,-0.175,-0.265
5779,-0.130,-0.260
5780,-0.135,-0.255
5781,-0.165,-0.255
5782,-0.185,-0.255
5783,-0.200,-0.250
5784,-0.200,-0.250
5785,-0.190,-0.260
5786,-0.185,-0.265
5787,-0.185,-0.265
5788,-0.185,-0.265
5789,-0.180,-0.265
5790,-0.175,-0.265
5791,-0.180,-0.260
5792,-0.195,-0.250
5793,-0.205,-0.245
5794,-0.175,-0.250
5795,-0.145,-0.255
5796,-0.160,-0.260
5797,-0.170,-0.265
5798,-0.125,-0.260
5799,-0.090,-0.255
5800,-0.145,-0.240
5801,-0.190,-0.225
5802,-0.230,-0.240
5803,-0.260,-0.255
5804,-0.220,-0.250
5805,-0.195,-0.245
5806,-0.190,-0.240
5807,-0.180,-0.235
5808,-0.165,-0.245
5809,-0.160,-0.255
5810,-0.175,-0.250
5811,-0.180,-0.245
5812,-0.165,-0.240
5813,-0.155,-0.230
5814,-0.155,-0.220
5815,-0.155,-0.220
5816,-0.150,-0.230
5817,-0.155,-0.235
5818,-0.175,-0.235
5819,-0.190,-0.235
5820,-0.200,-0.230
5821,-0.180,-0.225
5822,-0.140,-0.220
5823,-0.125,-0.215
5824,-0.130,-0.215
5825,-0.155,-0.220
5826,-0.185,-0.230
5827,-0.170,-0.225
5828,-0.140,-0.210
5829,-0.115,-0.190
5830,-0.090,-0.170
5831,-0.115,-0.155
5832,-0.150,-0.140
5833,-0.160,-0.135
5834,-0.175,-0.145
5835,-0.125,-0.125
5836,-0.075,-0.105
5837,-0.060,-0.095
5838,-0.045,-0.085
5839,-0.020,-0.075
5840,0.000,-0.070
5841,-0.035,-0.115
5842,-0.070,-0.155
5843,-0.105,-0.175
5844,-0.125,-0.195
5845,-0.080,-0.205
5846,-0.060,-0.215
5847,-0.110,-0.225
5848,-0.150,-0.235
5849,-0.165,-0.230
5850,-0.175,-0.225
5851,-0.175,-0.230
5852,-0.170,-0.235
5853,-0.155,-0.230
5854,-0.170,-0.225
5855,-0.235,-0.225
5856,-0.255,-0.225
5857,-0.230,-0.225
5858,-0.210,-0.220
5859,-0.195,-0.210
5860,-0.160,-0.205
5861,-0.120,-0.200
5862,-0.235,-0.260
5863,-0.435,-0.355
5864,-0.590,-0.290
5865,-0.730,-0.150
5866,-0.645,0.000
5867,-0.485,0.155
5868,-0.085,0.205
5869,0.370,0.240
5870,1.110,0.415
5871,1.900,0.615
5872,2.370,0.975
5873,2.810,1.355
5874,2.985,1.135
5875,2.835,1.375
5876,2.350,-0.095
5877,1.540,-1.025
5878,0.475,-1.075
5879,-0.525,-1.115
5880,-0.880,-0.995
5881,-1.180,-0.875
5882,-1.135,-0.790
5883,-1.085,-0.695
5884,-1.030,-0.570
5885,-0.955,-0.450
5886,-0.830,-0.330
5887,-0.690,-0.220
5888,-0.530,-0.125
5889,-0.405,-0.050
5890,-0.370,-0.030
5891,-0.345,-0.015
5892,-0.350,-0.010
5893,-0.345,0.000
5894,-0.320,0.015
5895,-0.295,0.025
5896,-0.260,0.030
5897,-0.255,0.040
5898,-0.275,0.055
5899,-0.275,0.070
5900,-0.255,0.080
5901,-0.240,0.090
5902,-0.225,0.100
5903,-0.210,0.105
5904,-0.200,0.110
5905,-0.195,0.125
5906,-0.190,0.140
5907,-0.185,0.160
5908,-0.185,0.185
5909,-0.170,0.205
5910,-0.150,0.220
5911,-0.145,0.230
5912,-0.140,0.240
5913,-0.125,0.255
5914,-0.110,0.270
5915,-0.105,0.305
5916,-0.105,0.340
5917,-0.080,0.375
5918,-0.055,0.405
5919,-0.020,0.415
5920,0.015,0.425
5921,0.015,0.450
5922,0.015,0.475
5923,0.040,0.500
5924,0.070,0.525
5925,0.105,0.530
5926,0.135,0.535
5927,0.145,0.540
5928,0.160,0.545
5929,0.190,0.535
5930,0.215,0.525
5931,0.210,0.525
5932,0.205,0.515
5933,0.195,0.485
5934,0.185,0.455
5935,0.190,0.425
5936,0.195,0.395
5937,0.195,0.370
5938,0.175,0.335
5939,0.135,0.290
5940,0.115,0.240
5941,0.110,0.190
5942,0.075,0.135
5943,0.025,0.085
5944,-0.030,0.050
5945,-0.085,0.015
5946,-0.115,-0.005
5947,-0.130,-0.025
5948,-0.150,-0.050
5949,-0.170,-0.075
5950,-0.195,-0.105
5951,-0.220,-0.130
5952,-0.225,-0.135
5953,-0.225,-0.140
5954,-0.220,-0.140
5955,-0.210,-0.130
5956,-0.205,-0.125
5957,-0.210,-0.125
5958,-0.215,-0.125
5959,-0.225,-0.135
5960,-0.225,-0.135
5961,-0.225,-0.135
5962,-0.215,-0.125
5963,-0.205,-0.115
5964,-0.215,-0.120
5965,-0.225,-0.125
5966,-0.225,-0.130
5967,-0.225,-0.135
5968,-0.205,-0.130
5969,-0.180,-0.125
5970,-0.160,-0.120
5971,-0.150,-0.115
5972,-0.170,-0.115
5973,-0.185,-0.120
5974,-0.190,-0.135
5975,-0.195,-0.145
5976,-0.195,-0.155
5977,-0.195,-0.165
5978,-0.185,-0.160
5979,-0.180,-0.155
5980,-0.195,-0.155
5981,-0.205,-0.160
5982,-0.205,-0.170
5983,-0.205,-0.175
5984,-0.205,-0.180
5985,-0.200,-0.185
5986,-0.190,-0.180
5987,-0.195,-0.185
5988,-0.215,-0.200
5989,-0.225,-0.205
5990,-0.220,-0.200
5991,-0.220,-0.200
5992,-0.230,-0.210
5993,-0.240,-0.215
5994,-0.250,-0.215
5995,-0.255,-0.215
5996,-0.250,-0.220
5997,-0.250,-0.225
5998,-0.260,-0.225
5999,-0.260,-0.225
6000,-0.265,-0.225
6001,-0.240,-0.210
6002,-0.235,-0.205
6003,-0.240,-0.210
6004,-0.245,-0.215
6005,-0.250,-0.230
6006,-0.255,-0.245
6007,-0.250,-0.235
6008,-0.245,-0.225
6009,-0.245,-0.225
6010,-0.245,-0.225
6011,-0.240,-0.215
6012,-0.235,-0.205
6013,-0.240,-0.215
6014,-0.245,-0.225
6015,-0.240,-0.220
6016,-0.235,-0.215
6017,-0.225,-0.205
6018,-0.215,-0.195
6019,-0.220,-0.195
6020,-0.225,-0.200
6021,-0.240,-0.215
6022,-0.245,-0.225
6023,-0.240,-0.220
6024,-0.230,-0.215
6025,-0.220,-0.215
6026,-0.220,-0.215
6027,-0.230,-0.210
6028,-0.235,-0.205
6029,-0.230,-0.210
6030,-0.225,-0.215
6031,-0.225,-0.210
6032,-0.215,-0.205
6033,-0.200,-0.200
6034,-0.200,-0.195
6035,-0.210,-0.200
6036,-0.215,-0.205
6037,-0.210,-0.205
6038,-0.205,-0.205
6039,-0.205,-0.210
6040,-0.200,-0.210
6041,-0.190,-0.200
6042,-0.200,-0.180
6043,-0.215,-0.165
6044,-0.205,-0.165
6045,-0.195,-0.165
6046,-0.175,-0.160
6047,-0.155,-0.155
6048,-0.150,-0.130
6049,-0.145,-0.105
6050,-0.115,-0.090
6051,-0.095,-0.075
6052,-0.080,-0.080
6053,-0.060,-0.085
6054,-0.040,-0.075
6055,-0.030,-0.075
6056,-0.055,-0.110
6057,-0.080,-0.140
6058,-0.100,-0.160
6059,-0.120,-0.185
6060,-0.140,-0.210
6061,-0.155,-0.225
6062,-0.160,-0.215
6063,-0.165,-0.205
6064,-0.170,-0.205
6065,-0.180,-0.205
6066,-0.190,-0.200
6067,-0.195,-0.200
6068,-0.195,-0.210
6069,-0.190,-0.210
6070,-0.180,-0.200
6071,-0.175,-0.195
6072,-0.180,-0.190
6073,-0.180,-0.180
6074,-0.170,-0.170
6075,-0.165,-0.180
6076,-0.160,-0.200
6077,-0.330,-0.235
6078,-0.545,-0.275
6079,-0.630,-0.115
6080,-0.695,0.085
6081,-0.500,0.220
6082,-0.275,0.350
6083,0.310,0.255
6084,0.905,0.145
6085,1.625,0.355
6086,2.320,0.575
6087,2.590,0.895
6088,2.850,1.140
6089,3.005,0.720
6090,2.965,0.245
6091,1.865,-0.555
6092,0.810,-1.180
6093,-0.080,-1.095
6094,-0.790,-0.995
6095,-0.980,-0.860
6096,-1.100,-0.740
6097,-1.050,-0.650
6098,-0.980,-0.540
6099,-0.875,-0.400
6100,-0.745,-0.260
6101,-0.595,-0.120
6102,-0.470,-0.020
6103,-0.380,0.020
6104,-0.325,0.045
6105,-0.300,0.045
6106,-0.280,0.050
6107,-0.270,0.060
6108,-0.260,0.070
6109,-0.245,0.085
6110,-0.220,0.110
6111,-0.190,0.135
6112,-0.180,0.145
6113,-0.190,0.145
6114,-0.190,0.150
6115,-0.180,0.160
6116,-0.165,0.175
6117,-0.150,0.190
6118,-0.145,0.205
6119,-0.140,0.220
6120,-0.125,0.235
6121,-0.110,0.250
6122,-0.100,0.270
6123,-0.090,0.290
6124,-0.075,0.310
6125,-0.085,0.295
6126,-0.030,0.355
6127,-0.005,0.375
6128,0.000,0.400
6129,0.005,0.425
6130,0.015,0.445
6131,0.025,0.465
6132,0.050,0.490
6133,0.075,0.520
6134,0.095,0.550
6135,0.120,0.575
6136,0.155,0.600
6137,0.190,0.615
6138,0.210,0.615
6139,0.230,0.615
6140,0.250,0.625
6141,0.270,0.630
6142,0.300,0.615
6143,0.315,0.605
6144,0.315,0.600
6145,0.315,0.580
6146,0.310,0.535
6147,0.305,0.505
6148,0.310,0.480
6149,0.305,0.445
6150,0.275,0.410
6151,0.255,0.375
6152,0.235,0.330
6153,0.200,0.280
6154,0.160,0.225
6155,0.125,0.175
6156,0.095,0.130
6157,0.080,0.100
6158,0.070,0.075
6159,0.030,0.040
6160,-0.015,0.005
6161,-0.050,-0.030
6162,-0.080,-0.060
6163,-0.095,-0.080
6164,-0.110,-0.100
6165,-0.130,-0.115
6166,-0.150,-0.130
6167,-0.160,-0.130
6168,-0.165,-0.125
6169,-0.170,-0.125
6170,-0.175,-0.125
6171,-0.170,-0.125
6172,-0.165,-0.125
6173,-0.150,-0.120
6174,-0.135,-0.115
6175,-0.140,-0.120
6176,-0.145,-0.125
6177,-0.150,-0.120
6178,-0.155,-0.115
6179,-0.145,-0.115
6180,-0.135,-0.115
6181,-0.135,-0.110
6182,-0.135,-0.105
6183,-0.135,-0.115
6184,-0.135,-0.125
6185,-0.130,-0.115
6186,-0.125,-0.105
6187,-0.130,-0.115
6188,-0.125,-0.120
6189,-0.105,-0.110
6190,-0.095,-0.105
6191,-0.100,-0.110
6192,-0.110,-0.120
6193,-0.125,-0.130
6194,-0.130,-0.140
6195,-0.110,-0.150
6196,-0.110,-0.155
6197,-0.120,-0.155
6198,-0.125,-0.155
6199,-0.130,-0.160
6200,-0.140,-0.170
6201,-0.150,-0.180
6202,-0.155,-0.185
6203,-0.150,-0.190
6204,-0.140,-0.195
6205,-0.130,-0.190
6206,-0.135,-0.190
6207,-0.150,-0.200
6208,-0.155,-0.210
6209,-0.165,-0.225
6210,-0.165,-0.220
6211,-0.165,-0.215
6212,-0.170,-0.220
6213,-0.175,-0.225
6214,-0.170,-0.225
6215,-0.165,-0.225
6216,-0.170,-0.230
6217,-0.175,-0.235
6218,-0.165,-0.230
6219,-0.155,-0.225
6220,-0.155,-0.220
6221,-0.155,-0.215
6222,-0.160,-0.215
6223,-0.165,-0.220
6224,-0.170,-0.235
6225,-0.175,-0.245
6226,-0.170,-0.240
6227,-0.165,-0.235
6228,-0.165,-0.230
6229,-0.165,-0.225
6230,-0.160,-0.220
6231,-0.155,-0.215
6232,-0.160,-0.215
6233,-0.165,-0.215
6234,-0.160,-0.220
6235,-0.150,-0.220
6236,-0.140,-0.210
6237,-0.135,-0.205
6238,-0.140,-0.205
6239,-0.145,-0.205
6240,-0.145,-0.210
6241,-0.145,-0.215
6242,-0.145,-0.215
6243,-0.145,-0.215
6244,-0.140,-0.210
6245,-0.135,-0.205
6246,-0.140,-0.210
6247,-0.145,-0.215
6248,-0.140,-0.210
6249,-0.135,-0.205
6250,-0.135,-0.205
6251,-0.125,-0.190
6252,-0.115,-0.175
6253,-0.095,-0.165
6254,-0.075,-0.155
6255,-0.080,-0.145
6256,-0.085,-0.135
6257,-0.090,-0.125
6258,-0.090,-0.115
6259,-0.055,-0.110
6260,-0.025,-0.105
6261,-0.010,-0.100
6262,0.005,-0.095
6263,0.020,-0.095
6264,0.030,-0.105
6265,0.010,-0.140
6266,-0.010,-0.170
6267,-0.040,-0.185
6268,-0.060,-0.200
6269,-0.075,-0.215
6270,-0.090,-0.225
6271,-0.115,-0.230
6272,-0.125,-0.235
6273,-0.130,-0.230
6274,-0.140,-0.225
6275,-0.150,-0.230
6276,-0.150,-0.235
6277,-0.140,-0.230
6278,-0.135,-0.225
6279,-0.135,-0.225
6280,-0.135,-0.225
6281,-0.130,-0.220
6282,-0.115,-0.205
6283,-0.100,-0.190
6284,-0.110,-0.225
6285,-0.130,-0.275
6286,-0.325,-0.305
6287,-0.555,-0.330
6288,-0.635,-0.185
6289,-0.690,-0.020
6290,-0.465,0.120
6291,-0.220,0.260
6292,0.405,0.190
6293,1.045,0.120
6294,1.800,0.420
6295,2.510,0.715
6296,2.750,1.005
6297,2.975,1.195
6298,3.055,0.600
6299,2.915,-0.010
6300,1.670,-0.695
6301,0.525,-1.215
6302,-0.270,-1.120
6303,-0.885,-1.005
6304,-1.015,-0.845
6305,-1.080,-0.705
6306,-0.995,-0.595
6307,-0.900,-0.485
6308,-0.790,-0.360
6309,-0.660,-0.240
6310,-0.495,-0.120
6311,-0.385,-0.050
6312,-0.335,-0.030
6313,-0.290,-0.010
6314,-0.255,0.005
6315,-0.235,0.015
6316,-0.240,0.010
6317,-0.240,0.020
6318,-0.230,0.045
6319,-0.220,0.055
6320,-0.200,0.060
6321,-0.195,0.075
6322,-0.190,0.090
6323,-0.180,0.110
6324,-0.170,0.130
6325,-0.165,0.135
6326,-0.160,0.140
6327,-0.140,0.160
6328,-0.120,0.180
6329,-0.105,0.195
6330,-0.090,0.210
6331,-0.085,0.230
6332,-0.085,0.250
6333,-0.085,0.260
6334,-0.075,0.275
6335,-0.060,0.295
6336,-0.045,0.315
6337,-0.030,0.350
6338,-0.015,0.385
6339,0.000,0.420
6340,0.015,0.455
6341,0.050,0.470
6342,0.080,0.490
6343,0.105,0.515
6344,0.130,0.540
6345,0.165,0.565
6346,0.195,0.585
6347,0.205,0.585
6348,0.220,0.585
6349,0.240,0.585
6350,0.260,0.585
6351,0.280,0.575
6352,0.295,0.560
6353,0.295,0.540
6354,0.295,0.515
6355,0.295,0.490
6356,0.295,0.460
6357,0.295,0.430
6358,0.285,0.390
6359,0.265,0.335
6360,0.250,0.300
6361,0.240,0.270
6362,0.205,0.215
6363,0.150,0.155
6364,0.110,0.110
6365,0.075,0.065
6366,0.050,0.030
6367,0.020,-0.005
6368,-0.010,-0.035
6369,-0.045,-0.070
6370,-0.080,-0.095
6371,-0.110,-0.120
6372,-0.125,-0.145
6373,-0.140,-0.170
6374,-0.145,-0.175
6375,-0.145,-0.175
6376,-0.165,-0.185
6377,-0.175,-0.185
6378,-0.175,-0.190
6379,-0.175,-0.195
6380,-0.180,-0.205
6381,-0.185,-0.215
6382,-0.180,-0.210
6383,-0.175,-0.205
6384,-0.175,-0.210
6385,-0.175,-0.210
6386,-0.165,-0.185
6387,-0.155,-0.165
6388,-0.150,-0.175
6389,-0.145,-0.185
6390,-0.140,-0.180
6391,-0.135,-0.175
6392,-0.130,-0.165
6393,-0.125,-0.155
6394,-0.125,-0.160
6395,-0.125,-0.165
6396,-0.130,-0.165
6397,-0.130,-0.165
6398,-0.120,-0.160
6399,-0.115,-0.155
6400,-0.110,-0.160
6401,-0.105,-0.165
6402,-0.110,-0.170
6403,-0.115,-0.180
6404,-0.115,-0.190
6405,-0.115,-0.195
6406,-0.120,-0.195
6407,-0.115,-0.195
6408,-0.100,-0.190
6409,-0.105,-0.190
6410,-0.120,-0.200
6411,-0.125,-0.210
6412,-0.130,-0.220
6413,-0.135,-0.230
6414,-0.140,-0.240
6415,-0.145,-0.245
6416,-0.140,-0.245
6417,-0.140,-0.245
6418,-0.145,-0.245
6419,-0.150,-0.255
6420,-0.155,-0.265
6421,-0.160,-0.265
6422,-0.165,-0.265
6423,-0.150,-0.245
6424,-0.135,-0.225
6425,-0.145,-0.255
6426,-0.155,-0.275
6427,-0.170,-0.275
6428,-0.185,-0.275
6429,-0.170,-0.270
6430,-0.155,-0.265
6431,-0.155,-0.265
6432,-0.155,-0.265
6433,-0.155,-0.265
6434,-0.155,-0.265
6435,-0.160,-0.265
6436,-0.165,-0.265
6437,-0.170,-0.270
6438,-0.170,-0.270
6439,-0.155,-0.255
6440,-0.145,-0.245
6441,-0.150,-0.245
6442,-0.160,-0.255
6443,-0.170,-0.275
6444,-0.175,-0.280
6445,-0.170,-0.270
6446,-0.165,-0.265
6447,-0.170,-0.265
6448,-0.175,-0.265
6449,-0.170,-0.265
6450,-0.165,-0.265
6451,-0.170,-0.265
6452,-0.175,-0.265
6453,-0.170,-0.265
6454,-0.160,-0.260
6455,-0.150,-0.250
6456,-0.145,-0.245
6457,-0.150,-0.245
6458,-0.160,-0.250
6459,-0.175,-0.265
6460,-0.175,-0.260
6461,-0.175,-0.255
6462,-0.170,-0.260
6463,-0.165,-0.265
6464,-0.155,-0.255
6465,-0.145,-0.245
6466,-0.145,-0.250
6467,-0.145,-0.255
6468,-0.160,-0.260
6469,-0.170,-0.260
6470,-0.150,-0.230
6471,-0.135,-0.205
6472,-0.125,-0.205
6473,-0.115,-0.205
6474,-0.115,-0.200
6475,-0.115,-0.190
6476,-0.105,-0.170
6477,-0.080,-0.155
6478,-0.045,-0.145
6479,-0.025,-0.135
6480,-0.020,-0.120
6481,-0.010,-0.120
6482,0.000,-0.135
6483,-0.015,-0.170
6484,-0.050,-0.215
6485,-0.070,-0.235
6486,-0.080,-0.235
6487,-0.095,-0.245
6488,-0.115,-0.265
6489,-0.135,-0.275
6490,-0.150,-0.275
6491,-0.165,-0.275
6492,-0.180,-0.275
6493,-0.180,-0.275
6494,-0.170,-0.270
6495,-0.170,-0.265
6496,-0.180,-0.270
6497,-0.180,-0.275
6498,-0.170,-0.270
6499,-0.165,-0.265
6500,-0.165,-0.265
6501,-0.140,-0.250
6502,-0.115,-0.235
6503,-0.170,-0.300
6504,-0.245,-0.365
6505,-0.475,-0.350
6506,-0.675,-0.315
6507,-0.695,-0.170
6508,-0.660,-0.020
6509,-0.365,0.140
6510,0.010,0.265
6511,0.625,0.260
6512,1.280,0.340
6513,2.010,0.655
6514,2.580,0.940
6515,2.810,1.175
6516,2.965,1.055
6517,2.995,0.330
6518,2.455,-0.345
6519,1.115,-0.935
6520,0.080,-1.210
6521,-0.615,-1.115
6522,-1.000,-1.005
6523,-1.090,-0.890
6524,-1.105,-0.785
6525,-1.040,-0.685
6526,-0.960,-0.565
6527,-0.860,-0.425
6528,-0.720,-0.295
6529,-0.555,-0.175
6530,-0.455,-0.125
6531,-0.385,-0.105
6532,-0.340,-0.080
6533,-0.305,-0.055
