'sample interval','V4'
'0.004 sec','mV'
0,1.805
1,1.805
2,1.810
3,1.805
4,1.805
5,1.795
6,1.805
7,1.795
8,1.805
9,1.805
10,1.805
11,1.820
12,1.810
13,1.805
14,1.800
15,1.810
16,1.820
17,1.850
18,1.860
19,1.855
20,1.865
21,1.880
22,1.880
23,1.885
24,1.910
25,1.960
26,2.000
27,1.980
28,1.955
29,1.950
30,1.955
31,1.950
32,1.945
33,1.915
34,1.900
35,1.890
36,1.870
37,1.835
38,1.835
39,1.825
40,1.805
41,1.790
42,1.780
43,1.775
44,1.775
45,1.770
46,1.770
47,1.775
48,1.775
49,1.760
50,1.765
51,1.765
52,1.765
53,1.790
54,1.795
55,1.810
56,1.810
57,1.795
58,1.805
59,1.770
60,1.730
61,1.770
62,1.940
63,2.250
64,2.760
65,3.340
66,3.655
67,3.680
68,3.650
69,3.635
70,3.595
71,3.475
72,2.860
73,1.685
74,1.440
75,1.690
76,1.835
77,1.870
78,1.865
79,1.855
80,1.820
81,1.780
82,1.780
83,1.765
84,1.760
85,1.765
86,1.765
87,1.765
88,1.775
89,1.775
90,1.770
91,1.790
92,1.790
93,1.805
94,1.805
95,1.820
96,1.830
97,1.835
98,1.850
99,1.850
100,1.855
101,1.855
102,1.860
103,1.880
104,1.885
105,1.900
106,1.915
107,1.930
108,1.960
109,1.975
110,1.980
111,1.980
112,2.000
113,2.020
114,2.045
115,2.070
116,2.100
117,2.125
118,2.150
119,2.170
120,2.190
121,2.220
122,2.245
123,2.275
124,2.300
125,2.320
126,2.360
127,2.390
128,2.400
129,2.430
130,2.465
131,2.485
132,2.490
133,2.510
134,2.525
135,2.550
136,2.570
137,2.580
138,2.585
139,2.585
140,2.610
141,2.605
142,2.585
143,2.560
144,2.520
145,2.480
146,2.425
147,2.345
148,2.290
149,2.240
150,2.190
151,2.140
152,2.100
153,2.075
154,2.060
155,2.035
156,2.015
157,2.000
158,1.985
159,1.970
160,1.955
161,1.960
162,1.975
163,1.960
164,1.960
165,1.955
166,1.950
167,1.940
168,1.930
169,1.925
170,1.925
171,1.925
172,1.910
173,1.900
174,1.895
175,1.900
176,1.910
177,1.900
178,1.890
179,1.880
180,1.885
181,1.890
182,1.890
183,1.885
184,1.880
185,1.885
186,1.880
187,1.880
188,1.880
189,1.880
190,1.885
191,1.880
192,1.870
193,1.870
194,1.865
195,1.860
196,1.860
197,1.855
198,1.850
199,1.855
200,1.850
201,1.850
202,1.835
203,1.835
204,1.825
205,1.825
206,1.820
207,1.825
208,1.825
209,1.820
210,1.820
211,1.810
212,1.805
213,1.795
214,1.800
215,1.795
216,1.800
217,1.805
218,1.805
219,1.795
220,1.805
221,1.805
222,1.805
223,1.795
224,1.800
225,1.790
226,1.805
227,1.795
228,1.805
229,1.805
230,1.805
231,1.795
232,1.790
233,1.805
234,1.820
235,1.835
236,1.850
237,1.855
238,1.870
239,1.870
240,1.880
241,1.885
242,1.925
243,1.975
244,1.975
245,1.955
246,1.945
247,1.940
248,1.940
249,1.940
250,1.920
251,1.900
252,1.885
253,1.880
254,1.850
255,1.835
256,1.825
257,1.780
258,1.790
259,1.780
260,1.775
261,1.770
262,1.770
263,1.770
264,1.765
265,1.760
266,1.765
267,1.770
268,1.765
269,1.750
270,1.765
271,1.780
272,1.790
273,1.795
274,1.805
275,1.800
276,1.790
277,1.770
278,1.760
279,1.855
280,2.125
281,2.540
282,3.080
283,3.560
284,3.700
285,3.670
286,3.655
287,3.635
288,3.590
289,3.340
290,2.370
291,1.450
292,1.490
293,1.740
294,1.850
295,1.885
296,1.870
297,1.830
298,1.795
299,1.765
300,1.750
301,1.750
302,1.760
303,1.750
304,1.760
305,1.750
306,1.745
307,1.750
308,1.765
309,1.780
310,1.790
311,1.790
312,1.790
313,1.790
314,1.800
315,1.805
316,1.810
317,1.820
318,1.850
319,1.850
320,1.855
321,1.860
322,1.880
323,1.880
324,1.880
325,1.890
326,1.915
327,1.930
328,1.945
329,1.960
330,1.985
331,1.990
332,2.015
333,2.040
334,2.060
335,2.080
336,2.100
337,2.120
338,2.150
339,2.170
340,2.195
341,2.225
342,2.260
343,2.275
344,2.305
345,2.330
346,2.365
347,2.390
348,2.410
349,2.430
350,2.455
351,2.455
352,2.485
353,2.500
354,2.500
355,2.520
356,2.550
357,2.560
358,2.555
359,2.530
360,2.500
361,2.455
362,2.420
363,2.360
364,2.310
365,2.250
366,2.190
367,2.120
368,2.095
369,2.050
370,2.020
371,1.985
372,1.960
373,1.955
374,1.940
375,1.915
376,1.900
377,1.890
378,1.890
379,1.880
380,1.890
381,1.860
382,1.855
383,1.850
384,1.860
385,1.880
386,1.865
387,1.865
388,1.860
389,1.855
390,1.855
391,1.855
392,1.860
393,1.835
394,1.850
395,1.850
396,1.855
397,1.855
398,1.850
399,1.850
400,1.850
401,1.855
402,1.855
403,1.860
404,1.850
405,1.855
406,1.860
407,1.850
408,1.855
409,1.855
410,1.860
411,1.855
412,1.850
413,1.835
414,1.835
415,1.835
416,1.825
417,1.830
418,1.820
419,1.820
420,1.810
421,1.810
422,1.810
423,1.805
424,1.810
425,1.805
426,1.800
427,1.805
428,1.805
429,1.805
430,1.805
431,1.805
432,1.810
433,1.805
434,1.805
435,1.795
436,1.805
437,1.805
438,1.800
439,1.805
440,1.810
441,1.810
442,1.820
443,1.830
444,1.850
445,1.855
446,1.870
447,1.870
448,1.870
449,1.880
450,1.860
451,1.880
452,1.925
453,1.985
454,1.975
455,1.940
456,1.945
457,1.950
458,1.955
459,1.940
460,1.900
461,1.890
462,1.870
463,1.840
464,1.835
465,1.835
466,1.805
467,1.795
468,1.780
469,1.775
470,1.770
471,1.760
472,1.765
473,1.760
474,1.750
475,1.750
476,1.765
477,1.765
478,1.750
479,1.770
480,1.775
481,1.780
482,1.790
483,1.795
484,1.795
485,1.805
486,1.780
487,1.765
488,1.805
489,2.000
490,2.365
491,2.860
492,3.395
493,3.640
494,3.635
495,3.610
496,3.605
497,3.570
498,3.440
499,2.680
500,1.555
501,1.420
502,1.710
503,1.840
504,1.900
505,1.890
506,1.855
507,1.820
508,1.790
509,1.770
510,1.750
511,1.760
512,1.765
513,1.765
514,1.765
515,1.770
516,1.775
517,1.775
518,1.775
519,1.770
520,1.775
521,1.780
522,1.795
523,1.795
524,1.805
525,1.805
526,1.830
527,1.840
528,1.850
529,1.840
530,1.855
531,1.870
532,1.885
533,1.890
534,1.910
535,1.910
536,1.925
537,1.940
538,1.955
539,1.975
540,2.000
541,2.010
542,2.030
543,2.040
544,2.065
545,2.075
546,2.105
547,2.135
548,2.165
549,2.190
550,2.210
551,2.240
552,2.260
553,2.285
554,2.315
555,2.335
556,2.350
557,2.395
558,2.405
559,2.410
560,2.425
561,2.440
562,2.465
563,2.460
564,2.485
565,2.500
566,2.525
567,2.540
568,2.510
569,2.480
570,2.455
571,2.420
572,2.350
573,2.300
574,2.240
575,2.215
576,2.160
577,2.120
578,2.075
579,2.050
580,2.030
581,2.010
582,2.000
583,1.980
584,1.975
585,1.970
586,1.960
587,1.955
588,1.955
589,1.950
590,1.930
591,1.930
592,1.925
593,1.930
594,1.920
595,1.920
596,1.920
597,1.925
598,1.930
599,1.925
600,1.925
601,1.930
602,1.930
603,1.940
604,1.945
605,1.930
606,1.925
607,1.925
608,1.925
609,1.925
610,1.940
611,1.925
612,1.925
613,1.940
614,1.940
615,1.930
616,1.930
617,1.925
618,1.925
619,1.920
620,1.925
621,1.925
622,1.915
623,1.910
624,1.910
625,1.900
626,1.900
627,1.890
628,1.900
629,1.900
630,1.895
631,1.885
632,1.885
633,1.880
634,1.880
635,1.865
636,1.865
637,1.870
638,1.880
639,1.880
640,1.870
641,1.865
642,1.865
643,1.865
644,1.860
645,1.860
646,1.850
647,1.850
648,1.855
649,1.855
650,1.865
651,1.860
652,1.850
653,1.855
654,1.860
655,1.865
656,1.870
657,1.860
658,1.885
659,1.890
660,1.900
661,1.915
662,1.940
663,1.940
664,1.945
665,1.960
666,1.955
667,1.975
668,2.005
669,2.060
670,2.070
671,2.040
672,2.020
673,2.015
674,2.020
675,2.020
676,2.020
677,2.000
678,1.985
679,1.960
680,1.945
681,1.920
682,1.915
683,1.900
684,1.870
685,1.865
686,1.865
687,1.870
688,1.860
689,1.850
690,1.840
691,1.840
692,1.850
693,1.855
694,1.855
695,1.855
696,1.865
697,1.870
698,1.880
699,1.880
700,1.880
701,1.885
702,1.865
703,1.850
704,1.840
705,2.000
706,2.320
707,2.765
708,3.305
709,3.610
710,3.665
711,3.635
712,3.610
713,3.590
714,3.520
715,3.085
716,1.945
717,1.480
718,1.750
719,1.915
720,2.000
721,2.000
722,1.960
723,1.925
724,1.885
725,1.860
726,1.850
727,1.855
728,1.840
729,1.850
730,1.860
731,1.865
732,1.865
733,1.860
734,1.860
735,1.880
736,1.880
737,1.880
738,1.885
739,1.885
740,1.900
741,1.900
742,1.910
743,1.910
744,1.920
745,1.920
746,1.925
747,1.940
748,1.945
749,1.955
750,1.975
751,2.000
752,2.005
753,2.005
754,2.020
755,2.040
756,2.050
757,2.070
758,2.090
759,2.105
760,2.125
761,2.150
762,2.165
763,2.195
764,2.215
765,2.225
766,2.255
767,2.290
768,2.315
769,2.340
770,2.370
771,2.390
772,2.400
773,2.410
774,2.440
775,2.465
776,2.485
777,2.510
778,2.520
779,2.530
780,2.540
781,2.575
782,2.585
783,2.585
784,2.585
785,2.575
786,2.570
787,2.530
788,2.495
789,2.435
790,2.395
791,2.345
792,2.290
793,2.240
794,2.195
795,2.155
796,2.135
797,2.120
798,2.095
799,2.090
800,2.070
801,2.050
802,2.050
803,2.045
804,2.040
805,2.030
806,2.035
807,2.020
808,2.030
809,2.030
810,2.010
811,2.010
812,2.015
813,2.010
814,2.015
815,2.010
816,2.005
817,2.005
818,2.000
819,1.985
820,2.000
821,2.005
822,2.005
823,2.010
824,2.015
825,2.010
826,2.010
827,1.990
828,2.000
829,2.005
830,2.000
831,1.985
832,1.985
833,1.980
834,1.980
835,1.975
836,1.975
837,1.955
838,1.955
839,1.970
840,1.960
841,1.960
842,1.950
843,1.950
844,1.945
845,1.945
846,1.940
847,1.930
848,1.930
849,1.930
850,1.940
851,1.940
852,1.930
853,1.930
854,1.925
855,1.925
856,1.920
857,1.920
858,1.920
859,1.915
860,1.920
861,1.915
862,1.915
863,1.900
864,1.910
865,1.900
866,1.900
867,1.900
868,1.900
869,1.895
870,1.900
871,1.900
872,1.910
873,1.910
874,1.910
875,1.895
876,1.900
877,1.915
878,1.915
879,1.910
880,1.910
881,1.910
882,1.915
883,1.910
884,1.910
885,1.900
886,1.910
887,1.920
888,1.910
889,1.900
890,1.915
891,1.920
892,1.925
893,1.915
894,1.910
895,1.915
896,1.920
897,1.930
898,1.945
899,1.960
900,1.970
901,1.975
902,1.990
903,1.990
904,2.000
905,2.000
906,2.035
907,2.105
908,2.125
909,2.095
910,2.070
911,2.070
912,2.070
913,2.070
914,2.050
915,2.040
916,2.015
917,2.000
918,1.960
919,1.955
920,1.930
921,1.895
922,1.890
923,1.885
924,1.885
925,1.870
926,1.865
927,1.870
928,1.870
929,1.860
930,1.855
931,1.850
932,1.855
933,1.855
934,1.860
935,1.865
936,1.870
937,1.900
938,1.910
939,1.890
940,1.860
941,1.830
942,1.850
943,2.050
944,2.395
945,2.875
946,3.385
947,3.605
948,3.600
949,3.580
950,3.565
951,3.535
952,3.395
953,2.675
954,1.615
955,1.595
956,1.850
957,1.940
958,2.000
959,1.975
960,1.930
961,1.880
962,1.850
963,1.830
964,1.835
965,1.835
966,1.835
967,1.835
968,1.840
969,1.840
970,1.855
971,1.860
972,1.855
973,1.860
974,1.855
975,1.860
976,1.865
977,1.885
978,1.890
979,1.900
980,1.920
981,1.915
982,1.915
983,1.925
984,1.930
985,1.945
986,1.955
987,1.975
988,1.980
989,2.000
990,2.000
991,2.020
992,2.040
993,2.050
994,2.060
995,2.075
996,2.110
997,2.125
998,2.135
999,2.155
1000,2.190
1001,2.215
1002,2.225
1003,2.250
1004,2.280
1005,2.300
1006,2.315
1007,2.360
1008,2.380
1009,2.400
1010,2.425
1011,2.455
1012,2.480
1013,2.495
1014,2.500
1015,2.510
1016,2.545
1017,2.550
1018,2.555
1019,2.575
1020,2.585
1021,2.590
1022,2.585
1023,2.560
1024,2.525
1025,2.485
1026,2.435
1027,2.370
1028,2.335
1029,2.275
1030,2.225
1031,2.180
1032,2.150
1033,2.110
1034,2.080
1035,2.060
1036,2.050
1037,2.040
1038,2.015
1039,2.005
1040,2.005
1041,2.000
1042,1.985
1043,1.985
1044,1.975
1045,1.975
1046,1.970
1047,1.945
1048,1.945
1049,1.955
1050,1.970
1051,1.960
1052,1.970
1053,1.955
1054,1.960
1055,1.945
1056,1.945
1057,1.945
1058,1.945
1059,1.940
1060,1.930
1061,1.915
1062,1.925
1063,1.915
1064,1.910
1065,1.900
1066,1.910
1067,1.890
1068,1.895
1069,1.885
1070,1.885
1071,1.865
1072,1.870
1073,1.860
1074,1.860
1075,1.855
1076,1.860
1077,1.860
1078,1.855
1079,1.840
1080,1.850
1081,1.830
1082,1.820
1083,1.810
1084,1.805
1085,1.795
1086,1.805
1087,1.800
1088,1.800
1089,1.790
1090,1.780
1091,1.790
1092,1.780
1093,1.780
1094,1.775
1095,1.770
1096,1.775
1097,1.775
1098,1.765
1099,1.765
1100,1.765
1101,1.760
1102,1.765
1103,1.765
1104,1.770
1105,1.765
1106,1.770
1107,1.765
1108,1.765
1109,1.760
1110,1.760
1111,1.760
1112,1.765
1113,1.765
1114,1.765
1115,1.775
1116,1.770
1117,1.765
1118,1.770
1119,1.760
1120,1.750
1121,1.760
1122,1.760
1123,1.765
1124,1.770
1125,1.770
1126,1.780
1127,1.780
1128,1.790
1129,1.765
1130,1.760
1131,1.765
1132,1.775
1133,1.790
1134,1.795
1135,1.780
1136,1.790
1137,1.790
1138,1.800
1139,1.810
1140,1.825
1141,1.840
1142,1.850
1143,1.865
1144,1.860
1145,1.865
1146,1.890
1147,1.950
1148,2.000
1149,1.975
1150,1.940
1151,1.925
1152,1.930
1153,1.930
1154,1.925
1155,1.895
1156,1.870
1157,1.860
1158,1.830
1159,1.810
1160,1.805
1161,1.780
1162,1.750
1163,1.745
1164,1.750
1165,1.740
1166,1.740
1167,1.740
1168,1.735
1169,1.730
1170,1.735
1171,1.735
1172,1.730
1173,1.735
1174,1.740
1175,1.745
1176,1.760
1177,1.760
1178,1.770
1179,1.775
1180,1.770
1181,1.745
1182,1.720
1183,1.705
1184,1.825
1185,2.090
1186,2.530
1187,3.115
1188,3.515
1189,3.590
1190,3.570
1191,3.545
1192,3.535
1193,3.450
1194,3.020
1195,1.865
1196,1.325
1197,1.505
1198,1.710
1199,1.805
1200,1.850
1201,1.810
1202,1.780
1203,1.760
1204,1.735
1205,1.715
1206,1.710
1207,1.710
1208,1.705
1209,1.710
1210,1.735
1211,1.720
1212,1.715
1213,1.735
1214,1.740
1215,1.750
1216,1.750
1217,1.745
1218,1.760
1219,1.750
1220,1.745
1221,1.765
1222,1.770
1223,1.790
1224,1.790
1225,1.795
1226,1.810
1227,1.820
1228,1.830
1229,1.835
1230,1.850
1231,1.840
1232,1.870
1233,1.885
1234,1.900
1235,1.925
1236,1.925
1237,1.945
1238,1.960
1239,1.985
1240,2.000
1241,2.035
1242,2.050
1243,2.070
1244,2.100
1245,2.120
1246,2.150
1247,2.150
1248,2.170
1249,2.210
1250,2.245
1251,2.270
1252,2.290
1253,2.310
1254,2.320
1255,2.340
1256,2.360
1257,2.380
1258,2.395
1259,2.390
1260,2.405
1261,2.405
1262,2.410
1263,2.410
1264,2.405
1265,2.390
1266,2.375
1267,2.345
1268,2.305
1269,2.260
1270,2.220
1271,2.180
1272,2.140
1273,2.090
1274,2.045
1275,2.005
1276,1.975
1277,1.950
1278,1.930
1279,1.915
1280,1.890
1281,1.890
1282,1.880
1283,1.865
1284,1.850
1285,1.840
1286,1.850
1287,1.850
1288,1.835
1289,1.835
1290,1.850
1291,1.835
1292,1.840
1293,1.835
1294,1.830
1295,1.830
1296,1.825
1297,1.830
1298,1.820
1299,1.820
1300,1.810
1301,1.820
1302,1.830
1303,1.820
1304,1.820
1305,1.810
1306,1.805
1307,1.800
1308,1.805
1309,1.810
1310,1.805
1311,1.795
1312,1.795
1313,1.805
1314,1.790
1315,1.790
1316,1.790
1317,1.780
1318,1.770
1319,1.770
1320,1.765
1321,1.750
1322,1.750
1323,1.740
1324,1.745
1325,1.740
1326,1.740
1327,1.740
1328,1.735
1329,1.735
1330,1.735
1331,1.720
1332,1.715
1333,1.710
1334,1.710
1335,1.710
1336,1.710
1337,1.690
1338,1.710
1339,1.690
1340,1.705
1341,1.700
1342,1.710
1343,1.700
1344,1.715
1345,1.710
1346,1.710
1347,1.700
1348,1.700
1349,1.690
1350,1.700
1351,1.700
1352,1.700
1353,1.700
1354,1.710
1355,1.705
1356,1.710
1357,1.690
1358,1.685
1359,1.690
1360,1.690
1361,1.690
1362,1.710
1363,1.715
1364,1.710
1365,1.705
1366,1.700
1367,1.700
1368,1.710
1369,1.700
1370,1.700
1371,1.700
1372,1.715
1373,1.720
1374,1.735
1375,1.745
1376,1.750
1377,1.745
1378,1.770
1379,1.770
1380,1.765
1381,1.780
1382,1.825
1383,1.880
1384,1.870
1385,1.840
1386,1.830
1387,1.830
1388,1.835
1389,1.840
1390,1.820
1391,1.795
1392,1.790
1393,1.780
1394,1.745
1395,1.735
1396,1.715
1397,1.700
1398,1.690
1399,1.685
1400,1.670
1401,1.660
1402,1.660
1403,1.660
1404,1.645
1405,1.645
1406,1.645
1407,1.645
1408,1.655
1409,1.650
1410,1.650
1411,1.660
1412,1.670
1413,1.675
1414,1.690
1415,1.690
1416,1.690
1417,1.675
1418,1.660
1419,1.735
1420,2.000
1421,2.365
1422,2.885
1423,3.390
1424,3.560
1425,3.535
1426,3.510
1427,3.485
1428,3.440
1429,3.095
1430,2.000
1431,1.310
1432,1.480
1433,1.700
1434,1.780
1435,1.805
1436,1.765
1437,1.735
1438,1.690
1439,1.655
1440,1.650
1441,1.645
1442,1.655
1443,1.670
1444,1.670
1445,1.670
1446,1.660
1447,1.660
1448,1.670
1449,1.660
1450,1.670
1451,1.670
1452,1.680
1453,1.685
1454,1.690
1455,1.700
1456,1.710
1457,1.710
1458,1.705
1459,1.710
1460,1.720
1461,1.740
1462,1.760
1463,1.770
1464,1.775
1465,1.790
1466,1.810
1467,1.830
1468,1.840
1469,1.850
1470,1.865
1471,1.890
1472,1.910
1473,1.915
1474,1.940
1475,1.950
1476,1.970
1477,1.985
1478,2.010
1479,2.035
1480,2.050
1481,2.075
1482,2.100
1483,2.125
1484,2.150
1485,2.165
1486,2.195
1487,2.215
1488,2.230
1489,2.255
1490,2.285
1491,2.290
1492,2.305
1493,2.315
1494,2.335
1495,2.340
1496,2.350
1497,2.350
1498,2.340
1499,2.310
1500,2.285
1501,2.240
1502,2.180
1503,2.150
1504,2.110
1505,2.070
1506,2.030
1507,1.980
1508,1.960
1509,1.930
1510,1.915
1511,1.890
1512,1.885
1513,1.865
1514,1.860
1515,1.850
1516,1.835
1517,1.830
1518,1.825
1519,1.820
1520,1.810
1521,1.805
1522,1.810
1523,1.800
1524,1.820
1525,1.810
1526,1.810
1527,1.805
1528,1.810
1529,1.810
1530,1.820
1531,1.810
1532,1.825
1533,1.830
1534,1.830
1535,1.820
1536,1.810
1537,1.825
1538,1.820
1539,1.820
1540,1.825
1541,1.820
1542,1.825
1543,1.820
1544,1.820
1545,1.810
1546,1.810
1547,1.820
1548,1.810
1549,1.805
1550,1.805
1551,1.810
1552,1.810
1553,1.805
1554,1.805
1555,1.800
1556,1.795
1557,1.780
1558,1.780
1559,1.780
1560,1.780
1561,1.775
1562,1.765
1563,1.765
1564,1.750
1565,1.745
1566,1.745
1567,1.745
1568,1.740
1569,1.740
1570,1.745
1571,1.750
1572,1.750
1573,1.750
1574,1.745
1575,1.735
1576,1.745
1577,1.745
1578,1.745
1579,1.760
1580,1.750
1581,1.750
1582,1.765
1583,1.750
1584,1.750
1585,1.740
1586,1.750
1587,1.760
1588,1.760
1589,1.770
1590,1.765
1591,1.765
1592,1.760
1593,1.760
1594,1.750
1595,1.750
1596,1.765
1597,1.760
1598,1.760
1599,1.750
1600,1.765
1601,1.770
1602,1.765
1603,1.770
1604,1.765
1605,1.765
1606,1.770
1607,1.775
1608,1.775
1609,1.770
1610,1.770
1611,1.765
1612,1.765
1613,1.765
1614,1.780
1615,1.780
1616,1.790
1617,1.805
1618,1.830
1619,1.830
1620,1.835
1621,1.850
1622,1.850
1623,1.835
1624,1.860
1625,1.915
1626,1.960
1627,1.960
1628,1.945
1629,1.915
1630,1.925
1631,1.925
1632,1.920
1633,1.910
1634,1.895
1635,1.885
1636,1.860
1637,1.840
1638,1.830
1639,1.800
1640,1.790
1641,1.765
1642,1.765
1643,1.765
1644,1.770
1645,1.760
1646,1.750
1647,1.745
1648,1.750
1649,1.745
1650,1.750
1651,1.745
1652,1.745
1653,1.765
1654,1.765
1655,1.775
1656,1.770
1657,1.775
1658,1.780
1659,1.775
1660,1.735
1661,1.740
1662,1.940
1663,2.270
1664,2.740
1665,3.250
1666,3.565
1667,3.605
1668,3.565
1669,3.545
1670,3.520
1671,3.385
1672,2.680
1673,1.590
1674,1.520
1675,1.760
1676,1.860
1677,1.915
1678,1.900
1679,1.855
1680,1.805
1681,1.760
1682,1.745
1683,1.740
1684,1.740
1685,1.745
1686,1.750
1687,1.750
1688,1.760
1689,1.765
1690,1.770
1691,1.775
1692,1.790
1693,1.780
1694,1.795
1695,1.800
1696,1.810
1697,1.820
1698,1.820
1699,1.820
1700,1.830
1701,1.830
1702,1.840
1703,1.855
1704,1.860
1705,1.880
1706,1.890
1707,1.910
1708,1.915
1709,1.940
1710,1.940
1711,1.945
1712,1.970
1713,2.000
1714,2.015
1715,2.030
1716,2.050
1717,2.080
1718,2.095
1719,2.125
1720,2.135
1721,2.150
1722,2.180
1723,2.215
1724,2.230
1725,2.250
1726,2.270
1727,2.300
1728,2.320
1729,2.340
1730,2.340
1731,2.360
1732,2.400
1733,2.420
1734,2.435
1735,2.460
1736,2.485
1737,2.500
1738,2.515
1739,2.520
1740,2.525
1741,2.530
1742,2.540
1743,2.530
1744,2.510
1745,2.455
1746,2.410
1747,2.360
1748,2.300
1749,2.260
1750,2.215
1751,2.165
1752,2.125
1753,2.090
1754,2.060
1755,2.020
1756,2.010
1757,1.985
1758,1.975
1759,1.960
1760,1.960
1761,1.955
1762,1.950
1763,1.945
1764,1.925
1765,1.930
1766,1.920
1767,1.920
1768,1.915
1769,1.915
1770,1.915
1771,1.910
1772,1.910
1773,1.910
1774,1.900
1775,1.890
1776,1.895
1777,1.885
1778,1.890
1779,1.890
1780,1.900
1781,1.890
1782,1.885
1783,1.885
1784,1.885
1785,1.885
1786,1.885
1787,1.885
1788,1.880
1789,1.870
1790,1.870
1791,1.870
1792,1.870
1793,1.860
1794,1.860
1795,1.860
1796,1.855
1797,1.855
1798,1.855
1799,1.840
1800,1.835
1801,1.830
1802,1.820
1803,1.825
1804,1.825
1805,1.825
1806,1.820
1807,1.825
1808,1.820
1809,1.805
1810,1.805
1811,1.805
1812,1.790
1813,1.775
1814,1.780
1815,1.780
1816,1.780
1817,1.790
1818,1.790
1819,1.790
1820,1.775
1821,1.765
1822,1.775
1823,1.790
1824,1.795
1825,1.790
1826,1.795
1827,1.790
1828,1.790
1829,1.795
1830,1.790
1831,1.790
1832,1.790
1833,1.780
1834,1.780
1835,1.790
1836,1.795
1837,1.790
1838,1.795
1839,1.775
1840,1.780
1841,1.790
1842,1.795
1843,1.795
1844,1.800
1845,1.795
1846,1.795
1847,1.795
1848,1.800
1849,1.800
1850,1.810
1851,1.810
1852,1.825
1853,1.825
1854,1.820
1855,1.820
1856,1.825
1857,1.810
1858,1.820
1859,1.820
1860,1.820
1861,1.830
1862,1.830
1863,1.830
1864,1.835
1865,1.835
1866,1.855
1867,1.865
1868,1.870
1869,1.900
1870,1.910
1871,1.900
1872,1.900
1873,1.925
1874,2.000
1875,2.030
1876,2.005
1877,1.975
1878,1.975
1879,1.980
1880,1.980
1881,1.960
1882,1.940
1883,1.920
1884,1.910
1885,1.880
1886,1.860
1887,1.855
1888,1.835
1889,1.810
1890,1.805
1891,1.795
1892,1.805
1893,1.805
1894,1.795
1895,1.795
1896,1.775
1897,1.780
1898,1.790
1899,1.795
1900,1.790
1901,1.790
1902,1.805
1903,1.810
1904,1.825
1905,1.825
1906,1.840
1907,1.830
1908,1.805
1909,1.770
1910,1.805
1911,2.035
1912,2.400
1913,2.940
1914,3.450
1915,3.620
1916,3.590
1917,3.580
1918,3.560
1919,3.515
1920,3.280
1921,2.345
1922,1.495
1923,1.620
1924,1.835
1925,1.925
1926,1.945
1927,1.900
1928,1.860
1929,1.810
1930,1.790
1931,1.790
1932,1.790
1933,1.780
1934,1.790
1935,1.805
1936,1.805
1937,1.805
1938,1.800
1939,1.795
1940,1.805
1941,1.810
1942,1.820
1943,1.830
1944,1.835
1945,1.835
1946,1.855
1947,1.855
1948,1.855
1949,1.860
1950,1.865
1951,1.885
1952,1.895
1953,1.900
1954,1.900
1955,1.925
1956,1.930
1957,1.940
1958,1.945
1959,1.975
1960,1.985
1961,2.000
1962,2.020
1963,2.030
1964,2.045
1965,2.075
1966,2.095
1967,2.125
1968,2.140
1969,2.165
1970,2.185
1971,2.215
1972,2.230
1973,2.250
1974,2.275
1975,2.290
1976,2.335
1977,2.350
1978,2.375
1979,2.395
1980,2.420
1981,2.430
1982,2.480
1983,2.490
1984,2.495
1985,2.515
1986,2.525
1987,2.540
1988,2.550
1989,2.540
1990,2.520
1991,2.510
1992,2.480
1993,2.410
1994,2.345
1995,2.310
1996,2.280
1997,2.225
1998,2.180
1999,2.140
2000,2.110
2001,2.065
2002,2.045
2003,2.030
2004,2.010
2005,1.985
2006,1.975
2007,1.975
2008,1.970
2009,1.950
2010,1.945
2011,1.940
2012,1.925
2013,1.925
2014,1.920
2015,1.915
2016,1.915
2017,1.910
2018,1.915
2019,1.890
2020,1.895
2021,1.890
2022,1.900
2023,1.910
2024,1.900
2025,1.900
2026,1.900
2027,1.915
2028,1.900
2029,1.900
2030,1.900
2031,1.890
2032,1.895
2033,1.885
2034,1.890
2035,1.885
2036,1.870
2037,1.860
2038,1.885
2039,1.890
2040,1.885
2041,1.880
2042,1.880
2043,1.880
2044,1.865
2045,1.855
2046,1.850
2047,1.840
2048,1.840
2049,1.830
2050,1.830
2051,1.830
2052,1.825
2053,1.820
2054,1.825
2055,1.810
2056,1.790
2057,1.780
2058,1.790
2059,1.795
2060,1.790
2061,1.780
2062,1.780
2063,1.780
2064,1.790
2065,1.770
2066,1.770
2067,1.770
2068,1.775
2069,1.775
2070,1.780
2071,1.770
2072,1.765
2073,1.765
2074,1.765
2075,1.770
2076,1.770
2077,1.770
2078,1.780
2079,1.780
2080,1.770
2081,1.770
2082,1.775
2083,1.770
2084,1.775
2085,1.775
2086,1.780
2087,1.790
2088,1.780
2089,1.780
2090,1.780
2091,1.780
2092,1.780
2093,1.790
2094,1.795
2095,1.795
2096,1.800
2097,1.790
2098,1.795
2099,1.795
2100,1.810
2101,1.800
2102,1.805
2103,1.810
2104,1.810
2105,1.805
2106,1.805
2107,1.810
2108,1.805
2109,1.805
2110,1.800
2111,1.810
2112,1.835
2113,1.850
2114,1.850
2115,1.870
2116,1.885
2117,1.860
2118,1.880
2119,1.910
2120,1.970
2121,1.980
2122,1.950
2123,1.925
2124,1.920
2125,1.930
2126,1.925
2127,1.915
2128,1.890
2129,1.860
2130,1.840
2131,1.805
2132,1.810
2133,1.805
2134,1.790
2135,1.780
2136,1.765
2137,1.750
2138,1.745
2139,1.740
2140,1.740
2141,1.740
2142,1.745
2143,1.745
2144,1.740
2145,1.740
2146,1.740
2147,1.740
2148,1.740
2149,1.740
2150,1.760
2151,1.770
2152,1.780
2153,1.780
2154,1.770
2155,1.740
2156,1.750
2157,1.910
2158,2.210
2159,2.690
2160,3.230
2161,3.540
2162,3.565
2163,3.520
2164,3.510
2165,3.475
2166,3.335
2167,2.610
2168,1.525
2169,1.410
2170,1.670
2171,1.820
2172,1.860
2173,1.850
2174,1.805
2175,1.770
2176,1.740
2177,1.715
2178,1.730
2179,1.720
2180,1.730
2181,1.735
2182,1.750
2183,1.745
2184,1.740
2185,1.740
2186,1.740
2187,1.745
2188,1.775
2189,1.780
2190,1.790
2191,1.780
2192,1.805
2193,1.805
2194,1.820
2195,1.800
2196,1.825
2197,1.835
2198,1.850
2199,1.860
2200,1.860
2201,1.870
2202,1.895
2203,1.910
2204,1.925
2205,1.940
2206,1.955
2207,1.975
2208,2.005
2209,2.015
2210,2.020
2211,2.035
2212,2.060
2213,2.090
2214,2.125
2215,2.130
2216,2.160
2217,2.185
2218,2.220
2219,2.250
2220,2.270
2221,2.285
2222,2.315
2223,2.340
2224,2.340
2225,2.380
2226,2.410
2227,2.410
2228,2.435
2229,2.440
2230,2.455
2231,2.465
2232,2.485
2233,2.485
2234,2.500
2235,2.510
2236,2.510
2237,2.480
2238,2.455
2239,2.420
2240,2.380
2241,2.315
2242,2.260
2243,2.210
2244,2.150
2245,2.100
2246,2.065
2247,2.030
2248,2.005
2249,1.980
2250,1.970
2251,1.940
2252,1.920
2253,1.900
2254,1.900
2255,1.910
2256,1.895
2257,1.885
2258,1.880
2259,1.880
2260,1.885
2261,1.865
2262,1.860
2263,1.855
2264,1.860
2265,1.860
2266,1.850
2267,1.840
2268,1.855
2269,1.870
2270,1.870
2271,1.870
2272,1.865
2273,1.865
2274,1.855
2275,1.860
2276,1.860
2277,1.855
2278,1.860
2279,1.855
2280,1.850
2281,1.850
2282,1.840
2283,1.835
2284,1.835
2285,1.830
2286,1.830
2287,1.835
2288,1.835
2289,1.830
2290,1.825
2291,1.820
2292,1.820
2293,1.805
2294,1.805
2295,1.805
2296,1.795
2297,1.790
2298,1.790
2299,1.780
2300,1.775
2301,1.770
2302,1.765
2303,1.765
2304,1.765
2305,1.770
2306,1.760
2307,1.750
2308,1.765
2309,1.745
2310,1.740
2311,1.740
2312,1.750
2313,1.745
2314,1.750
2315,1.750
2316,1.745
2317,1.750
2318,1.750
2319,1.750
2320,1.745
2321,1.750
2322,1.745
2323,1.750
2324,1.750
2325,1.750
2326,1.750
2327,1.745
2328,1.760
2329,1.765
2330,1.760
2331,1.750
2332,1.750
2333,1.760
2334,1.770
2335,1.775
2336,1.765
2337,1.765
2338,1.770
2339,1.770
2340,1.770
2341,1.780
2342,1.780
2343,1.780
2344,1.790
2345,1.790
2346,1.800
2347,1.790
2348,1.795
2349,1.790
2350,1.795
2351,1.805
2352,1.800
2353,1.805
2354,1.795
2355,1.800
2356,1.805
2357,1.830
2358,1.835
2359,1.835
2360,1.850
2361,1.860
2362,1.860
2363,1.855
2364,1.885
2365,1.925
2366,1.960
2367,1.950
2368,1.925
2369,1.915
2370,1.915
2371,1.920
2372,1.915
2373,1.895
2374,1.880
2375,1.860
2376,1.830
2377,1.805
2378,1.805
2379,1.790
2380,1.775
2381,1.765
2382,1.765
2383,1.760
2384,1.745
2385,1.740
2386,1.745
2387,1.740
2388,1.740
2389,1.745
2390,1.745
2391,1.745
2392,1.740
2393,1.740
2394,1.745
2395,1.770
2396,1.790
2397,1.790
2398,1.780
2399,1.770
2400,1.735
2401,1.735
2402,1.855
2403,2.105
2404,2.530
2405,3.085
2406,3.490
2407,3.605
2408,3.575
2409,3.550
2410,3.535
2411,3.460
2412,3.060
2413,1.900
2414,1.370
2415,1.600
2416,1.805
2417,1.870
2418,1.890
2419,1.840
2420,1.805
2421,1.780
2422,1.750
2423,1.750
2424,1.740
2425,1.740
2426,1.745
2427,1.740
2428,1.745
2429,1.745
2430,1.750
2431,1.765
2432,1.765
2433,1.770
2434,1.780
2435,1.790
2436,1.780
2437,1.780
2438,1.790
2439,1.790
2440,1.800
2441,1.810
2442,1.820
2443,1.830
2444,1.850
2445,1.855
2446,1.860
2447,1.870
2448,1.885
2449,1.900
2450,1.910
2451,1.925
2452,1.945
2453,1.960
2454,2.000
2455,2.020
2456,2.030
2457,2.045
2458,2.070
2459,2.100
2460,2.135
2461,2.140
2462,2.165
2463,2.180
2464,2.215
2465,2.230
2466,2.250
2467,2.285
2468,2.305
2469,2.320
2470,2.340
2471,2.365
2472,2.390
2473,2.410
2474,2.425
2475,2.440
2476,2.460
2477,2.470
2478,2.490
2479,2.510
2480,2.525
2481,2.510
2482,2.490
2483,2.485
2484,2.450
2485,2.405
2486,2.365
2487,2.310
2488,2.255
2489,2.220
2490,2.170
2491,2.135
2492,2.100
2493,2.070
2494,2.040
2495,2.015
2496,2.010
2497,1.990
2498,1.990
2499,1.980
2500,1.970
2501,1.955
2502,1.950
2503,1.950
2504,1.955
2505,1.955
2506,1.945
2507,1.940
2508,1.925
2509,1.925
2510,1.925
2511,1.915
2512,1.910
2513,1.910
2514,1.915
2515,1.920
2516,1.920
2517,1.915
2518,1.915
2519,1.910
2520,1.915
2521,1.910
2522,1.915
2523,1.915
2524,1.920
2525,1.900
2526,1.915
2527,1.910
2528,1.910
2529,1.910
2530,1.915
2531,1.900
2532,1.900
2533,1.890
2534,1.880
2535,1.880
2536,1.885
2537,1.885
2538,1.870
2539,1.865
2540,1.855
2541,1.860
2542,1.855
2543,1.850
2544,1.835
2545,1.835
2546,1.830
2547,1.830
2548,1.830
2549,1.830
2550,1.830
2551,1.820
2552,1.820
2553,1.825
2554,1.825
2555,1.825
2556,1.825
2557,1.810
2558,1.810
2559,1.820
2560,1.810
2561,1.810
2562,1.820
2563,1.820
2564,1.825
2565,1.810
2566,1.805
2567,1.805
2568,1.810
2569,1.810
2570,1.810
2571,1.820
2572,1.820
2573,1.810
2574,1.800
2575,1.805
2576,1.805
2577,1.805
2578,1.800
2579,1.810
2580,1.810
2581,1.810
2582,1.810
2583,1.805
2584,1.810
2585,1.805
2586,1.810
2587,1.810
2588,1.805
2589,1.810
2590,1.810
2591,1.810
2592,1.810
2593,1.810
2594,1.825
2595,1.825
2596,1.820
2597,1.830
2598,1.830
2599,1.830
2600,1.840
2601,1.835
2602,1.850
2603,1.860
2604,1.880
2605,1.890
2606,1.910
2607,1.925
2608,1.930
2609,1.910
2610,1.925
2611,1.960
2612,2.030
2613,2.050
2614,2.020
2615,2.000
2616,2.000
2617,1.990
2618,1.990
2619,1.970
2620,1.940
2621,1.910
2622,1.890
2623,1.870
2624,1.865
2625,1.860
2626,1.830
2627,1.820
2628,1.810
2629,1.805
2630,1.800
2631,1.795
2632,1.795
2633,1.790
2634,1.795
2635,1.795
2636,1.795
2637,1.790
2638,1.790
2639,1.795
2640,1.810
2641,1.830
2642,1.830
2643,1.835
2644,1.835
2645,1.820
2646,1.790
2647,1.760
2648,1.850
2649,2.110
2650,2.525
2651,3.070
2652,3.505
2653,3.635
2654,3.595
2655,3.565
2656,3.550
2657,3.500
2658,3.205
2659,2.180
2660,1.465
2661,1.660
2662,1.860
2663,1.945
2664,1.955
2665,1.900
2666,1.840
2667,1.805
2668,1.790
2669,1.770
2670,1.765
2671,1.770
2672,1.770
2673,1.765
2674,1.780
2675,1.790
2676,1.790
2677,1.805
2678,1.805
2679,1.805
2680,1.805
2681,1.805
2682,1.805
2683,1.800
2684,1.810
2685,1.820
2686,1.830
2687,1.840
2688,1.850
2689,1.855
2690,1.865
2691,1.880
2692,1.885
2693,1.895
2694,1.920
2695,1.925
2696,1.945
2697,1.955
2698,1.975
2699,1.985
2700,2.000
2701,2.010
2702,2.020
2703,2.045
2704,2.065
2705,2.075
2706,2.095
2707,2.110
2708,2.140
2709,2.155
2710,2.180
2711,2.200
2712,2.230
2713,2.260
2714,2.290
2715,2.310
2716,2.335
2717,2.345
2718,2.370
2719,2.395
2720,2.400
2721,2.430
2722,2.455
2723,2.465
2724,2.500
2725,2.520
2726,2.525
2727,2.540
2728,2.540
2729,2.515
2730,2.485
2731,2.450
2732,2.405
2733,2.360
2734,2.300
2735,2.245
2736,2.195
2737,2.155
2738,2.120
2739,2.075
2740,2.040
2741,2.020
2742,2.005
2743,1.985
2744,1.980
2745,1.975
2746,1.960
2747,1.955
2748,1.945
2749,1.940
2750,1.945
2751,1.945
2752,1.945
2753,1.945
2754,1.945
2755,1.940
2756,1.925
2757,1.915
2758,1.915
2759,1.915
2760,1.925
2761,1.925
2762,1.930
2763,1.925
2764,1.920
2765,1.925
2766,1.915
2767,1.915
2768,1.915
2769,1.900
2770,1.900
2771,1.915
2772,1.910
2773,1.910
2774,1.910
2775,1.900
2776,1.900
2777,1.900
2778,1.900
2779,1.890
2780,1.890
2781,1.885
2782,1.880
2783,1.880
2784,1.885
2785,1.880
2786,1.865
2787,1.880
2788,1.860
2789,1.860
2790,1.865
2791,1.855
2792,1.835
2793,1.830
2794,1.835
2795,1.830
2796,1.825
2797,1.810
2798,1.820
2799,1.820
2800,1.810
2801,1.805
2802,1.795
2803,1.795
2804,1.805
2805,1.805
2806,1.805
2807,1.795
2808,1.795
2809,1.795
2810,1.790
2811,1.780
2812,1.780
2813,1.780
2814,1.780
2815,1.790
2816,1.790
2817,1.790
2818,1.780
2819,1.790
2820,1.795
2821,1.790
2822,1.780
2823,1.780
2824,1.790
2825,1.775
2826,1.780
2827,1.775
2828,1.790
2829,1.790
2830,1.780
2831,1.790
2832,1.790
2833,1.780
2834,1.790
2835,1.795
2836,1.780
2837,1.790
2838,1.800
2839,1.795
2840,1.790
2841,1.790
2842,1.795
2843,1.800
2844,1.805
2845,1.800
2846,1.795
2847,1.795
2848,1.795
2849,1.795
2850,1.805
2851,1.805
2852,1.825
2853,1.840
2854,1.850
2855,1.860
2856,1.885
2857,1.860
2858,1.840
2859,1.870
2860,1.920
2861,1.985
2862,1.980
2863,1.945
2864,1.925
2865,1.940
2866,1.940
2867,1.925
2868,1.900
2869,1.870
2870,1.860
2871,1.835
2872,1.825
2873,1.820
2874,1.805
2875,1.795
2876,1.780
2877,1.770
2878,1.765
2879,1.750
2880,1.745
2881,1.745
2882,1.740
2883,1.745
2884,1.750
2885,1.740
2886,1.745
2887,1.750
2888,1.765
2889,1.770
2890,1.770
2891,1.775
2892,1.790
2893,1.795
2894,1.780
2895,1.745
2896,1.735
2897,1.855
2898,2.150
2899,2.605
2900,3.130
2901,3.515
2902,3.575
2903,3.545
2904,3.535
2905,3.500
2906,3.415
2907,2.860
2908,1.685
2909,1.420
2910,1.700
2911,1.830
2912,1.885
2913,1.870
2914,1.830
2915,1.805
2916,1.765
2917,1.740
2918,1.720
2919,1.715
2920,1.730
2921,1.735
2922,1.740
2923,1.740
2924,1.750
2925,1.745
2926,1.760
2927,1.765
2928,1.765
2929,1.765
2930,1.760
2931,1.770
2932,1.765
2933,1.780
2934,1.790
2935,1.795
2936,1.810
2937,1.810
2938,1.830
2939,1.835
2940,1.840
2941,1.855
2942,1.885
2943,1.900
2944,1.900
2945,1.920
2946,1.945
2947,1.960
2948,1.980
2949,1.985
2950,2.005
2951,2.020
2952,2.045
2953,2.060
2954,2.080
2955,2.105
2956,2.125
2957,2.135
2958,2.165
2959,2.195
2960,2.220
2961,2.250
2962,2.275
2963,2.290
2964,2.305
2965,2.330
2966,2.360
2967,2.390
2968,2.405
2969,2.410
2970,2.440
2971,2.485
2972,2.495
2973,2.500
2974,2.525
2975,2.530
2976,2.525
2977,2.510
2978,2.480
2979,2.440
2980,2.395
2981,2.340
2982,2.285
2983,2.240
2984,2.190
2985,2.120
2986,2.075
2987,2.045
2988,2.030
2989,2.010
2990,1.985
2991,1.975
2992,1.955
2993,1.930
2994,1.910
2995,1.910
2996,1.910
2997,1.895
2998,1.900
2999,1.890
3000,1.885
3001,1.885
3002,1.880
3003,1.870
3004,1.880
3005,1.860
3006,1.860
3007,1.855
3008,1.850
3009,1.840
3010,1.850
3011,1.855
3012,1.850
3013,1.850
3014,1.850
3015,1.860
3016,1.850
3017,1.835
3018,1.850
3019,1.850
3020,1.840
3021,1.835
3022,1.830
3023,1.830
3024,1.825
3025,1.830
3026,1.830
3027,1.830
3028,1.820
3029,1.810
3030,1.820
3031,1.820
3032,1.810
3033,1.805
3034,1.790
3035,1.790
3036,1.770
3037,1.780
3038,1.780
3039,1.770
3040,1.765
3041,1.750
3042,1.745
3043,1.750
3044,1.750
3045,1.740
3046,1.735
3047,1.745
3048,1.740
3049,1.740
3050,1.740
3051,1.735
3052,1.730
3053,1.745
3054,1.735
3055,1.735
3056,1.720
3057,1.720
3058,1.720
3059,1.735
3060,1.735
3061,1.735
3062,1.720
3063,1.720
3064,1.735
3065,1.715
3066,1.720
3067,1.730
3068,1.730
3069,1.735
3070,1.730
3071,1.735
3072,1.740
3073,1.715
3074,1.730
3075,1.730
3076,1.730
3077,1.735
3078,1.735
3079,1.735
3080,1.740
3081,1.735
3082,1.740
3083,1.740
3084,1.740
3085,1.740
3086,1.745
3087,1.750
3088,1.765
3089,1.760
3090,1.750
3091,1.760
3092,1.750
3093,1.740
3094,1.750
3095,1.750
3096,1.775
3097,1.790
3098,1.805
3099,1.805
3100,1.825
3101,1.820
3102,1.810
3103,1.830
3104,1.885
3105,1.925
3106,1.925
3107,1.900
3108,1.885
3109,1.890
3110,1.890
3111,1.880
3112,1.860
3113,1.830
3114,1.810
3115,1.780
3116,1.775
3117,1.770
3118,1.750
3119,1.745
3120,1.740
3121,1.730
3122,1.730
3123,1.730
3124,1.735
3125,1.720
3126,1.720
3127,1.710
3128,1.710
3129,1.710
3130,1.710
3131,1.715
3132,1.720
3133,1.715
3134,1.730
3135,1.745
3136,1.745
3137,1.740
3138,1.720
3139,1.710
3140,1.750
3141,1.940
3142,2.275
3143,2.810
3144,3.355
3145,3.630
3146,3.625
3147,3.595
3148,3.575
3149,3.515
3150,3.270
3151,2.290
3152,1.390
3153,1.430
3154,1.660
3155,1.790
3156,1.835
3157,1.810
3158,1.770
3159,1.740
3160,1.720
3161,1.715
3162,1.710
3163,1.710
3164,1.715
3165,1.720
3166,1.715
3167,1.715
3168,1.730
3169,1.735
3170,1.735
3171,1.740
3172,1.735
3173,1.750
3174,1.765
3175,1.765
3176,1.760
3177,1.765
3178,1.770
3179,1.780
3180,1.805
3181,1.795
3182,1.805
3183,1.820
3184,1.835
3185,1.850
3186,1.860
3187,1.870
3188,1.885
3189,1.900
3190,1.915
3191,1.920
3192,1.945
3193,1.955
3194,1.985
3195,2.015
3196,2.035
3197,2.045
3198,2.060
3199,2.075
3200,2.110
3201,2.125
3202,2.140
3203,2.170
3204,2.195
3205,2.225
3206,2.230
3207,2.275
3208,2.300
3209,2.330
3210,2.345
3211,2.360
3212,2.375
3213,2.380
3214,2.395
3215,2.405
3216,2.410
3217,2.430
3218,2.435
3219,2.440
3220,2.440
3221,2.410
3222,2.380
3223,2.340
3224,2.290
3225,2.250
3226,2.200
3227,2.155
3228,2.125
3229,2.075
3230,2.035
3231,2.000
3232,1.980
3233,1.970
3234,1.950
3235,1.930
3236,1.920
3237,1.900
3238,1.885
3239,1.870
3240,1.860
3241,1.860
3242,1.865
3243,1.865
3244,1.855
3245,1.835
3246,1.850
3247,1.860
3248,1.855
3249,1.855
3250,1.860
3251,1.860
3252,1.855
3253,1.855
3254,1.855
3255,1.840
3256,1.850
3257,1.850
3258,1.850
3259,1.850
3260,1.850
3261,1.850
3262,1.850
3263,1.840
3264,1.840
3265,1.840
3266,1.850
3267,1.850
3268,1.850
3269,1.855
3270,1.850
3271,1.855
3272,1.850
3273,1.830
3274,1.830
3275,1.830
3276,1.825
3277,1.820
3278,1.820
3279,1.820
3280,1.805
3281,1.795
3282,1.795
3283,1.800
3284,1.780
3285,1.770
3286,1.770
3287,1.770
3288,1.780
3289,1.780
3290,1.770
3291,1.760
3292,1.745
3293,1.750
3294,1.750
3295,1.745
3296,1.745
3297,1.745
3298,1.745
3299,1.745
3300,1.740
3301,1.740
3302,1.745
3303,1.735
3304,1.735
3305,1.735
3306,1.740
3307,1.735
3308,1.740
3309,1.740
3310,1.740
3311,1.745
3312,1.740
3313,1.735
3314,1.740
3315,1.735
3316,1.750
3317,1.760
3318,1.765
3319,1.750
3320,1.760
3321,1.760
3322,1.745
3323,1.760
3324,1.760
3325,1.760
3326,1.750
3327,1.760
3328,1.765
3329,1.760
3330,1.760
3331,1.750
3332,1.765
3333,1.765
3334,1.770
3335,1.770
3336,1.780
3337,1.780
3338,1.795
3339,1.800
3340,1.810
3341,1.810
3342,1.820
3343,1.855
3344,1.850
3345,1.835
3346,1.860
3347,1.890
3348,1.945
3349,1.945
3350,1.920
3351,1.910
3352,1.910
3353,1.900
3354,1.900
3355,1.880
3356,1.850
3357,1.840
3358,1.800
3359,1.775
3360,1.775
3361,1.765
3362,1.765
3363,1.760
3364,1.750
3365,1.735
3366,1.730
3367,1.720
3368,1.730
3369,1.720
3370,1.720
3371,1.720
3372,1.730
3373,1.730
3374,1.730
3375,1.735
3376,1.740
3377,1.745
3378,1.760
3379,1.760
3380,1.765
3381,1.740
3382,1.710
3383,1.735
3384,1.910
3385,2.215
3386,2.675
3387,3.235
3388,3.545
3389,3.590
3390,3.560
3391,3.540
3392,3.510
3393,3.350
3394,2.600
3395,1.505
3396,1.435
3397,1.690
3398,1.825
3399,1.880
3400,1.865
3401,1.810
3402,1.790
3403,1.750
3404,1.740
3405,1.735
3406,1.735
3407,1.745
3408,1.745
3409,1.760
3410,1.745
3411,1.765
3412,1.760
3413,1.765
3414,1.765
3415,1.765
3416,1.775
3417,1.790
3418,1.800
3419,1.800
3420,1.820
3421,1.820
3422,1.820
3423,1.830
3424,1.850
3425,1.860
3426,1.865
3427,1.870
3428,1.880
3429,1.885
3430,1.910
3431,1.915
3432,1.930
3433,1.955
3434,1.980
3435,2.000
3436,2.010
3437,2.030
3438,2.050
3439,2.070
3440,2.090
3441,2.105
3442,2.125
3443,2.150
3444,2.165
3445,2.215
3446,2.230
3447,2.250
3448,2.280
3449,2.305
3450,2.335
3451,2.335
3452,2.365
3453,2.395
3454,2.410
3455,2.425
3456,2.450
3457,2.460
3458,2.490
3459,2.490
3460,2.510
3461,2.520
3462,2.515
3463,2.515
3464,2.490
3465,2.460
3466,2.425
3467,2.365
3468,2.315
3469,2.260
3470,2.215
3471,2.165
3472,2.135
3473,2.095
3474,2.045
3475,2.020
3476,2.000
3477,1.980
3478,1.975
3479,1.975
3480,1.960
3481,1.975
3482,1.955
3483,1.955
3484,1.945
3485,1.940
3486,1.940
3487,1.940
3488,1.930
3489,1.940
3490,1.930
3491,1.920
3492,1.915
3493,1.940
3494,1.930
3495,1.920
3496,1.920
3497,1.910
3498,1.915
3499,1.920
3500,1.910
3501,1.900
3502,1.915
3503,1.910
3504,1.920
3505,1.900
3506,1.910
3507,1.900
3508,1.910
3509,1.910
3510,1.900
3511,1.895
3512,1.900
3513,1.885
3514,1.890
3515,1.885
3516,1.880
3517,1.885
3518,1.885
3519,1.880
3520,1.880
3521,1.865
3522,1.865
3523,1.860
3524,1.860
3525,1.860
3526,1.855
3527,1.855
3528,1.850
3529,1.835
3530,1.835
3531,1.835
3532,1.835
3533,1.840
3534,1.830
3535,1.820
3536,1.825
3537,1.810
3538,1.810
3539,1.805
3540,1.805
3541,1.805
3542,1.800
3543,1.810
3544,1.805
3545,1.805
3546,1.805
3547,1.795
3548,1.805
3549,1.805
3550,1.810
3551,1.800
3552,1.810
3553,1.800
3554,1.810
3555,1.810
3556,1.805
3557,1.805
3558,1.805
3559,1.810
3560,1.810
3561,1.810
3562,1.810
3563,1.810
3564,1.820
3565,1.825
3566,1.825
3567,1.820
3568,1.825
3569,1.810
3570,1.825
3571,1.825
3572,1.840
3573,1.835
3574,1.840
3575,1.835
3576,1.840
3577,1.840
3578,1.850
3579,1.855
3580,1.860
3581,1.855
3582,1.860
3583,1.860
3584,1.865
3585,1.880
3586,1.890
3587,1.895
3588,1.920
3589,1.925
3590,1.915
3591,1.930
3592,1.955
3593,2.020
3594,2.045
3595,2.020
3596,2.000
3597,1.990
3598,1.985
3599,1.985
3600,1.970
3601,1.940
3602,1.925
3603,1.900
3604,1.885
3605,1.890
3606,1.880
3607,1.865
3608,1.850
3609,1.835
3610,1.840
3611,1.840
3612,1.835
3613,1.830
3614,1.830
3615,1.825
3616,1.830
3617,1.830
3618,1.830
3619,1.830
3620,1.840
3621,1.840
3622,1.835
3623,1.850
3624,1.860
3625,1.870
3626,1.850
3627,1.810
3628,1.790
3629,1.865
3630,2.125
3631,2.510
3632,3.025
3633,3.515
3634,3.715
3635,3.685
3636,3.660
3637,3.655
3638,3.620
3639,3.380
3640,2.420
3641,1.555
3642,1.670
3643,1.880
3644,1.970
3645,2.015
3646,1.985
3647,1.925
3648,1.890
3649,1.855
3650,1.855
3651,1.835
3652,1.830
3653,1.835
3654,1.830
3655,1.835
3656,1.835
3657,1.840
3658,1.850
3659,1.855
3660,1.855
3661,1.860
3662,1.865
3663,1.865
3664,1.870
3665,1.880
3666,1.880
3667,1.885
3668,1.890
3669,1.890
3670,1.900
3671,1.920
3672,1.930
3673,1.940
3674,1.950
3675,1.955
3676,1.980
3677,2.000
3678,2.005
3679,2.020
3680,2.040
3681,2.050
3682,2.070
3683,2.090
3684,2.100
3685,2.125
3686,2.135
3687,2.150
3688,2.170
3689,2.190
3690,2.220
3691,2.240
3692,2.255
3693,2.285
3694,2.320
3695,2.345
3696,2.360
3697,2.395
3698,2.410
3699,2.425
3700,2.435
3701,2.460
3702,2.490
3703,2.510
3704,2.515
3705,2.520
3706,2.550
3707,2.560
3708,2.590
3709,2.600
3710,2.585
3711,2.560
3712,2.540
3713,2.500
3714,2.460
3715,2.405
3716,2.345
3717,2.300
3718,2.260
3719,2.215
3720,2.170
3721,2.130
3722,2.095
3723,2.060
3724,2.040
3725,2.020
3726,2.010
3727,2.010
3728,2.005
3729,2.000
3730,2.000
3731,1.985
3732,1.980
3733,1.975
3734,1.975
3735,1.975
3736,1.960
3737,1.955
3738,1.960
3739,1.950
3740,1.950
3741,1.950
3742,1.945
3743,1.945
3744,1.950
3745,1.955
3746,1.940
3747,1.940
3748,1.945
3749,1.945
3750,1.945
3751,1.940
3752,1.945
3753,1.930
3754,1.945
3755,1.940
3756,1.940
3757,1.940
3758,1.940
3759,1.940
3760,1.925
3761,1.925
3762,1.925
3763,1.920
3764,1.915
3765,1.915
3766,1.915
3767,1.910
3768,1.910
3769,1.900
3770,1.885
3771,1.880
3772,1.880
3773,1.880
3774,1.880
3775,1.880
3776,1.865
3777,1.850
3778,1.855
3779,1.855
3780,1.850
3781,1.835
3782,1.835
3783,1.840
3784,1.835
3785,1.835
3786,1.835
3787,1.835
3788,1.830
3789,1.835
3790,1.830
3791,1.830
3792,1.825
3793,1.820
3794,1.830
3795,1.830
3796,1.830
3797,1.820
3798,1.820
3799,1.820
3800,1.825
3801,1.825
3802,1.830
3803,1.830
3804,1.820
3805,1.830
3806,1.830
3807,1.820
3808,1.820
3809,1.820
3810,1.820
3811,1.830
3812,1.830
3813,1.830
3814,1.835
3815,1.830
3816,1.820
3817,1.835
3818,1.840
3819,1.850
3820,1.850
3821,1.855
3822,1.855
3823,1.855
3824,1.855
3825,1.850
3826,1.850
3827,1.855
3828,1.850
3829,1.850
3830,1.855
3831,1.850
3832,1.855
3833,1.860
3834,1.860
3835,1.880
3836,1.895
3837,1.910
3838,1.920
3839,1.945
3840,1.945
3841,1.915
3842,1.920
3843,1.950
3844,2.030
3845,2.045
3846,2.020
3847,2.010
3848,2.000
3849,2.000
3850,1.980
3851,1.955
3852,1.930
3853,1.910
3854,1.890
3855,1.865
3856,1.865
3857,1.865
3858,1.850
3859,1.830
3860,1.825
3861,1.810
3862,1.820
3863,1.805
3864,1.800
3865,1.805
3866,1.805
3867,1.810
3868,1.810
3869,1.820
3870,1.810
3871,1.820
3872,1.830
3873,1.835
3874,1.850
3875,1.855
3876,1.860
3877,1.835
3878,1.800
3879,1.770
3880,1.885
3881,2.190
3882,2.660
3883,3.235
3884,3.610
3885,3.670
3886,3.630
3887,3.620
3888,3.590
3889,3.520
3890,3.115
3891,1.930
3892,1.465
3893,1.705
3894,1.865
3895,1.940
3896,1.930
3897,1.885
3898,1.835
3899,1.795
3900,1.775
3901,1.780
3902,1.775
3903,1.770
3904,1.775
3905,1.775
3906,1.780
3907,1.770
3908,1.790
3909,1.790
3910,1.795
3911,1.805
3912,1.800
3913,1.805
3914,1.805
3915,1.820
3916,1.820
3917,1.830
3918,1.835
3919,1.835
3920,1.860
3921,1.870
3922,1.890
3923,1.890
3924,1.900
3925,1.910
3926,1.925
3927,1.940
3928,1.945
3929,1.970
3930,1.985
3931,2.015
3932,2.030
3933,2.035
3934,2.045
3935,2.070
3936,2.075
3937,2.100
3938,2.125
3939,2.150
3940,2.170
3941,2.195
3942,2.220
3943,2.245
3944,2.270
3945,2.285
3946,2.310
3947,2.335
3948,2.365
3949,2.375
3950,2.400
3951,2.420
3952,2.435
3953,2.435
3954,2.460
3955,2.500
3956,2.520
3957,2.540
3958,2.540
3959,2.525
3960,2.510
3961,2.465
3962,2.420
3963,2.370
3964,2.335
3965,2.285
3966,2.230
3967,2.185
3968,2.135
3969,2.095
3970,2.050
3971,2.010
3972,2.000
3973,1.980
3974,1.955
3975,1.940
3976,1.930
3977,1.925
3978,1.910
3979,1.900
3980,1.900
3981,1.890
3982,1.880
3983,1.880
3984,1.890
3985,1.880
3986,1.880
3987,1.870
3988,1.880
3989,1.890
3990,1.880
3991,1.870
3992,1.880
3993,1.870
3994,1.880
3995,1.870
3996,1.865
3997,1.880
3998,1.865
3999,1.870
4000,1.870
4001,1.880
4002,1.880
4003,1.880
4004,1.880
4005,1.880
4006,1.865
4007,1.860
4008,1.860
4009,1.855
4010,1.855
4011,1.855
4012,1.855
4013,1.855
4014,1.850
4015,1.850
4016,1.830
4017,1.830
4018,1.825
4019,1.820
4020,1.810
4021,1.805
4022,1.805
4023,1.805
4024,1.800
4025,1.790
4026,1.780
4027,1.790
4028,1.795
4029,1.790
4030,1.795
4031,1.790
4032,1.775
4033,1.765
4034,1.760
4035,1.765
4036,1.750
4037,1.760
4038,1.765
4039,1.770
4040,1.765
4041,1.760
4042,1.760
4043,1.770
4044,1.750
4045,1.765
4046,1.750
4047,1.750
4048,1.765
4049,1.790
4050,1.780
4051,1.765
4052,1.765
4053,1.770
4054,1.770
4055,1.775
4056,1.780
4057,1.780
4058,1.775
4059,1.770
4060,1.775
4061,1.775
4062,1.780
4063,1.780
4064,1.790
4065,1.790
4066,1.795
4067,1.790
4068,1.790
4069,1.790
4070,1.805
4071,1.795
4072,1.805
4073,1.790
4074,1.800
4075,1.795
4076,1.805
4077,1.805
4078,1.805
4079,1.805
4080,1.810
4081,1.830
4082,1.840
4083,1.850
4084,1.860
4085,1.880
4086,1.885
4087,1.880
4088,1.895
4089,1.915
4090,1.980
4091,1.985
4092,1.960
4093,1.940
4094,1.945
4095,1.950
4096,1.945
4097,1.930
4098,1.900
4099,1.885
4100,1.860
4101,1.830
4102,1.850
4103,1.840
4104,1.820
4105,1.790
4106,1.790
4107,1.780
4108,1.790
4109,1.790
4110,1.770
4111,1.770
4112,1.780
4113,1.790
4114,1.795
4115,1.795
4116,1.805
4117,1.780
4118,1.780
4119,1.795
4120,1.810
4121,1.825
4122,1.840
4123,1.830
4124,1.805
4125,1.790
4126,1.830
4127,2.020
4128,2.370
4129,2.905
4130,3.420
4131,3.660
4132,3.660
4133,3.640
4134,3.630
4135,3.590
4136,3.400
4137,2.550
4138,1.525
4139,1.445
4140,1.675
4141,1.830
4142,1.885
4143,1.880
4144,1.835
4145,1.800
4146,1.780
4147,1.760
4148,1.750
4149,1.740
4150,1.745
4151,1.765
4152,1.770
4153,1.770
4154,1.770
4155,1.780
4156,1.790
4157,1.790
4158,1.780
4159,1.780
4160,1.805
4161,1.810
4162,1.820
4163,1.820
4164,1.835
4165,1.835
4166,1.850
4167,1.855
4168,1.870
4169,1.885
4170,1.900
4171,1.900
4172,1.920
4173,1.930
4174,1.940
4175,1.940
4176,1.970
4177,1.985
4178,2.000
4179,2.015
4180,2.040
4181,2.045
4182,2.060
4183,2.080
4184,2.105
4185,2.130
4186,2.155
4187,2.180
4188,2.215
4189,2.230
4190,2.260
4191,2.280
4192,2.305
4193,2.320
4194,2.350
4195,2.370
4196,2.400
4197,2.420
4198,2.430
4199,2.455
4200,2.460
4201,2.465
4202,2.485
4203,2.495
4204,2.515
4205,2.515
4206,2.515
4207,2.495
4208,2.470
4209,2.460
4210,2.425
4211,2.365
4212,2.315
4213,2.275
4214,2.225
4215,2.180
4216,2.135
4217,2.075
4218,2.045
4219,2.005
4220,1.975
4221,1.945
4222,1.945
4223,1.930
4224,1.920
4225,1.900
4226,1.900
4227,1.890
4228,1.885
4229,1.880
4230,1.880
4231,1.880
4232,1.870
4233,1.860
4234,1.865
4235,1.865
4236,1.880
4237,1.870
4238,1.865
4239,1.865
4240,1.870
4241,1.880
4242,1.885
4243,1.885
4244,1.885
4245,1.880
4246,1.880
4247,1.885
4248,1.880
4249,1.870
4250,1.865
4251,1.865
4252,1.865
4253,1.860
4254,1.860
4255,1.860
4256,1.855
4257,1.855
4258,1.855
4259,1.840
4260,1.840
4261,1.840
4262,1.840
4263,1.835
4264,1.835
4265,1.825
4266,1.830
4267,1.820
4268,1.810
4269,1.810
4270,1.805
4271,1.800
4272,1.790
4273,1.780
4274,1.770
4275,1.775
4276,1.775
4277,1.770
4278,1.770
4279,1.770
4280,1.775
4281,1.765
4282,1.750
4283,1.745
4284,1.750
4285,1.740
4286,1.740
4287,1.745
4288,1.745
4289,1.745
4290,1.745
4291,1.745
4292,1.750
4293,1.740
4294,1.745
4295,1.745
4296,1.750
4297,1.750
4298,1.750
4299,1.750
4300,1.760
4301,1.770
4302,1.750
4303,1.745
4304,1.750
4305,1.760
4306,1.770
4307,1.770
4308,1.770
4309,1.765
4310,1.770
4311,1.770
4312,1.765
4313,1.765
4314,1.770
4315,1.770
4316,1.770
4317,1.790
4318,1.805
4319,1.790
4320,1.780
4321,1.780
4322,1.780
4323,1.780
4324,1.800
4325,1.805
4326,1.795
4327,1.795
4328,1.805
4329,1.810
4330,1.830
4331,1.850
4332,1.855
4333,1.880
4334,1.870
4335,1.855
4336,1.870
4337,1.925
4338,1.990
4339,2.000
4340,1.970
4341,1.945
4342,1.950
4343,1.955
4344,1.945
4345,1.925
4346,1.900
4347,1.880
4348,1.855
4349,1.830
4350,1.835
4351,1.825
4352,1.810
4353,1.800
4354,1.795
4355,1.790
4356,1.790
4357,1.765
4358,1.775
4359,1.770
4360,1.775
4361,1.765
4362,1.775
4363,1.775
4364,1.775
4365,1.780
4366,1.775
4367,1.790
4368,1.805
4369,1.805
4370,1.820
4371,1.805
4372,1.770
4373,1.750
4374,1.865
4375,2.125
4376,2.545
4377,3.090
4378,3.535
4379,3.660
4380,3.625
4381,3.595
4382,3.565
4383,3.500
4384,3.160
4385,2.075
4386,1.400
4387,1.600
4388,1.810
4389,1.890
4390,1.900
4391,1.860
4392,1.830
4393,1.790
4394,1.770
4395,1.760
4396,1.765
4397,1.770
4398,1.780
4399,1.775
4400,1.765
4401,1.765
4402,1.775
4403,1.780
4404,1.790
4405,1.790
4406,1.795
4407,1.795
4408,1.810
4409,1.810
4410,1.820
4411,1.820
4412,1.825
4413,1.830
4414,1.840
4415,1.855
4416,1.865
4417,1.880
4418,1.885
4419,1.895
4420,1.910
4421,1.915
4422,1.930
4423,1.950
4424,1.975
4425,1.985
4426,2.005
4427,2.015
4428,2.045
4429,2.060
4430,2.075
4431,2.105
4432,2.125
4433,2.140
4434,2.170
4435,2.195
4436,2.210
4437,2.250
4438,2.275
4439,2.290
4440,2.315
4441,2.335
4442,2.360
4443,2.370
4444,2.405
4445,2.430
4446,2.460
4447,2.465
4448,2.470
4449,2.485
4450,2.515
4451,2.525
4452,2.530
4453,2.540
4454,2.520
4455,2.510
4456,2.450
4457,2.390
4458,2.360
4459,2.305
4460,2.255
4461,2.200
4462,2.160
4463,2.120
4464,2.075
4465,2.035
4466,2.010
4467,2.000
4468,1.975
4469,1.955
4470,1.960
4471,1.955
4472,1.945
4473,1.925
4474,1.925
4475,1.925
4476,1.920
4477,1.910
4478,1.910
4479,1.900
4480,1.900
4481,1.900
4482,1.900
4483,1.895
4484,1.885
4485,1.885
4486,1.890
4487,1.890
4488,1.895
4489,1.885
4490,1.900
4491,1.890
4492,1.900
4493,1.890
4494,1.900
4495,1.890
4496,1.890
4497,1.890
4498,1.890
4499,1.885
4500,1.870
4501,1.890
4502,1.890
4503,1.890
4504,1.890
4505,1.880
4506,1.880
4507,1.865
4508,1.860
4509,1.860
4510,1.865
4511,1.860
4512,1.855
4513,1.850
4514,1.850
4515,1.840
4516,1.850
4517,1.835
4518,1.840
4519,1.830
4520,1.820
4521,1.805
4522,1.805
4523,1.795
4524,1.800
4525,1.795
4526,1.795
4527,1.790
4528,1.790
4529,1.790
4530,1.780
4531,1.780
4532,1.780
4533,1.780
4534,1.780
4535,1.780
4536,1.780
4537,1.765
4538,1.765
4539,1.765
4540,1.775
4541,1.780
4542,1.780
4543,1.770
4544,1.790
4545,1.790
4546,1.770
4547,1.770
4548,1.775
4549,1.775
4550,1.770
4551,1.775
4552,1.775
4553,1.765
4554,1.780
4555,1.775
4556,1.770
4557,1.770
4558,1.775
4559,1.770
4560,1.780
4561,1.790
4562,1.790
4563,1.780
4564,1.790
4565,1.780
4566,1.780
4567,1.790
4568,1.780
4569,1.790
4570,1.800
4571,1.790
4572,1.795
4573,1.790
4574,1.800
4575,1.805
4576,1.800
4577,1.805
4578,1.830
4579,1.840
4580,1.860
4581,1.870
4582,1.865
4583,1.860
4584,1.865
4585,1.890
4586,1.950
4587,2.000
4588,1.980
4589,1.945
4590,1.940
4591,1.930
4592,1.925
4593,1.910
4594,1.900
4595,1.885
4596,1.860
4597,1.840
4598,1.820
4599,1.835
4600,1.825
4601,1.805
4602,1.795
4603,1.790
4604,1.780
4605,1.770
4606,1.780
4607,1.780
4608,1.775
4609,1.765
4610,1.770
4611,1.770
4612,1.770
4613,1.765
4614,1.770
4615,1.790
4616,1.790
4617,1.805
4618,1.805
4619,1.810
4620,1.795
4621,1.740
4622,1.735
4623,1.860
4624,2.150
4625,2.600
4626,3.130
4627,3.540
4628,3.635
4629,3.590
4630,3.580
4631,3.560
4632,3.480
4633,3.040
4634,1.895
4635,1.430
4636,1.685
4637,1.830
4638,1.915
4639,1.895
4640,1.860
4641,1.810
4642,1.765
4643,1.745
4644,1.740
4645,1.740
4646,1.745
4647,1.750
4648,1.750
4649,1.760
4650,1.750
4651,1.760
4652,1.765
4653,1.760
4654,1.770
4655,1.770
4656,1.780
4657,1.795
4658,1.805
4659,1.800
4660,1.805
4661,1.810
4662,1.820
4663,1.825
4664,1.820
4665,1.835
4666,1.855
4667,1.855
4668,1.870
4669,1.885
4670,1.895
4671,1.915
4672,1.930
4673,1.950
4674,1.960
4675,1.980
4676,2.000
4677,2.005
4678,2.020
4679,2.050
4680,2.065
4681,2.080
4682,2.105
4683,2.135
4684,2.170
4685,2.200
4686,2.215
4687,2.250
4688,2.285
4689,2.310
4690,2.335
4691,2.360
4692,2.375
4693,2.405
4694,2.425
4695,2.440
4696,2.460
4697,2.500
4698,2.525
4699,2.540
4700,2.550
4701,2.555
4702,2.570
4703,2.555
4704,2.530
4705,2.490
4706,2.455
4707,2.395
4708,2.330
4709,2.270
4710,2.220
4711,2.180
4712,2.135
4713,2.090
4714,2.050
4715,2.015
4716,1.985
4717,1.960
4718,1.955
4719,1.940
4720,1.930
4721,1.940
4722,1.925
4723,1.910
4724,1.900
4725,1.900
4726,1.900
4727,1.890
4728,1.885
4729,1.880
4730,1.880
4731,1.870
4732,1.865
4733,1.865
4734,1.865
4735,1.860
4736,1.860
4737,1.860
4738,1.860
4739,1.860
4740,1.860
4741,1.865
4742,1.860
4743,1.860
4744,1.865
4745,1.865
4746,1.865
4747,1.860
4748,1.855
4749,1.850
4750,1.840
4751,1.855
4752,1.840
4753,1.830
4754,1.830
4755,1.830
4756,1.830
4757,1.830
4758,1.820
4759,1.810
4760,1.810
4761,1.800
4762,1.805
4763,1.795
4764,1.805
4765,1.795
4766,1.795
4767,1.790
4768,1.775
4769,1.770
4770,1.770
4771,1.770
4772,1.765
4773,1.770
4774,1.775
4775,1.770
4776,1.765
4777,1.750
4778,1.765
4779,1.750
4780,1.745
4781,1.750
4782,1.760
4783,1.760
4784,1.750
4785,1.750
4786,1.750
4787,1.750
4788,1.745
4789,1.745
4790,1.745
4791,1.745
4792,1.745
4793,1.740
4794,1.745
4795,1.745
4796,1.745
4797,1.740
4798,1.745
4799,1.760
4800,1.750
4801,1.750
4802,1.750
4803,1.765
4804,1.750
4805,1.760
4806,1.760
4807,1.760
4808,1.770
4809,1.765
4810,1.770
4811,1.765
4812,1.765
4813,1.765
4814,1.770
4815,1.770
4816,1.775
4817,1.770
4818,1.770
4819,1.775
4820,1.775
4821,1.770
4822,1.770
4823,1.770
4824,1.775
4825,1.780
4826,1.790
4827,1.790
4828,1.805
4829,1.795
4830,1.805
4831,1.805
4832,1.825
4833,1.825
4834,1.850
4835,1.865
4836,1.850
4837,1.835
4838,1.880
4839,1.940
4840,1.980
4841,1.955
4842,1.915
4843,1.915
4844,1.920
4845,1.910
4846,1.910
4847,1.880
4848,1.860
4849,1.835
4850,1.810
4851,1.795
4852,1.810
4853,1.790
4854,1.765
4855,1.750
4856,1.750
4857,1.745
4858,1.750
4859,1.745
4860,1.740
4861,1.745
4862,1.740
4863,1.735
4864,1.740
4865,1.735
4866,1.740
4867,1.740
4868,1.760
4869,1.760
4870,1.765
4871,1.770
4872,1.790
4873,1.780
4874,1.750
4875,1.700
4876,1.750
4877,1.980
4878,2.365
4879,2.885
4880,3.395
4881,3.605
4882,3.595
4883,3.565
4884,3.540
4885,3.500
4886,3.260
4887,2.270
4888,1.400
4889,1.495
4890,1.720
4891,1.820
4892,1.870
4893,1.855
4894,1.800
4895,1.765
4896,1.735
4897,1.715
4898,1.710
4899,1.735
4900,1.740
4901,1.740
4902,1.735
4903,1.735
4904,1.740
4905,1.735
4906,1.750
4907,1.750
4908,1.765
4909,1.770
4910,1.770
4911,1.770
4912,1.780
4913,1.790
4914,1.800
4915,1.805
4916,1.810
4917,1.830
4918,1.850
4919,1.855
4920,1.870
4921,1.865
4922,1.885
4923,1.890
4924,1.900
4925,1.920
4926,1.940
4927,1.960
4928,1.980
4929,2.000
4930,2.020
4931,2.045
4932,2.060
4933,2.075
4934,2.100
4935,2.120
4936,2.140
4937,2.165
4938,2.190
4939,2.215
4940,2.250
4941,2.270
4942,2.300
4943,2.335
4944,2.350
4945,2.365
4946,2.380
4947,2.410
4948,2.435
4949,2.455
4950,2.460
4951,2.465
4952,2.485
4953,2.510
4954,2.530
4955,2.525
4956,2.520
4957,2.500
4958,2.465
4959,2.425
4960,2.360
4961,2.310
4962,2.250
4963,2.185
4964,2.140
4965,2.090
4966,2.050
4967,2.030
4968,2.000
4969,1.970
4970,1.955
4971,1.930
4972,1.920
4973,1.900
4974,1.900
4975,1.890
4976,1.885
4977,1.880
4978,1.870
4979,1.865
4980,1.855
4981,1.855
4982,1.855
4983,1.840
4984,1.850
4985,1.835
4986,1.830
4987,1.830
4988,1.820
4989,1.810
4990,1.820
4991,1.825
4992,1.830
4993,1.830
4994,1.840
4995,1.835
4996,1.835
4997,1.835
4998,1.835
4999,1.835
5000,1.825
5001,1.830
5002,1.825
5003,1.820
5004,1.825
5005,1.820
5006,1.825
5007,1.820
5008,1.825
5009,1.820
5010,1.820
5011,1.805
5012,1.800
5013,1.780
5014,1.770
5015,1.790
5016,1.775
5017,1.775
5018,1.780
5019,1.780
5020,1.765
5021,1.760
5022,1.760
5023,1.750
5024,1.750
5025,1.745
5026,1.745
5027,1.745
5028,1.745
5029,1.740
5030,1.735
5031,1.745
5032,1.745
5033,1.745
5034,1.745
5035,1.745
5036,1.745
5037,1.740
5038,1.740
5039,1.745
5040,1.740
5041,1.735
5042,1.735
5043,1.735
5044,1.740
5045,1.740
5046,1.745
5047,1.745
5048,1.740
5049,1.740
5050,1.745
5051,1.745
5052,1.745
5053,1.745
5054,1.740
5055,1.745
5056,1.750
5057,1.750
5058,1.745
5059,1.740
5060,1.750
5061,1.750
5062,1.765
5063,1.770
5064,1.775
5065,1.770
5066,1.770
5067,1.780
5068,1.775
5069,1.775
5070,1.780
5071,1.795
5072,1.795
5073,1.790
5074,1.795
5075,1.790
5076,1.795
5077,1.780
5078,1.790
5079,1.780
5080,1.790
5081,1.790
5082,1.795
5083,1.820
5084,1.830
5085,1.835
5086,1.850
5087,1.850
5088,1.835
5089,1.840
5090,1.865
5091,1.920
5092,1.955
5093,1.925
5094,1.910
5095,1.895
5096,1.900
5097,1.895
5098,1.890
5099,1.860
5100,1.840
5101,1.830
5102,1.790
5103,1.795
5104,1.790
5105,1.765
5106,1.745
5107,1.750
5108,1.750
5109,1.740
5110,1.740
5111,1.740
5112,1.740
5113,1.735
5114,1.720
5115,1.730
5116,1.735
5117,1.740
5118,1.735
5119,1.745
5120,1.745
5121,1.765
5122,1.775
5123,1.770
5124,1.775
5125,1.760
5126,1.735
5127,1.745
5128,1.870
5129,2.150
5130,2.580
5131,3.150
5132,3.565
5133,3.655
5134,3.620
5135,3.610
5136,3.575
5137,3.480
5138,2.960
5139,1.765
5140,1.340
5141,1.550
5142,1.745
5143,1.820
5144,1.835
5145,1.805
5146,1.765
5147,1.740
5148,1.710
5149,1.700
5150,1.700
5151,1.710
5152,1.710
5153,1.715
5154,1.720
5155,1.730
5156,1.740
5157,1.740
5158,1.745
5159,1.745
5160,1.750
5161,1.760
5162,1.775
5163,1.780
5164,1.780
5165,1.795
5166,1.810
5167,1.810
5168,1.820
5169,1.830
5170,1.835
5171,1.840
5172,1.865
5173,1.870
5174,1.900
5175,1.915
5176,1.930
5177,1.945
5178,1.955
5179,1.975
5180,1.980
5181,2.000
5182,2.010
5183,2.035
5184,2.050
5185,2.075
5186,2.105
5187,2.125
5188,2.155
5189,2.185
5190,2.200
5191,2.225
5192,2.245
5193,2.260
5194,2.285
5195,2.310
5196,2.340
5197,2.365
5198,2.390
5199,2.400
5200,2.425
5201,2.435
5202,2.460
5203,2.455
5204,2.480
5205,2.480
5206,2.490
5207,2.500
5208,2.485
5209,2.465
5210,2.420
5211,2.360
5212,2.310
5213,2.260
5214,2.215
5215,2.165
5216,2.110
5217,2.060
5218,2.035
5219,2.005
5220,1.980
5221,1.950
5222,1.930
5223,1.920
5224,1.910
5225,1.900
5226,1.890
5227,1.885
5228,1.880
5229,1.880
5230,1.880
5231,1.870
5232,1.870
5233,1.860
5234,1.865
5235,1.865
5236,1.865
5237,1.865
5238,1.855
5239,1.855
5240,1.860
5241,1.855
5242,1.850
5243,1.850
5244,1.850
5245,1.850
5246,1.850
5247,1.850
5248,1.860
5249,1.860
5250,1.865
5251,1.860
5252,1.860
5253,1.855
5254,1.855
5255,1.855
5256,1.850
5257,1.850
5258,1.855
5259,1.860
5260,1.855
5261,1.830
5262,1.825
5263,1.830
5264,1.830
5265,1.820
5266,1.820
5267,1.810
5268,1.810
5269,1.805
5270,1.795
5271,1.790
5272,1.790
5273,1.780
5274,1.780
5275,1.770
5276,1.780
5277,1.780
5278,1.780
5279,1.775
5280,1.775
5281,1.775
5282,1.780
5283,1.780
5284,1.775
5285,1.765
5286,1.770
5287,1.775
5288,1.770
5289,1.760
5290,1.770
5291,1.770
5292,1.765
5293,1.765
5294,1.770
5295,1.770
5296,1.770
5297,1.765
5298,1.770
5299,1.765
5300,1.765
5301,1.760
5302,1.765
5303,1.770
5304,1.770
5305,1.765
5306,1.765
5307,1.765
5308,1.770
5309,1.775
5310,1.780
5311,1.780
5312,1.790
5313,1.780
5314,1.790
5315,1.790
5316,1.795
5317,1.790
5318,1.795
5319,1.795
5320,1.805
5321,1.805
5322,1.810
5323,1.820
5324,1.810
5325,1.800
5326,1.805
5327,1.800
5328,1.810
5329,1.810
5330,1.820
5331,1.805
5332,1.810
5333,1.810
5334,1.835
5335,1.860
5336,1.870
5337,1.880
5338,1.895
5339,1.885
5340,1.885
5341,1.915
5342,1.960
5343,2.015
5344,2.005
5345,1.960
5346,1.950
5347,1.955
5348,1.955
5349,1.940
5350,1.925
5351,1.900
5352,1.870
5353,1.860
5354,1.840
5355,1.840
5356,1.825
5357,1.810
5358,1.795
5359,1.790
5360,1.790
5361,1.780
5362,1.790
5363,1.770
5364,1.775
5365,1.775
5366,1.780
5367,1.775
5368,1.775
5369,1.765
5370,1.770
5371,1.780
5372,1.805
5373,1.820
5374,1.820
5375,1.830
5376,1.805
5377,1.770
5378,1.745
5379,1.860
5380,2.150
5381,2.585
5382,3.155
5383,3.595
5384,3.730
5385,3.695
5386,3.685
5387,3.670
5388,3.605
5389,3.260
5390,2.140
5391,1.445
5392,1.655
5393,1.850
5394,1.920
5395,1.925
5396,1.885
5397,1.835
5398,1.805
5399,1.775
5400,1.765
5401,1.760
5402,1.775
5403,1.780
5404,1.775
5405,1.770
5406,1.770
5407,1.770
5408,1.775
5409,1.780
5410,1.790
5411,1.790
5412,1.790
5413,1.795
5414,1.810
5415,1.805
5416,1.820
5417,1.825
5418,1.830
5419,1.850
5420,1.850
5421,1.855
5422,1.865
5423,1.885
5424,1.895
5425,1.900
5426,1.920
5427,1.930
5428,1.945
5429,1.960
5430,1.985
5431,2.010
5432,2.030
5433,2.045
5434,2.050
5435,2.070
5436,2.100
5437,2.120
5438,2.140
5439,2.170
5440,2.200
5441,2.215
5442,2.240
5443,2.275
5444,2.305
5445,2.315
5446,2.360
5447,2.365
5448,2.390
5449,2.410
5450,2.440
5451,2.455
5452,2.470
5453,2.495
5454,2.515
5455,2.540
5456,2.545
5457,2.550
5458,2.540
5459,2.525
5460,2.495
5461,2.440
5462,2.395
5463,2.340
5464,2.305
5465,2.230
5466,2.190
5467,2.150
5468,2.105
5469,2.070
5470,2.040
5471,2.010
5472,2.000
5473,1.980
5474,1.980
5475,1.975
5476,1.950
5477,1.950
5478,1.940
5479,1.940
5480,1.930
5481,1.925
5482,1.925
5483,1.915
5484,1.915
5485,1.900
5486,1.900
5487,1.890
5488,1.895
5489,1.895
5490,1.890
5491,1.890
5492,1.900
5493,1.900
5494,1.900
5495,1.900
5496,1.890
5497,1.885
5498,1.890
5499,1.900
5500,1.900
5501,1.890
5502,1.890
5503,1.890
5504,1.885
5505,1.880
5506,1.880
5507,1.880
5508,1.880
5509,1.870
5510,1.865
5511,1.870
5512,1.865
5513,1.860
5514,1.870
5515,1.865
5516,1.865
5517,1.860
5518,1.855
5519,1.850
5520,1.850
5521,1.835
5522,1.840
5523,1.840
5524,1.825
5525,1.825
5526,1.820
5527,1.820
5528,1.820
5529,1.810
5530,1.810
5531,1.810
5532,1.820
5533,1.805
5534,1.795
5535,1.790
5536,1.795
5537,1.790
5538,1.790
5539,1.780
5540,1.780
5541,1.790
5542,1.780
5543,1.780
5544,1.780
5545,1.780
5546,1.790
5547,1.790
5548,1.780
5549,1.790
5550,1.780
5551,1.780
5552,1.775
5553,1.775
5554,1.775
5555,1.790
5556,1.790
5557,1.780
5558,1.790
5559,1.790
5560,1.780
5561,1.790
5562,1.780
5563,1.780
5564,1.780
5565,1.780
5566,1.780
5567,1.795
5568,1.795
5569,1.790
5570,1.795
5571,1.795
5572,1.805
5573,1.805
5574,1.805
5575,1.805
5576,1.810
5577,1.810
5578,1.805
5579,1.805
5580,1.810
5581,1.810
5582,1.820
5583,1.820
5584,1.830
5585,1.835
5586,1.855
5587,1.855
5588,1.880
5589,1.890
5590,1.880
5591,1.885
5592,1.910
5593,1.960
5594,2.000
5595,1.985
5596,1.945
5597,1.930
5598,1.930
5599,1.940
5600,1.925
5601,1.910
5602,1.890
5603,1.860
5604,1.840
5605,1.820
5606,1.820
5607,1.805
5608,1.795
5609,1.790
5610,1.790
5611,1.795
5612,1.780
5613,1.790
5614,1.790
5615,1.780
5616,1.780
5617,1.780
5618,1.795
5619,1.795
5620,1.795
5621,1.795
5622,1.805
5623,1.805
5624,1.820
5625,1.830
5626,1.830
5627,1.810
5628,1.775
5629,1.760
5630,1.900
5631,2.210
5632,2.660
5633,3.210
5634,3.620
5635,3.715
5636,3.695
5637,3.665
5638,3.630
5639,3.545
5640,3.025
5641,1.830
5642,1.430
5643,1.690
5644,1.840
5645,1.915
5646,1.915
5647,1.865
5648,1.825
5649,1.780
5650,1.765
5651,1.745
5652,1.745
5653,1.750
5654,1.765
5655,1.765
5656,1.765
5657,1.770
5658,1.780
5659,1.780
5660,1.780
5661,1.780
5662,1.780
5663,1.795
5664,1.805
5665,1.805
5666,1.820
5667,1.820
5668,1.820
5669,1.830
5670,1.840
5671,1.855
5672,1.865
5673,1.880
5674,1.885
5675,1.895
5676,1.915
5677,1.925
5678,1.925
5679,1.940
5680,1.960
5681,1.980
5682,2.005
5683,2.010
5684,2.040
5685,2.060
5686,2.075
5687,2.090
5688,2.105
5689,2.130
5690,2.155
5691,2.180
5692,2.195
5693,2.225
5694,2.245
5695,2.270
5696,2.300
5697,2.320
5698,2.360
5699,2.370
5700,2.405
5701,2.435
5702,2.440
5703,2.455
5704,2.485
5705,2.515
5706,2.515
5707,2.520
5708,2.540
5709,2.550
5710,2.550
5711,2.525
5712,2.485
5713,2.435
5714,2.390
5715,2.335
5716,2.270
5717,2.220
5718,2.165
5719,2.120
5720,2.075
5721,2.045
5722,2.010
5723,1.985
5724,1.960
5725,1.950
5726,1.955
5727,1.940
5728,1.940
5729,1.930
5730,1.925
5731,1.915
5732,1.910
5733,1.900
5734,1.895
5735,1.890
5736,1.890
5737,1.885
5738,1.880
5739,1.880
5740,1.870
5741,1.860
5742,1.865
5743,1.865
5744,1.865
5745,1.860
5746,1.865
5747,1.860
5748,1.860
5749,1.860
5750,1.850
5751,1.855
5752,1.850
5753,1.855
5754,1.855
5755,1.860
5756,1.855
5757,1.855
5758,1.855
5759,1.840
5760,1.850
5761,1.835
5762,1.830
5763,1.830
5764,1.830
5765,1.830
5766,1.825
5767,1.830
5768,1.820
5769,1.810
5770,1.810
5771,1.800
5772,1.805
5773,1.805
5774,1.805
5775,1.805
5776,1.805
5777,1.790
5778,1.790
5779,1.790
5780,1.780
5781,1.770
5782,1.770
5783,1.770
5784,1.775
5785,1.765
5786,1.770
5787,1.770
5788,1.770
5789,1.750
5790,1.760
5791,1.765
5792,1.770
5793,1.765
5794,1.765
5795,1.760
5796,1.765
5797,1.760
5798,1.770
5799,1.765
5800,1.770
5801,1.765
5802,1.765
5803,1.770
5804,1.770
5805,1.765
5806,1.760
5807,1.750
5808,1.750
5809,1.750
5810,1.750
5811,1.745
5812,1.750
5813,1.750
5814,1.765
5815,1.770
5816,1.775
5817,1.765
5818,1.770
5819,1.775
5820,1.775
5821,1.780
5822,1.780
5823,1.790
5824,1.790
5825,1.790
5826,1.795
5827,1.790
5828,1.805
5829,1.795
5830,1.795
5831,1.795
5832,1.800
5833,1.790
5834,1.795
5835,1.795
5836,1.805
5837,1.810
5838,1.830
5839,1.840
5840,1.855
5841,1.870
5842,1.865
5843,1.855
5844,1.885
5845,1.925
5846,1.975
5847,1.975
5848,1.945
5849,1.925
5850,1.930
5851,1.930
5852,1.920
5853,1.895
5854,1.880
5855,1.860
5856,1.835
5857,1.820
5858,1.820
5859,1.805
5860,1.790
5861,1.765
5862,1.770
5863,1.770
5864,1.770
5865,1.765
5866,1.770
5867,1.765
5868,1.765
5869,1.760
5870,1.750
5871,1.745
5872,1.750
5873,1.765
5874,1.780
5875,1.790
5876,1.805
5877,1.805
5878,1.805
5879,1.770
5880,1.735
5881,1.740
5882,1.900
5883,2.190
5884,2.665
5885,3.250
5886,3.650
5887,3.690
5888,3.655
5889,3.635
5890,3.605
5891,3.480
5892,2.770
5893,1.595
5894,1.435
5895,1.690
5896,1.825
5897,1.880
5898,1.870
5899,1.835
5900,1.790
5901,1.765
5902,1.745
5903,1.740
5904,1.740
5905,1.750
5906,1.745
5907,1.745
5908,1.750
5909,1.750
5910,1.765
5911,1.775
5912,1.765
5913,1.770
5914,1.780
5915,1.780
5916,1.800
5917,1.805
5918,1.825
5919,1.830
5920,1.830
5921,1.835
5922,1.855
5923,1.860
5924,1.860
5925,1.880
5926,1.890
5927,1.910
5928,1.915
5929,1.930
5930,1.940
5931,1.975
5932,1.985
5933,1.990
5934,2.010
5935,2.030
5936,2.050
5937,2.075
5938,2.095
5939,2.125
5940,2.150
5941,2.165
5942,2.185
5943,2.215
5944,2.245
5945,2.270
5946,2.310
5947,2.320
5948,2.350
5949,2.390
5950,2.410
5951,2.430
5952,2.460
5953,2.470
5954,2.490
5955,2.500
5956,2.530
5957,2.550
5958,2.560
5959,2.560
5960,2.555
5961,2.545
5962,2.510
5963,2.455
5964,2.400
5965,2.360
5966,2.300
5967,2.240
5968,2.190
5969,2.150
5970,2.100
5971,2.050
5972,2.030
5973,1.990
5974,1.980
5975,1.955
5976,1.940
5977,1.940
5978,1.920
5979,1.915
5980,1.925
5981,1.915
5982,1.910
5983,1.895
5984,1.885
5985,1.880
5986,1.880
5987,1.880
5988,1.870
5989,1.865
5990,1.870
5991,1.865
5992,1.865
5993,1.860
5994,1.855
5995,1.865
5996,1.860
5997,1.855
5998,1.860
5999,1.860
6000,1.855
6001,1.855
6002,1.860
6003,1.855
6004,1.855
6005,1.855
6006,1.855
6007,1.855
6008,1.855
6009,1.850
6010,1.855
6011,1.850
6012,1.850
6013,1.840
6014,1.825
6015,1.820
6016,1.810
6017,1.810
6018,1.810
6019,1.805
6020,1.805
6021,1.790
6022,1.805
6023,1.790
6024,1.790
6025,1.780
6026,1.770
6027,1.770
6028,1.765
6029,1.765
6030,1.770
6031,1.760
6032,1.750
6033,1.760
6034,1.760
6035,1.760
6036,1.750
6037,1.750
6038,1.750
6039,1.745
6040,1.760
6041,1.745
6042,1.750
6043,1.760
6044,1.745
6045,1.740
6046,1.745
6047,1.760
6048,1.750
6049,1.760
6050,1.750
6051,1.740
6052,1.740
6053,1.750
6054,1.750
6055,1.745
6056,1.750
6057,1.745
6058,1.750
6059,1.750
6060,1.750
6061,1.750
6062,1.750
6063,1.745
6064,1.750
6065,1.760
6066,1.750
6067,1.750
6068,1.750
6069,1.750
6070,1.750
6071,1.760
6072,1.765
6073,1.760
6074,1.770
6075,1.770
6076,1.770
6077,1.770
6078,1.765
6079,1.765
6080,1.770
6081,1.780
6082,1.790
6083,1.800
6084,1.810
6085,1.820
6086,1.830
6087,1.840
6088,1.835
6089,1.820
6090,1.840
6091,1.890
6092,1.945
6093,1.945
6094,1.925
6095,1.900
6096,1.900
6097,1.900
6098,1.890
6099,1.870
6100,1.840
6101,1.825
6102,1.795
6103,1.775
6104,1.780
6105,1.765
6106,1.745
6107,1.740
6108,1.730
6109,1.715
6110,1.720
6111,1.720
6112,1.710
6113,1.710
6114,1.690
6115,1.710
6116,1.710
6117,1.715
6118,1.710
6119,1.715
6120,1.730
6121,1.715
6122,1.720
6123,1.735
6124,1.740
6125,1.740
6126,1.730
6127,1.715
6128,1.790
6129,2.020
6130,2.420
6131,2.970
6132,3.450
6133,3.665
6134,3.640
6135,3.610
6136,3.575
6137,3.530
6138,3.260
6139,2.240
6140,1.370
6141,1.420
6142,1.645
6143,1.780
6144,1.825
6145,1.805
6146,1.770
6147,1.740
6148,1.710
6149,1.700
6150,1.690
6151,1.690
6152,1.690
6153,1.700
6154,1.710
6155,1.710
6156,1.715
6157,1.720
6158,1.720
6159,1.735
6160,1.740
6161,1.740
6162,1.750
6163,1.765
6164,1.770
6165,1.795
6166,1.795
6167,1.795
6168,1.805
6169,1.805
6170,1.810
6171,1.810
6172,1.835
6173,1.855
6174,1.855
6175,1.880
6176,1.900
6177,1.915
6178,1.925
6179,1.940
6180,1.960
6181,1.980
6182,2.000
6183,2.020
6184,2.040
6185,2.045
6186,2.075
6187,2.095
6188,2.125
6189,2.150
6190,2.185
6191,2.215
6192,2.245
6193,2.270
6194,2.305
6195,2.335
6196,2.345
6197,2.370
6198,2.395
6199,2.420
6200,2.450
6201,2.460
6202,2.480
6203,2.485
6204,2.515
6205,2.510
6206,2.500
6207,2.500
6208,2.485
6209,2.465
6210,2.430
6211,2.380
6212,2.320
6213,2.270
6214,2.200
6215,2.140
6216,2.095
6217,2.065
6218,2.030
6219,2.000
6220,1.950
6221,1.925
6222,1.915
6223,1.900
6224,1.885
6225,1.865
6226,1.870
6227,1.870
6228,1.860
6229,1.855
6230,1.850
6231,1.850
6232,1.850
6233,1.835
6234,1.840
6235,1.835
6236,1.830
6237,1.825
6238,1.835
6239,1.830
6240,1.835
6241,1.830
6242,1.835
6243,1.835
6244,1.840
6245,1.850
6246,1.840
6247,1.835
6248,1.840
6249,1.850
6250,1.855
6251,1.840
6252,1.840
6253,1.830
6254,1.830
6255,1.825
6256,1.830
6257,1.825
6258,1.820
6259,1.810
6260,1.805
6261,1.810
6262,1.805
6263,1.805
6264,1.795
6265,1.780
6266,1.780
6267,1.790
6268,1.790
6269,1.780
6270,1.765
6271,1.765
6272,1.770
6273,1.765
6274,1.765
6275,1.745
6276,1.745
6277,1.740
6278,1.745
6279,1.735
6280,1.730
6281,1.735
6282,1.740
6283,1.720
6284,1.720
6285,1.735
6286,1.735
6287,1.730
6288,1.735
6289,1.735
6290,1.735
6291,1.735
6292,1.735
6293,1.735
6294,1.740
6295,1.735
6296,1.730
6297,1.730
6298,1.735
6299,1.740
6300,1.750
6301,1.740
6302,1.740
6303,1.735
6304,1.735
6305,1.735
6306,1.735
6307,1.740
6308,1.745
6309,1.745
6310,1.745
6311,1.750
6312,1.760
6313,1.750
6314,1.745
6315,1.745
6316,1.745
6317,1.750
6318,1.765
6319,1.770
6320,1.765
6321,1.765
6322,1.765
6323,1.750
6324,1.760
6325,1.765
6326,1.770
6327,1.770
6328,1.780
6329,1.790
6330,1.810
6331,1.825
6332,1.835
6333,1.855
6334,1.850
6335,1.835
6336,1.860
6337,1.910
6338,1.960
6339,1.955
6340,1.920
6341,1.895
6342,1.910
6343,1.910
6344,1.910
6345,1.880
6346,1.860
6347,1.835
6348,1.805
6349,1.790
6350,1.795
6351,1.770
6352,1.750
6353,1.745
6354,1.745
6355,1.760
6356,1.745
6357,1.745
6358,1.740
6359,1.735
6360,1.735
6361,1.735
6362,1.740
6363,1.740
6364,1.745
6365,1.745
6366,1.760
6367,1.770
6368,1.780
6369,1.775
6370,1.750
6371,1.715
6372,1.710
6373,1.865
6374,2.180
6375,2.635
6376,3.205
6377,3.580
6378,3.665
6379,3.630
6380,3.610
6381,3.580
6382,3.475
6383,2.840
6384,1.620
6385,1.445
6386,1.720
6387,1.840
6388,1.900
6389,1.885
6390,1.835
6391,1.795
6392,1.750
6393,1.735
6394,1.735
6395,1.720
6396,1.735
6397,1.745
6398,1.745
6399,1.745
6400,1.765
6401,1.765
6402,1.765
6403,1.775
6404,1.770
6405,1.770
6406,1.780
6407,1.800
6408,1.810
6409,1.810
6410,1.810
6411,1.820
6412,1.830
6413,1.835
6414,1.850
6415,1.855
6416,1.865
6417,1.880
6418,1.900
6419,1.910
6420,1.925
6421,1.940
6422,1.950
6423,1.980
6424,2.000
6425,2.015
6426,2.030
6427,2.050
6428,2.070
6429,2.100
6430,2.125
6431,2.135
6432,2.170
6433,2.190
6434,2.220
6435,2.250
6436,2.280
6437,2.300
6438,2.335
6439,2.365
6440,2.390
6441,2.405
6442,2.430
6443,2.455
6444,2.470
6445,2.485
6446,2.500
6447,2.520
6448,2.530
6449,2.550
6450,2.555
6451,2.555
6452,2.545
6453,2.500
6454,2.440
6455,2.380
6456,2.335
6457,2.260
6458,2.215
6459,2.180
6460,2.140
6461,2.095
6462,2.050
6463,2.020
6464,2.000
6465,1.975
6466,1.955
6467,1.955
6468,1.940
6469,1.940
6470,1.940
6471,1.930
6472,1.930
6473,1.925
6474,1.925
6475,1.915
6476,1.900
6477,1.900
6478,1.900
6479,1.910
6480,1.910
6481,1.900
6482,1.900
6483,1.890
6484,1.900
6485,1.880
6486,1.880
6487,1.885
6488,1.885
6489,1.885
6490,1.890
6491,1.885
6492,1.870
6493,1.870
6494,1.880
6495,1.885
6496,1.885
6497,1.880
6498,1.880
6499,1.885
6500,1.870
6501,1.865
6502,1.865
6503,1.860
6504,1.865
6505,1.860
6506,1.865
6507,1.860
6508,1.860
6509,1.860
6510,1.850
6511,1.835
6512,1.825
6513,1.830
6514,1.820
6515,1.810
6516,1.810
6517,1.810
6518,1.805
6519,1.810
6520,1.805
6521,1.790
6522,1.795
6523,1.795
6524,1.795
6525,1.780
6526,1.790
6527,1.790
6528,1.790
6529,1.775
6530,1.775
6531,1.775
6532,1.770
6533,1.770
6534,1.775
6535,1.770
6536,1.765
6537,1.775
6538,1.780
6539,1.775
6540,1.775
6541,1.775
6542,1.780
6543,1.780
6544,1.790
6545,1.780
6546,1.780
6547,1.770
6548,1.775
6549,1.780
6550,1.790
6551,1.790
6552,1.780
6553,1.780
6554,1.795
6555,1.790
6556,1.775
6557,1.780
6558,1.790
6559,1.790
6560,1.790
6561,1.790
6562,1.795
6563,1.795
6564,1.805
6565,1.805
6566,1.805
6567,1.810
6568,1.805
6569,1.800
6570,1.800
6571,1.805
6572,1.825
6573,1.825
6574,1.840
6575,1.855
6576,1.860
6577,1.880
6578,1.895
6579,1.880
6580,1.865
6581,1.900
6582,1.955
6583,2.010
6584,1.985
6585,1.955
6586,1.945
6587,1.950
6588,1.950
6589,1.940
6590,1.920
6591,1.895
6592,1.880
6593,1.855
6594,1.825
6595,1.835
6596,1.825
6597,1.810
6598,1.795
6599,1.790
6600,1.790
6601,1.790
6602,1.780
6603,1.770
6604,1.765
6605,1.765
6606,1.775
6607,1.775
6608,1.775
6609,1.775
6610,1.780
6611,1.780
6612,1.790
6613,1.795
6614,1.805
6615,1.805
6616,1.800
6617,1.765
6618,1.735
6619,1.805
6620,2.050
6621,2.410
6622,2.945
6623,3.475
6624,3.710
6625,3.680
6626,3.640
6627,3.625
6628,3.595
6629,3.365
6630,2.400
6631,1.435
6632,1.540
6633,1.770
6634,1.880
6635,1.925
6636,1.885
6637,1.835
6638,1.795
6639,1.760
6640,1.740
6641,1.740
6642,1.740
6643,1.745
6644,1.745
6645,1.760
6646,1.760
6647,1.760
6648,1.765
6649,1.760
6650,1.770
6651,1.775
6652,1.790
6653,1.790
6654,1.795
6655,1.805
6656,1.810
6657,1.820
6658,1.825
6659,1.835
6660,1.835
6661,1.835
6662,1.855
6663,1.865
6664,1.885
6665,1.890
6666,1.900
6667,1.910
6668,1.930
6669,1.945
6670,1.970
6671,1.980
6672,2.000
6673,2.015
6674,2.030
6675,2.040
6676,2.050
6677,2.075
6678,2.100
6679,2.125
6680,2.160
6681,2.190
6682,2.220
6683,2.245
6684,2.270
6685,2.290
6686,2.315
6687,2.340
6688,2.365
6689,2.395
6690,2.425
6691,2.440
6692,2.460
6693,2.470
6694,2.500
6695,2.500
6696,2.525
6697,2.545
6698,2.550
6699,2.550
6700,2.515
6701,2.480
6702,2.440
6703,2.390
6704,2.330
6705,2.275
6706,2.225
6707,2.180
6708,2.130
6709,2.080
6710,2.050
6711,2.020
6712,2.000
6713,1.975
6714,1.955
6715,1.940
6716,1.930
6717,1.925
6718,1.920
6719,1.915
6720,1.915
6721,1.910
6722,1.900
6723,1.900
6724,1.900
6725,1.900
6726,1.890
6727,1.890
6728,1.890
6729,1.890
6730,1.880
6731,1.880
6732,1.885
6733,1.880
6734,1.885
6735,1.885
6736,1.885
6737,1.885
6738,1.885
6739,1.880
6740,1.880
6741,1.860
6742,1.870
6743,1.880
6744,1.885
6745,1.880
6746,1.880
6747,1.870
6748,1.870
6749,1.870
6750,1.870
6751,1.860
6752,1.860
6753,1.850
6754,1.855
6755,1.850
6756,1.835
6757,1.835
6758,1.835
6759,1.830
6760,1.825
6761,1.810
6762,1.825
6763,1.810
6764,1.810
6765,1.805
6766,1.805
6767,1.800
6768,1.795
6769,1.790
6770,1.795
6771,1.800
6772,1.805
6773,1.795
6774,1.780
6775,1.790
6776,1.790
6777,1.780
6778,1.790
6779,1.790
6780,1.790
6781,1.780
6782,1.790
6783,1.780
6784,1.790
6785,1.770
6786,1.770
6787,1.780
6788,1.775
6789,1.795
6790,1.780
6791,1.790
6792,1.790
6793,1.790
6794,1.795
6795,1.780
6796,1.795
6797,1.790
6798,1.805
6799,1.805
6800,1.810
6801,1.810
6802,1.805
6803,1.805
6804,1.805
6805,1.805
6806,1.800
6807,1.810
6808,1.805
6809,1.810
6810,1.805
6811,1.820
6812,1.825
6813,1.810
6814,1.810
6815,1.820
6816,1.825
6817,1.830
6818,1.830
6819,1.820
6820,1.830
6821,1.850
6822,1.860
6823,1.860
6824,1.870
6825,1.885
6826,1.900
6827,1.885
6828,1.885
6829,1.910
6830,1.980
6831,2.020
6832,2.000
6833,1.955
6834,1.960
6835,1.960
6836,1.960
6837,1.940
6838,1.910
6839,1.890
6840,1.865
6841,1.850
6842,1.835
6843,1.830
6844,1.810
6845,1.795
6846,1.795
6847,1.780
6848,1.775
6849,1.765
6850,1.770
6851,1.770
6852,1.770
6853,1.765
6854,1.760
6855,1.765
6856,1.775
6857,1.770
6858,1.770
6859,1.780
6860,1.805
6861,1.800
6862,1.810
6863,1.805
6864,1.775
6865,1.735
6866,1.760
6867,1.960
6868,2.320
6869,2.885
6870,3.460
6871,3.725
6872,3.720
6873,3.680
6874,3.655
6875,3.605
6876,3.410
6877,2.480
6878,1.450
6879,1.495
6880,1.740
6881,1.850
6882,1.900
6883,1.860
6884,1.820
6885,1.790
6886,1.750
6887,1.740
6888,1.735
6889,1.740
6890,1.745
6891,1.750
6892,1.765
6893,1.765
6894,1.770
6895,1.770
6896,1.775
6897,1.770
6898,1.780
6899,1.780
6900,1.790
6901,1.795
6902,1.805
6903,1.810
6904,1.820
6905,1.820
6906,1.820
6907,1.835
6908,1.840
6909,1.860
6910,1.865
6911,1.885
6912,1.895
6913,1.910
6914,1.920
6915,1.925
6916,1.955
6917,1.975
6918,2.000
6919,2.005
6920,2.035
6921,2.045
6922,2.050
6923,2.075
6924,2.110
6925,2.130
6926,2.155
6927,2.185
6928,2.215
6929,2.240
6930,2.260
6931,2.285
6932,2.315
6933,2.340
6934,2.370
6935,2.390
6936,2.410
6937,2.435
6938,2.455
6939,2.490
6940,2.495
6941,2.510
6942,2.520
6943,2.530
6944,2.555
6945,2.560
6946,2.560
6947,2.510
6948,2.470
6949,2.420
6950,2.375
6951,2.320
6952,2.280
6953,2.225
6954,2.170
6955,2.130
6956,2.075
6957,2.045
6958,2.015
6959,1.985
6960,1.980
6961,1.975
6962,1.960
6963,1.945
6964,1.940
6965,1.925
6966,1.925
6967,1.920
6968,1.915
6969,1.910
6970,1.895
6971,1.900
6972,1.900
6973,1.900
6974,1.885
6975,1.890
6976,1.885
6977,1.885
6978,1.880
6979,1.880
6980,1.870
6981,1.880
6982,1.880
6983,1.885
6984,1.885
6985,1.880
6986,1.880
6987,1.885
6988,1.880
6989,1.860
6990,1.865
6991,1.880
6992,1.880
6993,1.870
6994,1.865
6995,1.855
6996,1.850
6997,1.855
6998,1.865
6999,1.855
7000,1.850
7001,1.840
7002,1.835
7003,1.835
7004,1.825
7005,1.825
7006,1.820
7007,1.810
7008,1.810
7009,1.805
7010,1.795
7011,1.800
7012,1.800
7013,1.780
7014,1.795
7015,1.790
7016,1.780
7017,1.780
7018,1.780
7019,1.780
7020,1.770
7021,1.770
7022,1.770
7023,1.770
7024,1.775
7025,1.765
7026,1.775
7027,1.765
7028,1.765
7029,1.750
7030,1.765
7031,1.765
7032,1.750
7033,1.750
7034,1.750
7035,1.750
7036,1.750
7037,1.760
7038,1.760
7039,1.745
7040,1.750
7041,1.760
7042,1.765
7043,1.765
7044,1.765
7045,1.765
7046,1.770
7047,1.770
7048,1.770
7049,1.765
7050,1.765
7051,1.765
7052,1.770
7053,1.780
7054,1.775
7055,1.770
7056,1.775
7057,1.775
7058,1.780
7059,1.770
7060,1.775
7061,1.780
7062,1.790
7063,1.790
7064,1.800
7065,1.795
7066,1.795
7067,1.800
7068,1.810
7069,1.820
7070,1.830
7071,1.835
7072,1.840
7073,1.855
7074,1.865
7075,1.860
7076,1.870
7077,1.895
7078,1.945
7079,1.975
7080,1.955
7081,1.940
7082,1.940
7083,1.940
7084,1.925
7085,1.915
7086,1.900
7087,1.880
7088,1.850
7089,1.810
7090,1.805
7091,1.805
7092,1.805
7093,1.770
7094,1.770
7095,1.770
7096,1.770
7097,1.765
7098,1.770
7099,1.760
7100,1.750
7101,1.750
7102,1.760
7103,1.745
7104,1.750
7105,1.760
7106,1.760
7107,1.770
7108,1.765
7109,1.780
7110,1.790
7111,1.795
7112,1.800
7113,1.770
7114,1.750
7115,1.795
7116,2.005
7117,2.345
7118,2.850
7119,3.390
7120,3.695
7121,3.710
7122,3.660
7123,3.650
7124,3.630
7125,3.475
7126,2.640
7127,1.525
7128,1.420
7129,1.675
7130,1.820
7131,1.880
7132,1.885
7133,1.830
7134,1.805
7135,1.770
7136,1.760
7137,1.735
7138,1.740
7139,1.745
7140,1.750
7141,1.765
7142,1.750
7143,1.750
7144,1.765
7145,1.765
7146,1.775
7147,1.780
7148,1.780
7149,1.790
7150,1.805
7151,1.805
7152,1.805
7153,1.810
7154,1.820
7155,1.825
7156,1.830
7157,1.840
7158,1.850
7159,1.865
7160,1.870
7161,1.885
7162,1.900
7163,1.915
7164,1.920
7165,1.930
7166,1.945
7167,1.960
7168,1.990
7169,2.005
7170,2.020
7171,2.035
7172,2.050
7173,2.080
7174,2.105
7175,2.125
7176,2.140
7177,2.165
7178,2.200
7179,2.220
7180,2.245
7181,2.270
7182,2.300
7183,2.315
7184,2.335
7185,2.365
7186,2.390
7187,2.410
7188,2.425
7189,2.450
7190,2.460
7191,2.490
7192,2.510
7193,2.515
7194,2.515
7195,2.520
7196,2.510
7197,2.490
7198,2.460
7199,2.405
7200,2.365
7201,2.310
7202,2.250
7203,2.195
7204,2.155
7205,2.105
7206,2.075
7207,2.035
7208,2.015
7209,1.980
7210,1.980
7211,1.955
7212,1.940
7213,1.920
7214,1.915
7215,1.915
7216,1.910
7217,1.910
7218,1.910
7219,1.900
7220,1.900
7221,1.890
7222,1.885
7223,1.880
7224,1.880
7225,1.865
7226,1.870
7227,1.865
7228,1.860
7229,1.860
7230,1.865
7231,1.860
7232,1.860
7233,1.865
7234,1.865
7235,1.865
7236,1.865
7237,1.880
7238,1.880
7239,1.885
7240,1.880
7241,1.865
7242,1.880
7243,1.880
7244,1.865
7245,1.860
7246,1.860
7247,1.860
7248,1.865
7249,1.865
7250,1.860
7251,1.850
7252,1.835
7253,1.830
7254,1.835
7255,1.830
7256,1.825
7257,1.820
7258,1.825
7259,1.820
7260,1.810
7261,1.800
7262,1.800
7263,1.800
7264,1.805
7265,1.805
7266,1.805
7267,1.800
7268,1.805
7269,1.795
7270,1.800
7271,1.780
7272,1.790
7273,1.790
7274,1.790
7275,1.780
7276,1.775
7277,1.770
7278,1.770
7279,1.770
7280,1.765
7281,1.760
7282,1.765
7283,1.765
7284,1.765
7285,1.760
7286,1.760
7287,1.760
7288,1.765
7289,1.760
7290,1.760
7291,1.760
7292,1.750
7293,1.765
7294,1.770
7295,1.770
7296,1.770
7297,1.765
7298,1.765
7299,1.770
7300,1.770
7301,1.770
7302,1.770
7303,1.775
7304,1.790
7305,1.780
7306,1.795
7307,1.790
7308,1.790
7309,1.790
7310,1.800
7311,1.805
7312,1.805
7313,1.805
7314,1.805
7315,1.810
7316,1.810
7317,1.805
7318,1.810
7319,1.810
7320,1.820
7321,1.825
7322,1.835
7323,1.855
7324,1.860
7325,1.880
7326,1.890
7327,1.885
7328,1.870
7329,1.885
7330,1.925
7331,1.985
7332,2.015
7333,1.980
7334,1.960
7335,1.960
7336,1.955
7337,1.940
7338,1.930
7339,1.900
7340,1.870
7341,1.855
7342,1.835
7343,1.830
7344,1.830
7345,1.805
7346,1.795
7347,1.780
7348,1.790
7349,1.780
7350,1.770
7351,1.770
7352,1.780
7353,1.775
7354,1.770
7355,1.770
7356,1.770
7357,1.780
7358,1.770
7359,1.790
7360,1.795
7361,1.805
7362,1.820
7363,1.820
7364,1.810
7365,1.795
7366,1.765
7367,1.745
7368,1.810
7369,2.050
7370,2.455
7371,3.020
7372,3.535
7373,3.730
7374,3.725
7375,3.690
7376,3.680
7377,3.630
7378,3.380
7379,2.315
7380,1.440
7381,1.595
7382,1.810
7383,1.910
7384,1.945
7385,1.900
7386,1.860
7387,1.820
7388,1.790
7389,1.775
7390,1.775
7391,1.770
7392,1.775
7393,1.790
7394,1.795
7395,1.790
7396,1.805
7397,1.805
7398,1.795
7399,1.795
7400,1.800
7401,1.805
7402,1.825
7403,1.825
7404,1.830
7405,1.830
7406,1.840
7407,1.850
7408,1.860
7409,1.860
7410,1.865
7411,1.885
7412,1.900
7413,1.910
7414,1.915
7415,1.930
7416,1.945
7417,1.960
7418,1.975
7419,1.985
7420,2.010
7421,2.030
7422,2.050
7423,2.070
7424,2.090
7425,2.105
7426,2.135
7427,2.160
7428,2.185
7429,2.195
7430,2.220
7431,2.245
7432,2.280
7433,2.315
7434,2.345
7435,2.370
7436,2.390
7437,2.420
7438,2.440
7439,2.460
7440,2.470
7441,2.495
7442,2.520
7443,2.540
7444,2.555
7445,2.570
7446,2.580
7447,2.580
7448,2.585
7449,2.575
7450,2.550
7451,2.490
7452,2.410
7453,2.365
7454,2.305
7455,2.250
7456,2.210
7457,2.155
7458,2.120
7459,2.080
7460,2.050
7461,2.020
7462,2.005
7463,1.985
7464,1.975
7465,1.960
7466,1.970
7467,1.960
7468,1.955
7469,1.955
7470,1.950
7471,1.950
7472,1.940
7473,1.925
7474,1.925
7475,1.915
7476,1.925
7477,1.915
7478,1.920
7479,1.915
7480,1.920
7481,1.910
7482,1.910
7483,1.900
7484,1.910
7485,1.915
7486,1.910
7487,1.915
7488,1.915
7489,1.910
7490,1.920
7491,1.915
7492,1.910
7493,1.910
7494,1.915
7495,1.910
7496,1.915
7497,1.900
7498,1.900
7499,1.900
7500,1.900
7501,1.900
7502,1.885
7503,1.890
7504,1.895
7505,1.890
7506,1.890
7507,1.885
7508,1.870
7509,1.865
7510,1.865
7511,1.865
7512,1.860
7513,1.855
7514,1.855
7515,1.850
7516,1.840
7517,1.835
7518,1.830
7519,1.835
7520,1.835
7521,1.830
7522,1.830
7523,1.830
7524,1.825
7525,1.810
7526,1.820
7527,1.820
7528,1.825
7529,1.820
7530,1.810
7531,1.820
7532,1.820
7533,1.810
7534,1.825
7535,1.820
7536,1.820
7537,1.820
7538,1.820
7539,1.830
7540,1.820
7541,1.810
7542,1.820
7543,1.820
7544,1.825
7545,1.830
7546,1.825
7547,1.825
7548,1.820
7549,1.820
7550,1.820
7551,1.810
7552,1.825
7553,1.830
7554,1.830
7555,1.835
7556,1.825
7557,1.820
7558,1.830
7559,1.840
7560,1.840
7561,1.835
7562,1.840
7563,1.840
7564,1.840
7565,1.835
7566,1.840
7567,1.840
7568,1.840
7569,1.835
7570,1.850
7571,1.855
7572,1.860
7573,1.855
7574,1.860
7575,1.860
7576,1.870
7577,1.885
7578,1.900
7579,1.900
7580,1.915
7581,1.925
7582,1.915
7583,1.915
7584,1.955
7585,2.005
7586,2.050
7587,2.045
7588,2.020
7589,2.010
7590,2.015
7591,2.010
7592,2.000
7593,1.975
7594,1.945
7595,1.925
7596,1.895
7597,1.880
7598,1.880
7599,1.860
7600,1.850
7601,1.825
7602,1.820
7603,1.820
7604,1.810
7605,1.810
7606,1.810
7607,1.805
7608,1.805
7609,1.795
7610,1.795
7611,1.795
7612,1.805
7613,1.805
7614,1.805
7615,1.820
7616,1.830
7617,1.835
7618,1.850
7619,1.840
7620,1.825
7621,1.790
7622,1.770
7623,1.900
7624,2.180
7625,2.615
7626,3.190
7627,3.640
7628,3.755
7629,3.725
7630,3.700
7631,3.690
7632,3.620
7633,3.200
7634,2.045
7635,1.450
7636,1.670
7637,1.855
7638,1.930
7639,1.955
7640,1.920
7641,1.880
7642,1.840
7643,1.810
7644,1.795
7645,1.790
7646,1.795
7647,1.790
7648,1.790
7649,1.790
7650,1.795
7651,1.805
7652,1.810
7653,1.810
7654,1.810
7655,1.825
7656,1.835
7657,1.850
7658,1.850
7659,1.855
7660,1.870
7661,1.865
7662,1.880
7663,1.890
7664,1.900
7665,1.900
7666,1.915
7667,1.915
7668,1.930
7669,1.945
7670,1.950
7671,1.960
7672,1.980
7673,1.990
7674,2.010
7675,2.015
7676,2.040
7677,2.050
7678,2.075
7679,2.100
7680,2.125
7681,2.140
7682,2.155
7683,2.180
7684,2.195
7685,2.215
7686,2.245
7687,2.275
7688,2.315
7689,2.340
7690,2.360
7691,2.375
7692,2.410
7693,2.435
7694,2.460
7695,2.490
7696,2.525
7697,2.530
7698,2.555
7699,2.580
7700,2.600
7701,2.630
7702,2.630
7703,2.620
7704,2.615
7705,2.580
7706,2.550
7707,2.500
7708,2.455
7709,2.405
7710,2.350
7711,2.300
7712,2.245
7713,2.195
7714,2.155
7715,2.130
7716,2.100
7717,2.065
7718,2.045
7719,2.035
7720,2.015
7721,2.000
7722,2.000
7723,1.980
7724,1.960
7725,1.960
7726,1.960
7727,1.960
7728,1.955
7729,1.945
7730,1.945
7731,1.940
7732,1.940
7733,1.930
7734,1.930
7735,1.920
7736,1.920
7737,1.910
7738,1.915
7739,1.910
7740,1.910
7741,1.900
7742,1.915
7743,1.915
7744,1.900
7745,1.910
7746,1.900
7747,1.900
7748,1.900
7749,1.900
7750,1.900
7751,1.895
7752,1.900
7753,1.900
7754,1.910
7755,1.890
7756,1.900
7757,1.885
7758,1.885
7759,1.880
7760,1.880
7761,1.880
7762,1.885
7763,1.880
7764,1.865
7765,1.860
7766,1.850
7767,1.840
7768,1.830
7769,1.830
7770,1.830
7771,1.830
7772,1.830
7773,1.820
7774,1.805
7775,1.810
7776,1.810
7777,1.795
7778,1.795
7779,1.790
7780,1.790
7781,1.790
7782,1.790
7783,1.790
7784,1.790
7785,1.780
7786,1.780
7787,1.790
7788,1.790
7789,1.780
7790,1.795
7791,1.795
7792,1.790
7793,1.780
7794,1.780
7795,1.780
7796,1.790
7797,1.780
7798,1.790
7799,1.780
7800,1.790
7801,1.780
7802,1.780
7803,1.780
7804,1.775
7805,1.780
7806,1.780
7807,1.780
7808,1.775
7809,1.780
7810,1.790
7811,1.780
7812,1.790
7813,1.790
7814,1.790
7815,1.790
7816,1.800
7817,1.805
7818,1.805
7819,1.805
7820,1.805
7821,1.800
7822,1.805
7823,1.795
7824,1.805
7825,1.805
7826,1.805
7827,1.820
7828,1.810
7829,1.810
7830,1.810
7831,1.820
7832,1.805
7833,1.805
7834,1.820
7835,1.840
7836,1.860
7837,1.860
7838,1.880
7839,1.880
7840,1.870
7841,1.870
7842,1.910
7843,1.960
7844,2.015
7845,2.000
7846,1.960
7847,1.955
7848,1.955
7849,1.955
7850,1.930
7851,1.890
7852,1.870
7853,1.860
7854,1.835
7855,1.825
7856,1.825
7857,1.805
7858,1.790
7859,1.775
7860,1.770
7861,1.760
7862,1.765
7863,1.765
7864,1.765
7865,1.760
7866,1.745
7867,1.745
7868,1.750
7869,1.760
7870,1.765
7871,1.765
7872,1.775
7873,1.775
7874,1.795
7875,1.805
7876,1.805
7877,1.795
7878,1.770
7879,1.740
7880,1.760
7881,1.945
7882,2.270
7883,2.770
7884,3.320
7885,3.640
7886,3.680
7887,3.650
7888,3.635
7889,3.600
7890,3.460
7891,2.770
7892,1.630
7893,1.440
7894,1.700
7895,1.830
7896,1.885
7897,1.880
7898,1.840
7899,1.805
7900,1.775
7901,1.750
7902,1.740
7903,1.740
7904,1.750
7905,1.745
7906,1.750
7907,1.760
7908,1.770
7909,1.770
7910,1.780
7911,1.790
7912,1.790
7913,1.780
7914,1.795
7915,1.805
7916,1.805
7917,1.805
7918,1.810
7919,1.825
7920,1.830
7921,1.850
7922,1.855
7923,1.860
7924,1.870
7925,1.880
7926,1.890
7927,1.915
7928,1.915
7929,1.930
7930,1.955
7931,1.975
7932,2.000
7933,2.005
7934,2.030
7935,2.040
7936,2.060
7937,2.080
7938,2.105
7939,2.125
7940,2.155
7941,2.170
7942,2.200
7943,2.230
7944,2.260
7945,2.285
7946,2.310
7947,2.345
7948,2.370
7949,2.395
7950,2.425
7951,2.440
7952,2.470
7953,2.480
7954,2.500
7955,2.530
7956,2.545
7957,2.550
7958,2.575
7959,2.600
7960,2.605
7961,2.575
7962,2.550
7963,2.515
7964,2.470
7965,2.405
7966,2.345
7967,2.300
7968,2.255
7969,2.215
7970,2.165
7971,2.120
7972,2.075
7973,2.045
7974,2.020
7975,2.005
7976,1.985
7977,1.975
7978,1.970
7979,1.955
7980,1.955
7981,1.945
7982,1.940
7983,1.940
7984,1.945
7985,1.930
7986,1.930
7987,1.920
7988,1.915
7989,1.910
7990,1.900
7991,1.915
7992,1.910
7993,1.895
7994,1.895
7995,1.880
7996,1.870
7997,1.860
7998,1.865
7999,1.870
8000,1.880
8001,1.885
8002,1.890
8003,1.890
8004,1.890
8005,1.885
8006,1.885
8007,1.880
8008,1.880
8009,1.880
8010,1.855
8011,1.855
8012,1.855
8013,1.850
8014,1.850
8015,1.850
8016,1.840
8017,1.830
8018,1.830
8019,1.840
8020,1.835
8021,1.825
8022,1.805
8023,1.805
8024,1.805
8025,1.805
8026,1.795
8027,1.790
8028,1.795
8029,1.790
8030,1.790
8031,1.790
8032,1.795
8033,1.780
8034,1.780
8035,1.765
8036,1.765
8037,1.775
8038,1.775
8039,1.765
8040,1.745
8041,1.760
8042,1.780
8043,1.765
8044,1.760
8045,1.760
8046,1.760
8047,1.750
8048,1.760
8049,1.760
8050,1.765
8051,1.765
8052,1.750
8053,1.760
8054,1.765
8055,1.765
8056,1.765
8057,1.765
8058,1.765
8059,1.765
8060,1.765
8061,1.765
8062,1.765
8063,1.770
8064,1.765
8065,1.765
8066,1.775
8067,1.780
8068,1.775
8069,1.770
8070,1.765
8071,1.770
8072,1.770
8073,1.780
8074,1.770
8075,1.770
8076,1.775
8077,1.775
8078,1.790
8079,1.790
8080,1.775
8081,1.770
8082,1.795
8083,1.795
8084,1.795
8085,1.790
8086,1.795
8087,1.795
8088,1.810
8089,1.800
8090,1.805
8091,1.805
8092,1.825
8093,1.825
8094,1.840
8095,1.855
8096,1.870
8097,1.865
8098,1.860
8099,1.890
8100,1.930
8101,1.975
8102,1.960
8103,1.930
8104,1.930
8105,1.925
8106,1.930
8107,1.920
8108,1.890
8109,1.860
8110,1.840
8111,1.830
8112,1.805
8113,1.810
8114,1.790
8115,1.775
8116,1.765
8117,1.750
8118,1.745
8119,1.745
8120,1.750
8121,1.750
8122,1.745
8123,1.745
8124,1.740
8125,1.740
8126,1.735
8127,1.745
8128,1.750
8129,1.760
8130,1.765
8131,1.770
8132,1.790
8133,1.790
8134,1.795
8135,1.780
8136,1.750
8137,1.740
8138,1.835
8139,2.080
8140,2.485
8141,3.020
8142,3.515
8143,3.710
8144,3.695
8145,3.670
8146,3.655
8147,3.590
8148,3.290
8149,2.290
8150,1.410
8151,1.420
8152,1.645
8153,1.805
8154,1.855
8155,1.850
8156,1.805
8157,1.780
8158,1.745
8159,1.720
8160,1.730
8161,1.715
8162,1.715
8163,1.715
8164,1.735
8165,1.740
8166,1.750
8167,1.760
8168,1.765
8169,1.770
8170,1.780
8171,1.780
8172,1.790
8173,1.795
8174,1.795
8175,1.795
8176,1.805
8177,1.805
8178,1.830
8179,1.835
8180,1.840
8181,1.855
8182,1.855
8183,1.865
8184,1.880
8185,1.890
8186,1.910
8187,1.925
8188,1.945
8189,1.945
8190,1.960
8191,1.985
8192,2.010
8193,2.030
8194,2.045
8195,2.060
8196,2.095
8197,2.125
8198,2.135
8199,2.160
8200,2.190
8201,2.215
8202,2.240
8203,2.260
8204,2.285
8205,2.320
8206,2.340
8207,2.360
8208,2.365
8209,2.380
8210,2.395
8211,2.410
8212,2.425
8213,2.435
8214,2.450
8215,2.465
8216,2.490
8217,2.485
8218,2.485
8219,2.480
8220,2.480
8221,2.430
8222,2.390
8223,2.340
8224,2.290
8225,2.245
8226,2.190
8227,2.155
8228,2.100
8229,2.070
8230,2.035
8231,2.015
8232,1.990
8233,1.970
8234,1.945
8235,1.940
8236,1.940
8237,1.915
8238,1.900
8239,1.900
8240,1.910
8241,1.900
8242,1.900
8243,1.890
8244,1.890
8245,1.885
8246,1.880
8247,1.880
8248,1.880
8249,1.880
8250,1.880
8251,1.880
8252,1.885
8253,1.885
8254,1.880
8255,1.880
8256,1.880
8257,1.880
8258,1.885
8259,1.880
8260,1.900
8261,1.890
8262,1.885
8263,1.885
8264,1.885
8265,1.880
8266,1.870
8267,1.865
8268,1.860
8269,1.860
8270,1.860
8271,1.855
8272,1.860
8273,1.850
8274,1.840
8275,1.840
8276,1.835
8277,1.830
8278,1.820
8279,1.825
8280,1.825
8281,1.805
8282,1.800
8283,1.800
8284,1.790
8285,1.780
8286,1.780
8287,1.775
8288,1.775
8289,1.770
8290,1.765
8291,1.765
8292,1.750
8293,1.750
8294,1.750
8295,1.760
8296,1.750
8297,1.740
8298,1.745
8299,1.745
8300,1.745
8301,1.735
8302,1.730
8303,1.720
8304,1.730
8305,1.735
8306,1.735
8307,1.735
8308,1.730
8309,1.735
8310,1.735
8311,1.735
8312,1.740
8313,1.740
8314,1.740
8315,1.740
8316,1.740
8317,1.740
8318,1.745
8319,1.740
8320,1.740
8321,1.735
8322,1.745
8323,1.740
8324,1.740
8325,1.740
8326,1.745
8327,1.745
8328,1.745
8329,1.740
8330,1.740
8331,1.750
8332,1.750
8333,1.750
8334,1.750
8335,1.745
8336,1.745
8337,1.740
8338,1.745
8339,1.745
8340,1.750
8341,1.760
8342,1.750
8343,1.765
8344,1.760
8345,1.765
8346,1.775
8347,1.790
8348,1.805
8349,1.805
8350,1.830
8351,1.840
8352,1.825
8353,1.820
8354,1.855
8355,1.925
8356,1.955
8357,1.930
8358,1.910
8359,1.900
8360,1.910
8361,1.900
8362,1.890
8363,1.855
8364,1.840
8365,1.805
8366,1.795
8367,1.775
8368,1.770
8369,1.760
8370,1.745
8371,1.740
8372,1.745
8373,1.740
8374,1.735
8375,1.735
8376,1.730
8377,1.715
8378,1.735
8379,1.735
8380,1.730
8381,1.720
8382,1.740
8383,1.740
8384,1.750
8385,1.770
8386,1.765
8387,1.780
8388,1.780
8389,1.750
8390,1.715
8391,1.735
8392,1.910
8393,2.220
8394,2.705
8395,3.270
8396,3.625
8397,3.680
8398,3.640
8399,3.630
8400,3.610
8401,3.500
8402,2.890
8403,1.705
8404,1.405
8405,1.660
8406,1.805
8407,1.880
8408,1.880
8409,1.825
8410,1.790
8411,1.740
8412,1.730
8413,1.720
8414,1.720
8415,1.735
8416,1.740
8417,1.740
8418,1.745
8419,1.740
8420,1.760
8421,1.760
8422,1.765
8423,1.765
8424,1.775
8425,1.780
8426,1.795
8427,1.795
8428,1.805
8429,1.805
8430,1.810
8431,1.825
8432,1.835
8433,1.850
8434,1.855
8435,1.865
8436,1.885
8437,1.885
8438,1.890
8439,1.900
8440,1.925
8441,1.945
8442,1.970
8443,1.980
8444,2.005
8445,2.010
8446,2.030
8447,2.050
8448,2.075
8449,2.090
8450,2.105
8451,2.135
8452,2.160
8453,2.190
8454,2.200
8455,2.225
8456,2.260
8457,2.275
8458,2.300
8459,2.335
8460,2.365
8461,2.375
8462,2.405
8463,2.425
8464,2.450
8465,2.465
8466,2.470
8467,2.480
8468,2.495
8469,2.515
8470,2.550
8471,2.555
8472,2.545
8473,2.510
8474,2.485
8475,2.440
8476,2.390
8477,2.330
8478,2.275
8479,2.225
8480,2.185
8481,2.130
8482,2.080
8483,2.050
8484,2.030
8485,2.000
8486,1.975
8487,1.950
8488,1.945
8489,1.945
8490,1.940
8491,1.925
8492,1.915
8493,1.910
8494,1.910
8495,1.900
8496,1.900
8497,1.900
8498,1.890
8499,1.890
8500,1.890
8501,1.885
8502,1.880
8503,1.880
8504,1.880
8505,1.870
8506,1.870
8507,1.880
8508,1.885
8509,1.885
8510,1.880
8511,1.885
8512,1.870
8513,1.870
8514,1.870
8515,1.865
8516,1.870
8517,1.860
8518,1.870
8519,1.865
8520,1.865
8521,1.860
8522,1.860
8523,1.860
8524,1.865
8525,1.855
8526,1.850
8527,1.855
8528,1.850
8529,1.850
8530,1.850
8531,1.835
8532,1.835
8533,1.830
8534,1.830
8535,1.825
8536,1.825
8537,1.810
8538,1.805
8539,1.805
8540,1.805
8541,1.795
8542,1.790
8543,1.790
8544,1.790
8545,1.780
8546,1.790
8547,1.780
8548,1.780
8549,1.775
8550,1.775
8551,1.770
8552,1.775
8553,1.775
8554,1.775
8555,1.770
8556,1.775
8557,1.765
8558,1.775
8559,1.770
8560,1.770
8561,1.765
8562,1.780
8563,1.780
8564,1.795
8565,1.770
8566,1.775
8567,1.775
8568,1.775
8569,1.765
8570,1.780
8571,1.790
8572,1.780
8573,1.780
8574,1.780
8575,1.790
8576,1.780
8577,1.765
8578,1.780
8579,1.790
8580,1.795
8581,1.795
8582,1.805
8583,1.805
8584,1.805
8585,1.805
8586,1.805
8587,1.805
8588,1.810
8589,1.810
8590,1.825
8591,1.825
8592,1.825
8593,1.810
8594,1.820
8595,1.810
8596,1.810
8597,1.820
8598,1.830
8599,1.850
8600,1.860
8601,1.860
8602,1.865
8603,1.885
8604,1.880
8605,1.865
8606,1.900
8607,1.955
8608,2.015
8609,2.000
8610,1.975
8611,1.970
8612,1.970
8613,1.960
8614,1.950
8615,1.925
8616,1.900
8617,1.885
8618,1.850
8619,1.835
8620,1.835
8621,1.825
8622,1.805
8623,1.795
8624,1.790
8625,1.780
8626,1.780
8627,1.780
8628,1.780
8629,1.770
8630,1.770
8631,1.770
8632,1.765
8633,1.770
8634,1.780
8635,1.790
8636,1.790
8637,1.790
8638,1.800
8639,1.810
8640,1.825
8641,1.805
8642,1.765
8643,1.735
8644,1.795
8645,2.045
8646,2.425
8647,2.965
8648,3.475
8649,3.665
8650,3.655
8651,3.635
8652,3.610
8653,3.565
8654,3.350
8655,2.420
8656,1.465
8657,1.530
8658,1.770
8659,1.860
8660,1.910
8661,1.880
8662,1.835
8663,1.805
8664,1.765
8665,1.745
8666,1.740
8667,1.745
8668,1.750
8669,1.745
8670,1.760
8671,1.750
8672,1.760
8673,1.765
8674,1.770
8675,1.780
8676,1.780
8677,1.780
8678,1.780
8679,1.795
8680,1.800
8681,1.805
8682,1.820
8683,1.820
8684,1.825
8685,1.830
8686,1.835
8687,1.840
8688,1.860
8689,1.865
8690,1.880
8691,1.890
8692,1.910
8693,1.925
8694,1.930
8695,1.955
8696,1.970
8697,1.985
8698,2.005
8699,2.020
8700,2.040
8701,2.050
8702,2.075
8703,2.105
8704,2.135
8705,2.155
8706,2.180
8707,2.215
8708,2.245
8709,2.260
8710,2.285
8711,2.335
8712,2.360
8713,2.380
8714,2.395
8715,2.405
8716,2.420
8717,2.440
8718,2.470
8719,2.490
8720,2.510
8721,2.510
8722,2.530
8723,2.530
8724,2.530
8725,2.515
8726,2.495
8727,2.465
8728,2.420
8729,2.370
8730,2.310
8731,2.250
8732,2.220
8733,2.165
8734,2.120
8735,2.075
8736,2.050
8737,2.015
8738,2.000
8739,2.000
8740,1.980
8741,1.960
8742,1.940
8743,1.925
8744,1.915
8745,1.925
8746,1.925
8747,1.915
8748,1.910
8749,1.900
8750,1.900
8751,1.890
8752,1.900
8753,1.885
8754,1.885
8755,1.880
8756,1.870
8757,1.865
8758,1.865
8759,1.880
8760,1.870
8761,1.865
8762,1.880
8763,1.880
8764,1.870
8765,1.865
8766,1.860
8767,1.865
8768,1.865
8769,1.855
8770,1.855
8771,1.855
8772,1.855
8773,1.850
8774,1.850
8775,1.840
8776,1.835
8777,1.830
8778,1.830
8779,1.820
8780,1.810
8781,1.810
8782,1.810
8783,1.830
8784,1.825
8785,1.810
8786,1.800
8787,1.795
8788,1.780
8789,1.765
8790,1.770
8791,1.770
8792,1.770
8793,1.760
8794,1.750
8795,1.745
8796,1.740
8797,1.735
8798,1.730
8799,1.735
8800,1.740
8801,1.740
8802,1.745
8803,1.735
8804,1.735
8805,1.730
8806,1.735
8807,1.720
8808,1.720
8809,1.715
8810,1.715
8811,1.720
8812,1.715
8813,1.715
8814,1.720
8815,1.720
8816,1.735
8817,1.735
8818,1.735
8819,1.720
8820,1.720
8821,1.735
8822,1.735
8823,1.735
8824,1.730
8825,1.735
8826,1.720
8827,1.720
8828,1.730
8829,1.735
8830,1.740
8831,1.740
8832,1.740
8833,1.740
8834,1.740
8835,1.745
8836,1.750
8837,1.740
8838,1.745
8839,1.745
8840,1.750
8841,1.740
8842,1.745
8843,1.745
8844,1.750
8845,1.760
8846,1.765
8847,1.770
8848,1.780
8849,1.780
8850,1.800
8851,1.805
8852,1.810
8853,1.805
8854,1.820
8855,1.860
8856,1.910
8857,1.925
8858,1.890
8859,1.865
8860,1.880
8861,1.885
8862,1.885
8863,1.880
8864,1.850
8865,1.810
8866,1.795
8867,1.775
8868,1.775
8869,1.760
8870,1.735
8871,1.720
8872,1.740
8873,1.735
8874,1.730
8875,1.715
8876,1.715
8877,1.710
8878,1.710
8879,1.715
8880,1.710
8881,1.705
8882,1.715
8883,1.735
8884,1.740
8885,1.740
8886,1.745
8887,1.745
8888,1.760
8889,1.750
8890,1.720
8891,1.705
8892,1.820
8893,2.075
8894,2.515
8895,3.085
8896,3.540
8897,3.670
8898,3.625
8899,3.605
8900,3.590
8901,3.490
8902,2.975
8903,1.790
8904,1.325
8905,1.530
8906,1.720
8907,1.810
8908,1.835
8909,1.805
8910,1.775
8911,1.735
8912,1.715
8913,1.710
8914,1.700
8915,1.700
8916,1.705
8917,1.715
8918,1.720
8919,1.720
8920,1.730
8921,1.735
8922,1.745
8923,1.740
8924,1.745
8925,1.745
8926,1.760
8927,1.770
8928,1.775
8929,1.790
8930,1.800
8931,1.795
8932,1.805
8933,1.820
8934,1.825
8935,1.840
8936,1.860
8937,1.860
8938,1.880
8939,1.890
8940,1.910
8941,1.925
8942,1.940
8943,1.955
8944,1.975
8945,1.990
8946,2.020
8947,2.045
8948,2.050
8949,2.075
8950,2.100
8951,2.125
8952,2.155
8953,2.190
8954,2.220
8955,2.240
8956,2.280
8957,2.300
8958,2.315
8959,2.320
8960,2.350
8961,2.380
8962,2.405
8963,2.410
8964,2.440
8965,2.460
8966,2.480
8967,2.500
8968,2.510
8969,2.510
8970,2.515
8971,2.515
8972,2.495
8973,2.460
8974,2.420
8975,2.365
8976,2.310
8977,2.255
8978,2.215
8979,2.155
8980,2.110
8981,2.070
8982,2.020
8983,2.000
8984,1.975
8985,1.950
8986,1.930
8987,1.920
8988,1.910
8989,1.890
8990,1.890
8991,1.890
8992,1.880
8993,1.865
8994,1.880
8995,1.880
8996,1.870
8997,1.865
8998,1.855
8999,1.855
9000,1.850
9001,1.855
9002,1.850
9003,1.840
9004,1.840
9005,1.840
9006,1.840
9007,1.840
9008,1.850
9009,1.835
9010,1.840
9011,1.840
9012,1.840
9013,1.835
9014,1.840
9015,1.835
9016,1.830
9017,1.830
9018,1.830
9019,1.835
9020,1.835
9021,1.830
9022,1.830
9023,1.830
9024,1.825
9025,1.810
9026,1.820
9027,1.810
9028,1.805
9029,1.790
9030,1.795
9031,1.780
9032,1.775
9033,1.765
9034,1.780
9035,1.780
9036,1.775
9037,1.765
9038,1.745
9039,1.745
9040,1.745
9041,1.735
9042,1.735
9043,1.740
9044,1.730
9045,1.735
9046,1.735
9047,1.740
9048,1.740
9049,1.735
9050,1.735
9051,1.715
9052,1.720
9053,1.715
9054,1.730
9055,1.720
9056,1.720
9057,1.720
9058,1.720
9059,1.720
9060,1.730
9061,1.730
9062,1.730
9063,1.735
9064,1.740
9065,1.735
9066,1.735
9067,1.735
9068,1.730
9069,1.735
9070,1.735
9071,1.740
9072,1.740
9073,1.745
9074,1.740
9075,1.740
9076,1.740
9077,1.740
9078,1.740
9079,1.745
9080,1.745
9081,1.740
9082,1.745
9083,1.745
9084,1.750
9085,1.740
9086,1.745
9087,1.745
9088,1.740
9089,1.740
9090,1.745
9091,1.740
9092,1.745
9093,1.750
9094,1.770
9095,1.795
9096,1.795
9097,1.810
9098,1.835
9099,1.830
9100,1.820
9101,1.830
9102,1.880
9103,1.940
9104,1.945
9105,1.915
9106,1.900
9107,1.890
9108,1.910
9109,1.895
9110,1.865
9111,1.850
9112,1.835
9113,1.805
9114,1.790
9115,1.790
9116,1.770
9117,1.750
9118,1.745
9119,1.740
9120,1.740
9121,1.740
9122,1.735
9123,1.735
9124,1.730
9125,1.720
9126,1.720
9127,1.730
9128,1.735
9129,1.735
9130,1.740
9131,1.745
9132,1.765
9133,1.770
9134,1.770
9135,1.770
9136,1.750
9137,1.715
9138,1.710
9139,1.860
9140,2.185
9141,2.650
9142,3.240
9143,3.630
9144,3.685
9145,3.630
9146,3.610
9147,3.580
9148,3.480
9149,2.875
9150,1.700
9151,1.405
9152,1.655
9153,1.805
9154,1.890
9155,1.890
9156,1.850
9157,1.805
9158,1.750
9159,1.735
9160,1.720
9161,1.730
9162,1.720
9163,1.730
9164,1.730
9165,1.740
9166,1.745
9167,1.745
9168,1.740
9169,1.740
9170,1.750
9171,1.765
9172,1.765
9173,1.770
9174,1.780
9175,1.790
9176,1.795
9177,1.805
9178,1.820
9179,1.825
9180,1.835
9181,1.850
9182,1.855
9183,1.855
9184,1.880
9185,1.885
9186,1.900
9187,1.910
9188,1.925
9189,1.930
9190,1.955
9191,1.980
9192,1.985
9193,2.005
9194,2.035
9195,2.050
9196,2.075
9197,2.090
9198,2.105
9199,2.135
9200,2.180
9201,2.190
9202,2.220
9203,2.250
9204,2.270
9205,2.285
9206,2.305
9207,2.340
9208,2.350
9209,2.390
9210,2.410
9211,2.430
9212,2.435
9213,2.440
9214,2.480
9215,2.490
9216,2.500
9217,2.515
9218,2.520
9219,2.515
9220,2.480
9221,2.420
9222,2.370
9223,2.320
9224,2.270
9225,2.215
9226,2.165
9227,2.125
9228,2.090
9229,2.045
9230,2.010
9231,1.980
9232,1.960
9233,1.930
9234,1.915
9235,1.915
9236,1.910
9237,1.895
9238,1.900
9239,1.890
9240,1.890
9241,1.890
9242,1.885
9243,1.890
9244,1.885
9245,1.880
9246,1.880
9247,1.880
9248,1.870
9249,1.860
9250,1.865
9251,1.865
9252,1.865
9253,1.860
9254,1.880
9255,1.880
9256,1.880
9257,1.870
9258,1.870
9259,1.880
9260,1.870
9261,1.865
9262,1.865
9263,1.870
9264,1.870
9265,1.870
9266,1.870
9267,1.865
9268,1.865
9269,1.860
9270,1.850
9271,1.850
9272,1.850
9273,1.835
9274,1.835
9275,1.830
9276,1.830
9277,1.840
9278,1.830
9279,1.825
9280,1.820
9281,1.810
9282,1.810
9283,1.805
9284,1.805
9285,1.790
9286,1.790
9287,1.795
9288,1.800
9289,1.790
9290,1.790
9291,1.780
9292,1.775
9293,1.780
9294,1.770
9295,1.770
9296,1.765
9297,1.765
9298,1.765
9299,1.770
9300,1.770
9301,1.765
9302,1.770
9303,1.765
9304,1.765
9305,1.765
9306,1.765
9307,1.765
9308,1.770
9309,1.775
9310,1.780
9311,1.780
9312,1.780
9313,1.775
9314,1.770
9315,1.775
9316,1.775
9317,1.780
9318,1.790
9319,1.790
9320,1.790
9321,1.790
9322,1.795
9323,1.795
9324,1.800
9325,1.790
9326,1.805
9327,1.800
9328,1.810
9329,1.810
9330,1.805
9331,1.810
9332,1.820
9333,1.810
9334,1.810
9335,1.810
9336,1.810
9337,1.810
9338,1.820
9339,1.820
9340,1.825
9341,1.840
9342,1.850
9343,1.855
9344,1.870
9345,1.900
9346,1.900
9347,1.885
9348,1.895
9349,1.930
9350,2.000
9351,2.015
9352,1.990
9353,1.955
9354,1.960
9355,1.970
9356,1.955
9357,1.925
9358,1.895
9359,1.890
9360,1.860
9361,1.835
9362,1.830
9363,1.830
9364,1.805
9365,1.790
9366,1.790
9367,1.780
9368,1.770
9369,1.770
9370,1.770
9371,1.770
9372,1.765
9373,1.760
9374,1.760
9375,1.760
9376,1.765
9377,1.790
9378,1.780
9379,1.790
9380,1.805
9381,1.820
9382,1.820
9383,1.805
9384,1.770
9385,1.740
9386,1.830
9387,2.070
9388,2.485
9389,3.040
9390,3.530
9391,3.695
9392,3.660
9393,3.630
9394,3.620
9395,3.565
9396,3.275
9397,2.190
9398,1.420
9399,1.610
9400,1.810
9401,1.890
9402,1.915
9403,1.865
9404,1.835
9405,1.780
9406,1.750
9407,1.740
9408,1.740
9409,1.740
9410,1.745
9411,1.765
9412,1.765
9413,1.770
9414,1.765
9415,1.770
9416,1.765
9417,1.775
9418,1.780
9419,1.790
9420,1.805
9421,1.795
9422,1.805
9423,1.805
9424,1.820
9425,1.810
9426,1.835
9427,1.840
9428,1.855
9429,1.860
9430,1.865
9431,1.885
9432,1.895
9433,1.910
9434,1.915
9435,1.925
9436,1.955
9437,1.975
9438,1.990
9439,2.005
9440,2.015
9441,2.030
9442,2.050
9443,2.080
9444,2.100
9445,2.120
9446,2.140
9447,2.170
9448,2.195
9449,2.220
9450,2.240
9451,2.270
9452,2.305
9453,2.330
9454,2.365
9455,2.380
9456,2.400
9457,2.420
9458,2.440
9459,2.460
9460,2.480
9461,2.500
9462,2.500
9463,2.515
9464,2.530
9465,2.530
9466,2.525
9467,2.500
9468,2.460
9469,2.420
9470,2.375
9471,2.310
9472,2.250
9473,2.200
9474,2.165
9475,2.130
9476,2.090
9477,2.040
9478,2.005
9479,1.985
9480,1.970
9481,1.960
9482,1.940
9483,1.940
9484,1.930
9485,1.925
9486,1.920
9487,1.895
9488,1.910
9489,1.900
9490,1.900
9491,1.900
9492,1.900
9493,1.885
9494,1.880
9495,1.880
9496,1.870
9497,1.885
9498,1.885
9499,1.880
9500,1.885
9501,1.885
9502,1.900
9503,1.890
9504,1.880
9505,1.860
9506,1.865
9507,1.870
9508,1.885
9509,1.880
9510,1.865
9511,1.870
9512,1.865
9513,1.860
9514,1.855
9515,1.850
9516,1.840
9517,1.850
9518,1.850
9519,1.850
9520,1.850
9521,1.835
9522,1.835
9523,1.830
9524,1.825
9525,1.810
9526,1.810
9527,1.805
9528,1.805
9529,1.805
9530,1.805
9531,1.795
9532,1.795
9533,1.780
9534,1.775
9535,1.780
9536,1.780
9537,1.780
9538,1.780
9539,1.780
9540,1.780
9541,1.775
9542,1.770
9543,1.770
9544,1.765
9545,1.765
9546,1.775
9547,1.775
9548,1.765
9549,1.750
9550,1.760
9551,1.760
9552,1.765
9553,1.760
9554,1.770
9555,1.770
9556,1.765
9557,1.765
9558,1.765
9559,1.770
9560,1.765
9561,1.770
9562,1.770
9563,1.770
9564,1.770
9565,1.780
9566,1.770
9567,1.770
9568,1.775
9569,1.765
9570,1.770
9571,1.770
9572,1.790
9573,1.780
9574,1.780
9575,1.780
9576,1.790
9577,1.790
9578,1.795
9579,1.780
9580,1.790
9581,1.790
9582,1.795
9583,1.795
9584,1.790
9585,1.795
9586,1.820
9587,1.810
9588,1.805
9589,1.820
9590,1.830
9591,1.850
9592,1.865
9593,1.880
9594,1.865
9595,1.870
9596,1.900
9597,1.940
9598,1.990
9599,1.985
9600,1.955
9601,1.945
9602,1.945
9603,1.940
9604,1.945
9605,1.915
9606,1.890
9607,1.860
9608,1.825
9609,1.820
9610,1.830
9611,1.810
9612,1.795
9613,1.780
9614,1.775
9615,1.770
9616,1.765
9617,1.765
9618,1.760
9619,1.750
9620,1.750
9621,1.760
9622,1.760
9623,1.765
9624,1.765
9625,1.770
9626,1.770
9627,1.780
9628,1.790
9629,1.795
9630,1.800
9631,1.780
9632,1.750
9633,1.745
9634,1.890
9635,2.180
9636,2.650
9637,3.230
9638,3.625
9639,3.715
9640,3.670
9641,3.640
9642,3.605
9643,3.500
9644,2.880
9645,1.700
9646,1.400
9647,1.625
9648,1.795
9649,1.860
9650,1.865
9651,1.810
9652,1.775
9653,1.735
9654,1.720
9655,1.720
9656,1.715
9657,1.715
9658,1.715
9659,1.720
9660,1.730
9661,1.735
9662,1.740
9663,1.745
9664,1.745
9665,1.745
9666,1.765
9667,1.765
9668,1.775
9669,1.790
9670,1.780
9671,1.795
9672,1.810
9673,1.820
9674,1.825
9675,1.830
9676,1.835
9677,1.855
9678,1.870
9679,1.885
9680,1.895
9681,1.895
9682,1.920
9683,1.930
9684,1.945
9685,1.970
9686,1.985
9687,2.010
9688,2.030
9689,2.045
9690,2.075
9691,2.100
9692,2.125
9693,2.150
9694,2.165
9695,2.180
9696,2.215
9697,2.230
9698,2.270
9699,2.305
9700,2.340
9701,2.370
9702,2.395
9703,2.410
9704,2.440
9705,2.440
9706,2.460
9707,2.470
9708,2.490
9709,2.500
9710,2.525
9711,2.525
9712,2.520
9713,2.515
9714,2.495
9715,2.460
9716,2.405
9717,2.365
9718,2.320
9719,2.250
9720,2.210
9721,2.155
9722,2.105
9723,2.065
9724,2.030
9725,2.005
9726,2.000
9727,1.975
9728,1.960
9729,1.945
9730,1.925
9731,1.925
9732,1.915
9733,1.910
9734,1.895
9735,1.890
9736,1.890
9737,1.885
9738,1.880
9739,1.880
9740,1.880
9741,1.880
9742,1.865
9743,1.855
9744,1.850
9745,1.855
9746,1.865
9747,1.880
9748,1.880
9749,1.865
9750,1.860
9751,1.860
9752,1.860
9753,1.860
9754,1.860
9755,1.855
9756,1.855
9757,1.860
9758,1.855
9759,1.855
9760,1.850
9761,1.835
9762,1.840
9763,1.835
9764,1.840
9765,1.835
9766,1.835
9767,1.820
9768,1.820
9769,1.810
9770,1.810
9771,1.810
9772,1.805
9773,1.795
9774,1.795
9775,1.790
9776,1.790
9777,1.780
9778,1.775
9779,1.765
9780,1.770
9781,1.765
9782,1.770
9783,1.765
9784,1.765
9785,1.765
9786,1.770
9787,1.760
9788,1.750
9789,1.740
9790,1.745
9791,1.745
9792,1.760
9793,1.750
9794,1.750
9795,1.745
9796,1.750
9797,1.745
9798,1.745
9799,1.745
9800,1.750
9801,1.750
9802,1.765
9803,1.750
9804,1.750
9805,1.740
9806,1.740
9807,1.735
9808,1.740
9809,1.745
9810,1.750
9811,1.765
9812,1.750
9813,1.760
9814,1.765
9815,1.760
9816,1.760
9817,1.765
9818,1.760
9819,1.765
9820,1.770
9821,1.760
9822,1.765
9823,1.770
9824,1.775
9825,1.765
9826,1.765
9827,1.770
9828,1.765
9829,1.770
9830,1.760
9831,1.770
9832,1.775
9833,1.780
9834,1.800
9835,1.795
9836,1.820
9837,1.835
9838,1.840
9839,1.835
9840,1.850
9841,1.885
9842,1.940
9843,1.940
9844,1.910
9845,1.910
9846,1.900
9847,1.910
9848,1.900
9849,1.880
9850,1.855
9851,1.820
9852,1.805
9853,1.780
9854,1.805
9855,1.780
9856,1.760
9857,1.740
9858,1.745
9859,1.740
9860,1.740
9861,1.735
9862,1.720
9863,1.735
9864,1.730
9865,1.730
9866,1.720
9867,1.735
9868,1.735
9869,1.740
9870,1.740
9871,1.745
9872,1.765
9873,1.765
9874,1.770
9875,1.745
9876,1.715
9877,1.745
9878,1.900
9879,2.240
9880,2.750
9881,3.320
9882,3.640
9883,3.660
9884,3.635
9885,3.600
9886,3.565
9887,3.415
9888,2.640
9889,1.540
9890,1.430
9891,1.670
9892,1.820
9893,1.865
9894,1.855
9895,1.820
9896,1.775
9897,1.740
9898,1.720
9899,1.720
9900,1.720
9901,1.740
9902,1.735
9903,1.735
9904,1.745
9905,1.760
9906,1.750
9907,1.750
9908,1.770
9909,1.765
9910,1.770
9911,1.780
9912,1.795
9913,1.805
9914,1.805
9915,1.805
9916,1.810
9917,1.820
9918,1.830
9919,1.835
9920,1.850
9921,1.855
9922,1.865
9923,1.880
9924,1.885
9925,1.895
9926,1.925
9927,1.945
9928,1.945
9929,1.960
9930,1.975
9931,2.000
9932,2.020
9933,2.030
9934,2.045
9935,2.075
9936,2.100
9937,2.130
9938,2.150
9939,2.170
9940,2.195
9941,2.220
9942,2.240
9943,2.270
9944,2.305
9945,2.320
9946,2.350
9947,2.365
9948,2.380
9949,2.390
9950,2.405
9951,2.410
9952,2.425
9953,2.435
9954,2.460
9955,2.470
9956,2.485
9957,2.460
9958,2.435
9959,2.390
9960,2.335
9961,2.300
9962,2.260
9963,2.210
9964,2.160
9965,2.125
9966,2.075
9967,2.035
9968,2.000
9969,1.975
9970,1.950
9971,1.940
9972,1.915
9973,1.900
9974,1.900
9975,1.890
9976,1.895
9977,1.880
9978,1.880
9979,1.885
9980,1.880
9981,1.860
9982,1.860
9983,1.860
9984,1.855
9985,1.855
9986,1.850
9987,1.855
9988,1.860
9989,1.855
9990,1.855
9991,1.855
9992,1.860
9993,1.860
9994,1.860
9995,1.860
9996,1.850
9997,1.840
9998,1.850
9999,1.850
10000,1.835
10001,1.835
10002,1.850
10003,1.840
10004,1.835
10005,1.840
10006,1.830
10007,1.830
10008,1.825
10009,1.810
10010,1.820
10011,1.820
10012,1.810
10013,1.805
10014,1.800
10015,1.795
10016,1.795
10017,1.790
10018,1.780
10019,1.780
10020,1.770
10021,1.765
10022,1.750
10023,1.750
10024,1.760
10025,1.750
10026,1.750
10027,1.745
10028,1.740
10029,1.740
10030,1.740
10031,1.730
10032,1.735
10033,1.740
10034,1.740
10035,1.740
10036,1.740
10037,1.740
10038,1.735
10039,1.735
10040,1.745
10041,1.740
10042,1.740
10043,1.745
10044,1.750
10045,1.745
10046,1.745
10047,1.750
10048,1.745
10049,1.740
10050,1.735
10051,1.740
10052,1.745
10053,1.750
10054,1.760
10055,1.750
10056,1.750
10057,1.750
10058,1.765
10059,1.750
10060,1.745
10061,1.740
10062,1.765
10063,1.770
10064,1.765
10065,1.765
10066,1.770
10067,1.770
10068,1.775
10069,1.775
10070,1.775
10071,1.770
10072,1.775
10073,1.780
10074,1.780
10075,1.780
10076,1.795
10077,1.795
10078,1.805
10079,1.820
10080,1.825
10081,1.835
10082,1.860
10083,1.850
10084,1.850
10085,1.870
10086,1.920
10087,1.980
10088,1.960
10089,1.925
10090,1.915
10091,1.925
10092,1.925
10093,1.915
10094,1.890
10095,1.860
10096,1.840
10097,1.810
10098,1.805
10099,1.805
10100,1.795
10101,1.780
10102,1.770
10103,1.770
10104,1.765
10105,1.750
10106,1.750
10107,1.750
10108,1.750
10109,1.750
10110,1.760
10111,1.745
10112,1.750
10113,1.770
10114,1.770
10115,1.775
10116,1.790
10117,1.790
10118,1.805
10119,1.820
10120,1.795
10121,1.750
10122,1.735
10123,1.840
10124,2.135
10125,2.600
10126,3.170
10127,3.570
10128,3.655
10129,3.630
10130,3.605
10131,3.595
10132,3.535
10133,3.125
10134,1.975
10135,1.435
10136,1.675
10137,1.850
10138,1.910
10139,1.915
10140,1.880
10141,1.830
10142,1.790
10143,1.765
10144,1.750
10145,1.765
10146,1.765
10147,1.765
10148,1.770
10149,1.770
10150,1.770
10151,1.780
10152,1.775
10153,1.780
10154,1.790
10155,1.800
10156,1.810
10157,1.810
10158,1.825
10159,1.820
10160,1.835
10161,1.850
10162,1.850
10163,1.860
10164,1.870
10165,1.880
10166,1.885
10167,1.900
10168,1.900
10169,1.920
10170,1.925
10171,1.940
10172,1.960
10173,1.985
10174,2.000
10175,2.010
10176,2.035
10177,2.045
10178,2.060
10179,2.090
10180,2.110
10181,2.130
10182,2.155
10183,2.180
10184,2.210
10185,2.230
10186,2.255
10187,2.275
10188,2.305
10189,2.320
10190,2.345
10191,2.390
10192,2.410
10193,2.420
10194,2.440
10195,2.455
10196,2.485
10197,2.490
10198,2.520
10199,2.530
10200,2.555
10201,2.575
10202,2.560
10203,2.560
10204,2.545
10205,2.490
10206,2.430
10207,2.380
10208,2.335
10209,2.280
10210,2.225
10211,2.165
10212,2.130
10213,2.080
10214,2.070
10215,2.045
10216,2.030
10217,2.005
10218,1.985
10219,1.975
10220,1.970
10221,1.960
10222,1.950
10223,1.940
10224,1.940
10225,1.930
10226,1.930
10227,1.930
10228,1.925
10229,1.925
10230,1.925
10231,1.915
10232,1.915
10233,1.910
10234,1.915
10235,1.920
10236,1.920
10237,1.915
10238,1.915
10239,1.910
10240,1.895
10241,1.890
10242,1.900
10243,1.890
10244,1.885
10245,1.885
10246,1.885
10247,1.890
10248,1.895
10249,1.880
10250,1.865
10251,1.865
10252,1.870
10253,1.865
10254,1.880
10255,1.865
10256,1.860
10257,1.855
10258,1.855
10259,1.840
10260,1.850
10261,1.835
10262,1.840
10263,1.830
10264,1.830
10265,1.830
10266,1.830
10267,1.830
10268,1.825
10269,1.810
10270,1.820
10271,1.810
10272,1.810
10273,1.805
10274,1.800
10275,1.805
10276,1.795
10277,1.795
10278,1.790
10279,1.780
10280,1.800
10281,1.805
10282,1.780
10283,1.780
10284,1.790
10285,1.795
10286,1.790
10287,1.790
10288,1.780
10289,1.790
10290,1.780
10291,1.780
10292,1.780
10293,1.780
10294,1.780
10295,1.780
10296,1.780
10297,1.775
10298,1.795
10299,1.795
10300,1.790
10301,1.790
10302,1.795
10303,1.795
10304,1.790
10305,1.790
10306,1.795
10307,1.795
10308,1.805
10309,1.800
10310,1.800
10311,1.795
10312,1.800
10313,1.795
10314,1.805
10315,1.805
10316,1.810
10317,1.810
10318,1.820
10319,1.820
10320,1.830
10321,1.830
10322,1.825
10323,1.830
10324,1.850
10325,1.865
10326,1.885
10327,1.900
10328,1.885
10329,1.880
10330,1.900
10331,1.950
10332,2.000
10333,1.985
10334,1.955
10335,1.945
10336,1.945
10337,1.950
10338,1.945
10339,1.915
10340,1.895
10341,1.870
10342,1.840
10343,1.830
10344,1.835
10345,1.810
10346,1.795
10347,1.795
10348,1.780
10349,1.775
10350,1.770
10351,1.770
10352,1.775
10353,1.770
10354,1.780
10355,1.770
10356,1.780
10357,1.775
10358,1.775
10359,1.790
10360,1.795
10361,1.795
10362,1.805
10363,1.800
10364,1.805
10365,1.775
10366,1.740
10367,1.760
10368,1.945
10369,2.290
10370,2.815
10371,3.385
10372,3.685
10373,3.685
10374,3.640
10375,3.620
10376,3.590
10377,3.395
10378,2.460
10379,1.445
10380,1.500
10381,1.745
10382,1.840
10383,1.890
10384,1.870
10385,1.810
10386,1.790
10387,1.745
10388,1.740
10389,1.745
10390,1.750
10391,1.745
10392,1.750
10393,1.760
10394,1.765
10395,1.760
10396,1.760
10397,1.760
10398,1.765
10399,1.770
10400,1.780
10401,1.790
10402,1.805
10403,1.790
10404,1.805
10405,1.810
10406,1.830
10407,1.830
10408,1.835
10409,1.835
10410,1.850
10411,1.860
10412,1.870
10413,1.885
10414,1.900
10415,1.915
10416,1.925
10417,1.945
10418,1.955
10419,1.975
10420,2.000
10421,2.015
10422,2.040
10423,2.050
10424,2.075
10425,2.100
10426,2.125
10427,2.140
10428,2.160
10429,2.185
10430,2.210
10431,2.225
10432,2.260
10433,2.280
10434,2.320
10435,2.360
10436,2.375
10437,2.390
10438,2.410
10439,2.425
10440,2.450
10441,2.460
10442,2.465
10443,2.490
10444,2.525
10445,2.515
10446,2.510
10447,2.485
10448,2.455
10449,2.410
10450,2.360
10451,2.310
10452,2.250
10453,2.195
10454,2.150
10455,2.120
10456,2.070
10457,2.020
10458,1.985
10459,1.960
10460,1.945
10461,1.930
10462,1.920
10463,1.900
10464,1.895
10465,1.885
10466,1.880
10467,1.870
10468,1.870
10469,1.870
10470,1.870
10471,1.870
10472,1.865
10473,1.860
10474,1.860
10475,1.850
10476,1.855
10477,1.855
10478,1.860
10479,1.860
10480,1.855
10481,1.855
10482,1.855
10483,1.855
10484,1.850
10485,1.830
10486,1.835
10487,1.840
10488,1.850
10489,1.840
10490,1.855
10491,1.850
10492,1.835
10493,1.840
10494,1.825
10495,1.820
10496,1.825
10497,1.825
10498,1.830
10499,1.830
10500,1.825
10501,1.810
10502,1.805
10503,1.805
10504,1.800
10505,1.790
10506,1.795
10507,1.795
10508,1.800
10509,1.780
10510,1.780
10511,1.780
10512,1.770
10513,1.770
10514,1.760
10515,1.765
10516,1.760
10517,1.750
10518,1.750
10519,1.745
10520,1.740
10521,1.730
10522,1.720
10523,1.730
10524,1.730
10525,1.715
10526,1.715
10527,1.720
10528,1.720
10529,1.735
10530,1.720
10531,1.735
10532,1.735
10533,1.735
10534,1.740
10535,1.735
10536,1.730
10537,1.720
10538,1.735
10539,1.735
10540,1.730
10541,1.735
10542,1.730
10543,1.735
10544,1.730
10545,1.735
10546,1.735
10547,1.745
10548,1.740
10549,1.735
10550,1.735
10551,1.740
10552,1.740
10553,1.740
10554,1.745
10555,1.740
10556,1.745
10557,1.740
10558,1.750
10559,1.750
10560,1.750
10561,1.760
10562,1.760
10563,1.765
10564,1.765
10565,1.765
10566,1.795
10567,1.805
10568,1.810
10569,1.830
10570,1.835
10571,1.830
10572,1.835
10573,1.860
10574,1.930
10575,1.955
10576,1.920
10577,1.900
10578,1.910
10579,1.925
10580,1.920
10581,1.885
10582,1.860
10583,1.835
10584,1.825
10585,1.790
10586,1.780
10587,1.780
10588,1.765
10589,1.750
10590,1.735
10591,1.730
10592,1.715
10593,1.715
10594,1.710
10595,1.715
10596,1.715
10597,1.710
10598,1.715
10599,1.720
10600,1.715
10601,1.715
10602,1.740
10603,1.735
10604,1.740
10605,1.740
10606,1.760
10607,1.765
10608,1.740
10609,1.715
10610,1.740
10611,1.890
10612,2.190
10613,2.635
10614,3.210
10615,3.575
10616,3.630
10617,3.590
10618,3.565
10619,3.520
10620,3.390
10621,2.725
10622,1.615
10623,1.360
10624,1.570
10625,1.740
10626,1.810
10627,1.830
10628,1.795
10629,1.750
10630,1.730
10631,1.715
10632,1.705
10633,1.690
10634,1.710
10635,1.710
10636,1.730
10637,1.710
10638,1.705
10639,1.720
10640,1.730
10641,1.730
10642,1.740
10643,1.745
10644,1.750
10645,1.770
10646,1.770
10647,1.775
10648,1.790
10649,1.790
10650,1.805
10651,1.820
10652,1.825
10653,1.835
10654,1.850
10655,1.855
10656,1.865
10657,1.885
10658,1.890
10659,1.900
10660,1.925
10661,1.945
10662,1.960
10663,1.990
10664,2.005
10665,2.030
10666,2.045
10667,2.060
10668,2.075
10669,2.105
10670,2.140
10671,2.165
10672,2.195
10673,2.215
10674,2.230
10675,2.270
10676,2.290
10677,2.320
10678,2.345
10679,2.370
10680,2.390
10681,2.400
10682,2.420
10683,2.430
10684,2.460
10685,2.470
10686,2.490
10687,2.490
10688,2.495
10689,2.485
10690,2.480
10691,2.455
10692,2.400
10693,2.365
10694,2.335
10695,2.290
10696,2.230
10697,2.190
10698,2.140
10699,2.080
10700,2.045
10701,2.020
10702,2.000
10703,1.975
10704,1.945
10705,1.925
10706,1.915
10707,1.920
10708,1.915
10709,1.900
10710,1.900
10711,1.900
10712,1.900
10713,1.890
10714,1.890
10715,1.890
10716,1.885
10717,1.880
10718,1.885
10719,1.880
10720,1.890
10721,1.885
10722,1.880
10723,1.880
10724,1.870
10725,1.880
10726,1.885
10727,1.885
10728,1.890
10729,1.885
10730,1.885
10731,1.870
10732,1.870
10733,1.865
10734,1.870
10735,1.870
10736,1.865
10737,1.860
10738,1.855
10739,1.860
10740,1.855
10741,1.855
10742,1.855
10743,1.855
10744,1.835
10745,1.835
10746,1.835
10747,1.835
10748,1.835
10749,1.830
10750,1.820
10751,1.795
10752,1.790
10753,1.800
10754,1.800
10755,1.805
10756,1.805
10757,1.795
10758,1.780
10759,1.780
10760,1.775
10761,1.775
10762,1.780
10763,1.770
10764,1.775
10765,1.765
10766,1.765
10767,1.760
10768,1.770
10769,1.765
10770,1.770
10771,1.770
10772,1.765
10773,1.770
10774,1.765
10775,1.775
10776,1.775
10777,1.750
10778,1.750
10779,1.770
10780,1.775
10781,1.770
10782,1.775
10783,1.770
10784,1.770
10785,1.770
10786,1.770
10787,1.780
10788,1.775
10789,1.780
10790,1.780
10791,1.780
10792,1.790
10793,1.790
10794,1.780
10795,1.765
10796,1.780
10797,1.795
10798,1.795
10799,1.795
10800,1.800
10801,1.780
10802,1.795
10803,1.810
10804,1.830
10805,1.835
10806,1.840
10807,1.860
10808,1.880
10809,1.860
10810,1.870
10811,1.910
10812,1.955
10813,1.970
10814,1.945
10815,1.930
10816,1.925
10817,1.940
10818,1.925
10819,1.910
10820,1.885
10821,1.860
10822,1.840
10823,1.810
10824,1.805
10825,1.795
10826,1.790
10827,1.770
10828,1.750
10829,1.760
10830,1.750
10831,1.745
10832,1.750
10833,1.745
10834,1.745
10835,1.745
10836,1.745
10837,1.745
10838,1.745
10839,1.745
10840,1.750
10841,1.760
10842,1.770
10843,1.790
10844,1.795
10845,1.780
10846,1.760
10847,1.745
10848,1.850
10849,2.095
10850,2.490
10851,3.070
10852,3.550
10853,3.685
10854,3.640
10855,3.620
10856,3.600
10857,3.565
10858,3.265
10859,2.180
10860,1.385
10861,1.525
10862,1.760
10863,1.860
10864,1.895
10865,1.855
10866,1.820
10867,1.780
10868,1.745
10869,1.735
10870,1.740
10871,1.745
10872,1.740
10873,1.745
10874,1.745
10875,1.750
10876,1.765
10877,1.760
10878,1.765
10879,1.765
10880,1.765
10881,1.780
10882,1.795
10883,1.780
10884,1.790
10885,1.795
10886,1.795
10887,1.795
10888,1.805
10889,1.820
10890,1.830
10891,1.840
10892,1.840
10893,1.855
10894,1.865
10895,1.890
10896,1.900
10897,1.900
10898,1.925
10899,1.940
10900,1.955
10901,1.975
10902,1.990
10903,2.010
10904,2.035
10905,2.050
10906,2.080
10907,2.095
10908,2.110
10909,2.130
10910,2.155
10911,2.170
10912,2.195
10913,2.220
10914,2.250
10915,2.275
10916,2.290
10917,2.320
10918,2.340
10919,2.365
10920,2.380
10921,2.390
