'sample interval','ECG1','ECG2'
'0.004 sec','mV','mV'
0,0.035,0.055
1,0.060,0.050
2,0.065,0.045
3,0.075,0.055
4,0.085,0.065
5,0.075,0.065
6,0.065,0.065
7,0.065,0.055
8,0.065,0.045
9,0.070,0.045
10,0.075,0.045
11,0.075,0.040
12,0.075,0.035
13,0.070,0.030
14,0.065,0.025
15,0.065,0.015
16,0.065,0.005
17,0.065,0.000
18,0.065,-0.005
19,0.060,-0.005
20,0.055,-0.005
21,0.040,-0.020
22,0.030,-0.030
23,0.015,-0.040
24,0.000,-0.045
25,-0.010,-0.050
26,-0.020,-0.055
27,-0.030,-0.055
28,-0.040,-0.055
29,-0.050,-0.060
30,-0.060,-0.070
31,-0.070,-0.080
32,-0.080,-0.085
33,-0.090,-0.085
34,-0.095,-0.085
35,-0.090,-0.080
36,-0.085,-0.075
37,-0.085,-0.075
38,-0.085,-0.080
39,-0.090,-0.090
40,-0.095,-0.095
41,-0.090,-0.095
42,-0.085,-0.090
43,-0.085,-0.085
44,-0.085,-0.080
45,-0.085,-0.075
46,-0.080,-0.085
47,-0.075,-0.095
48,-0.075,-0.090
49,-0.075,-0.085
50,-0.075,-0.080
51,-0.075,-0.075
52,-0.075,-0.075
53,-0.075,-0.075
54,-0.070,-0.075
55,-0.065,-0.075
56,-0.060,-0.075
57,-0.055,-0.075
58,-0.055,-0.070
59,-0.055,-0.065
60,-0.065,-0.070
61,-0.075,-0.075
62,-0.075,-0.080
63,-0.075,-0.085
64,-0.070,-0.085
65,-0.065,-0.085
66,-0.060,-0.080
67,-0.060,-0.075
68,-0.070,-0.080
69,-0.075,-0.085
70,-0.075,-0.090
71,-0.075,-0.095
72,-0.075,-0.095
73,-0.070,-0.095
74,-0.060,-0.090
75,-0.060,-0.085
76,-0.070,-0.085
77,-0.075,-0.090
78,-0.080,-0.100
79,-0.085,-0.105
80,-0.085,-0.105
81,-0.085,-0.100
82,-0.080,-0.090
83,-0.075,-0.085
84,-0.075,-0.095
85,-0.080,-0.105
86,-0.085,-0.115
87,-0.080,-0.110
88,-0.075,-0.105
89,-0.060,-0.090
90,-0.045,-0.075
91,-0.035,-0.065
92,-0.025,-0.055
93,-0.025,-0.055
94,-0.025,-0.055
95,-0.020,-0.050
96,-0.015,-0.045
97,-0.010,-0.050
98,-0.005,-0.055
99,0.005,-0.065
100,0.020,-0.075
101,0.035,-0.070
102,0.045,-0.065
103,0.050,-0.065
104,0.055,-0.065
105,0.050,-0.070
106,0.035,-0.085
107,0.015,-0.105
108,-0.005,-0.115
109,-0.035,-0.110
110,-0.050,-0.105
111,-0.065,-0.110
112,-0.080,-0.115
113,-0.090,-0.120
114,-0.095,-0.130
115,-0.090,-0.140
116,-0.085,-0.145
117,-0.090,-0.145
118,-0.095,-0.145
119,-0.095,-0.145
120,-0.095,-0.145
121,-0.100,-0.140
122,-0.105,-0.135
123,-0.105,-0.140
124,-0.105,-0.145
125,-0.105,-0.145
126,-0.115,-0.145
127,-0.115,-0.145
128,-0.110,-0.135
129,-0.105,-0.125
130,-0.105,-0.130
131,-0.105,-0.135
132,-0.095,-0.140
133,-0.085,-0.145
134,-0.090,-0.140
135,-0.095,-0.135
136,-0.090,-0.130
137,-0.085,-0.125
138,-0.080,-0.130
139,-0.075,-0.135
140,-0.080,-0.125
141,-0.070,-0.110
142,-0.025,-0.090
143,0.075,-0.070
144,0.250,-0.055
145,0.540,-0.070
146,0.960,-0.135
147,1.410,-0.250
148,1.885,-0.420
149,1.735,-0.575
150,1.090,-0.715
151,0.350,-0.775
152,-0.455,-0.775
153,-0.725,-0.635
154,-0.705,-0.415
155,-0.540,-0.275
156,-0.315,-0.175
157,-0.195,-0.115
158,-0.115,-0.075
159,-0.090,-0.055
160,-0.080,-0.040
161,-0.075,-0.035
162,-0.080,-0.040
163,-0.085,-0.045
164,-0.085,-0.050
165,-0.085,-0.055
166,-0.080,-0.055
167,-0.080,-0.050
168,-0.085,-0.045
169,-0.085,-0.045
170,-0.085,-0.045
171,-0.075,-0.045
172,-0.065,-0.045
173,-0.070,-0.050
174,-0.075,-0.055
175,-0.070,-0.045
176,-0.065,-0.035
177,-0.060,-0.030
178,-0.055,-0.025
179,-0.050,-0.030
180,-0.045,-0.035
181,-0.040,-0.040
182,-0.035,-0.045
183,-0.035,-0.035
184,-0.035,-0.025
185,-0.035,-0.020
186,-0.035,-0.015
187,-0.030,-0.015
188,-0.020,-0.015
189,-0.010,-0.015
190,-0.005,-0.015
191,0.000,-0.010
192,0.005,-0.005
193,0.005,0.000
194,0.005,0.005
195,0.010,0.005
196,0.025,0.010
197,0.040,0.020
198,0.045,0.025
199,0.050,0.030
200,0.055,0.035
201,0.055,0.040
202,0.055,0.050
203,0.060,0.060
204,0.065,0.065
205,0.070,0.065
206,0.085,0.070
207,0.100,0.080
208,0.105,0.085
209,0.105,0.075
210,0.110,0.075
211,0.115,0.075
212,0.120,0.075
213,0.125,0.075
214,0.120,0.075
215,0.115,0.075
216,0.115,0.070
217,0.115,0.065
218,0.115,0.060
219,0.115,0.055
220,0.115,0.050
221,0.115,0.045
222,0.115,0.035
223,0.115,0.025
224,0.110,0.015
225,0.105,0.005
226,0.100,-0.005
227,0.090,-0.020
228,0.070,-0.035
229,0.050,-0.045
230,0.035,-0.045
231,0.015,-0.050
232,-0.005,-0.060
233,-0.020,-0.070
234,-0.030,-0.080
235,-0.040,-0.085
236,-0.050,-0.090
237,-0.055,-0.095
238,-0.060,-0.095
239,-0.070,-0.095
240,-0.080,-0.100
241,-0.085,-0.105
242,-0.085,-0.105
243,-0.085,-0.105
244,-0.085,-0.110
245,-0.085,-0.110
246,-0.080,-0.100
247,-0.075,-0.095
248,-0.080,-0.100
249,-0.085,-0.105
250,-0.085,-0.105
251,-0.090,-0.110
252,-0.095,-0.105
253,-0.090,-0.100
254,-0.085,-0.095
255,-0.085,-0.095
256,-0.085,-0.095
257,-0.080,-0.100
258,-0.075,-0.105
259,-0.075,-0.105
260,-0.075,-0.105
261,-0.075,-0.095
262,-0.075,-0.085
263,-0.080,-0.095
264,-0.085,-0.105
265,-0.080,-0.105
266,-0.075,-0.105
267,-0.075,-0.105
268,-0.075,-0.105
269,-0.075,-0.100
270,-0.075,-0.095
271,-0.080,-0.100
272,-0.085,-0.105
273,-0.085,-0.110
274,-0.085,-0.115
275,-0.090,-0.110
276,-0.095,-0.105
277,-0.090,-0.105
278,-0.085,-0.110
279,-0.090,-0.120
280,-0.095,-0.125
281,-0.100,-0.125
282,-0.105,-0.125
283,-0.105,-0.125
284,-0.105,-0.125
285,-0.105,-0.120
286,-0.105,-0.115
287,-0.100,-0.120
288,-0.095,-0.125
289,-0.095,-0.130
290,-0.095,-0.135
291,-0.100,-0.130
292,-0.105,-0.120
293,-0.105,-0.115
294,-0.105,-0.115
295,-0.105,-0.115
296,-0.100,-0.120
297,-0.095,-0.125
298,-0.085,-0.115
299,-0.075,-0.105
300,-0.065,-0.090
301,-0.055,-0.075
302,-0.055,-0.075
303,-0.055,-0.075
304,-0.040,-0.075
305,-0.025,-0.075
306,-0.025,-0.075
307,-0.025,-0.075
308,-0.020,-0.080
309,-0.010,-0.085
310,0.005,-0.085
311,0.015,-0.085
312,0.020,-0.080
313,0.025,-0.075
314,0.030,-0.080
315,0.025,-0.090
316,0.005,-0.105
317,-0.020,-0.115
318,-0.045,-0.120
319,-0.060,-0.125
320,-0.070,-0.125
321,-0.085,-0.130
322,-0.100,-0.140
323,-0.105,-0.145
324,-0.105,-0.145
325,-0.105,-0.145
326,-0.110,-0.145
327,-0.115,-0.145
328,-0.120,-0.145
329,-0.125,-0.145
330,-0.125,-0.145
331,-0.125,-0.145
332,-0.125,-0.140
333,-0.125,-0.135
334,-0.135,-0.145
335,-0.140,-0.145
336,-0.145,-0.145
337,-0.140,-0.145
338,-0.135,-0.145
339,-0.130,-0.135
340,-0.125,-0.125
341,-0.130,-0.130
342,-0.135,-0.135
343,-0.125,-0.140
344,-0.115,-0.145
345,-0.115,-0.140
346,-0.115,-0.135
347,-0.105,-0.130
348,-0.095,-0.125
349,-0.100,-0.130
350,-0.105,-0.130
351,-0.105,-0.115
352,-0.065,-0.100
353,0.030,-0.085
354,0.220,-0.075
355,0.510,-0.060
356,0.935,-0.140
357,1.490,-0.310
358,1.660,-0.475
359,1.550,-0.635
360,0.905,-0.760
361,-0.055,-0.865
362,-0.525,-0.765
363,-0.760,-0.550
364,-0.685,-0.375
365,-0.485,-0.215
366,-0.325,-0.140
367,-0.175,-0.085
368,-0.125,-0.065
369,-0.090,-0.050
370,-0.090,-0.045
371,-0.100,-0.040
372,-0.105,-0.035
373,-0.105,-0.035
374,-0.105,-0.035
375,-0.105,-0.035
376,-0.105,-0.045
377,-0.105,-0.045
378,-0.100,-0.040
379,-0.095,-0.035
380,-0.100,-0.030
381,-0.105,-0.025
382,-0.095,-0.030
383,-0.085,-0.035
384,-0.080,-0.030
385,-0.075,-0.025
386,-0.065,-0.020
387,-0.055,-0.015
388,-0.060,-0.015
389,-0.065,-0.015
390,-0.065,-0.015
391,-0.065,-0.015
392,-0.065,-0.015
393,-0.065,-0.015
394,-0.055,-0.005
395,-0.045,0.005
396,-0.040,0.005
397,-0.035,0.005
398,-0.035,0.005
399,-0.035,0.010
400,-0.030,0.020
401,-0.020,0.025
402,-0.010,0.030
403,-0.005,0.035
404,0.000,0.035
405,0.005,0.035
406,0.010,0.035
407,0.015,0.040
408,0.015,0.050
409,0.020,0.060
410,0.030,0.070
411,0.035,0.075
412,0.040,0.075
413,0.045,0.075
414,0.050,0.075
415,0.055,0.075
416,0.060,0.080
417,0.065,0.095
418,0.065,0.105
419,0.070,0.100
420,0.075,0.095
421,0.075,0.090
422,0.075,0.085
423,0.080,0.080
424,0.085,0.075
425,0.085,0.075
426,0.085,0.075
427,0.080,0.070
428,0.075,0.065
429,0.070,0.055
430,0.065,0.045
431,0.070,0.040
432,0.075,0.035
433,0.075,0.030
434,0.070,0.020
435,0.055,0.005
436,0.040,-0.005
437,0.025,-0.010
438,0.010,-0.020
439,-0.005,-0.030
440,-0.020,-0.035
441,-0.030,-0.035
442,-0.040,-0.040
443,-0.050,-0.055
444,-0.060,-0.065
445,-0.070,-0.070
446,-0.080,-0.075
447,-0.090,-0.080
448,-0.100,-0.085
449,-0.110,-0.080
450,-0.115,-0.075
451,-0.110,-0.080
452,-0.105,-0.085
453,-0.105,-0.085
454,-0.105,-0.085
455,-0.110,-0.080
456,-0.115,-0.075
457,-0.115,-0.070
458,-0.115,-0.065
459,-0.115,-0.075
460,-0.110,-0.075
461,-0.105,-0.075
462,-0.105,-0.075
463,-0.105,-0.075
464,-0.105,-0.070
465,-0.105,-0.065
466,-0.110,-0.070
467,-0.115,-0.075
468,-0.110,-0.075
469,-0.105,-0.075
470,-0.110,-0.075
471,-0.115,-0.075
472,-0.110,-0.070
473,-0.105,-0.065
474,-0.110,-0.070
475,-0.115,-0.075
476,-0.110,-0.075
477,-0.105,-0.075
478,-0.110,-0.075
479,-0.115,-0.075
480,-0.115,-0.075
481,-0.115,-0.075
482,-0.115,-0.080
483,-0.115,-0.085
484,-0.120,-0.085
485,-0.125,-0.085
486,-0.125,-0.090
487,-0.125,-0.095
488,-0.120,-0.090
489,-0.115,-0.085
490,-0.115,-0.090
491,-0.120,-0.095
492,-0.130,-0.100
493,-0.135,-0.100
494,-0.135,-0.090
495,-0.135,-0.085
496,-0.135,-0.085
497,-0.135,-0.085
498,-0.135,-0.090
499,-0.135,-0.095
500,-0.135,-0.095
501,-0.135,-0.105
502,-0.145,-0.105
503,-0.135,-0.100
504,-0.125,-0.095
505,-0.130,-0.095
506,-0.135,-0.095
507,-0.135,-0.095
508,-0.135,-0.095
509,-0.125,-0.085
510,-0.115,-0.075
511,-0.100,-0.060
512,-0.085,-0.045
513,-0.085,-0.045
514,-0.085,-0.045
515,-0.080,-0.050
516,-0.075,-0.055
517,-0.080,-0.055
518,-0.080,-0.055
519,-0.060,-0.050
520,-0.040,-0.045
521,-0.025,-0.045
522,-0.015,-0.045
523,-0.015,-0.050
524,-0.005,-0.055
525,0.015,-0.055
526,0.010,-0.060
527,-0.015,-0.075
528,-0.035,-0.085
529,-0.055,-0.085
530,-0.080,-0.090
531,-0.105,-0.100
532,-0.125,-0.105
533,-0.140,-0.110
534,-0.145,-0.115
535,-0.145,-0.115
536,-0.145,-0.115
537,-0.145,-0.120
538,-0.145,-0.125
539,-0.150,-0.130
540,-0.155,-0.135
541,-0.150,-0.130
542,-0.150,-0.120
543,-0.155,-0.115
544,-0.165,-0.120
545,-0.175,-0.125
546,-0.170,-0.125
547,-0.165,-0.125
548,-0.170,-0.125
549,-0.175,-0.125
550,-0.170,-0.115
551,-0.165,-0.105
552,-0.165,-0.110
553,-0.165,-0.115
554,-0.155,-0.110
555,-0.145,-0.105
556,-0.145,-0.110
557,-0.145,-0.115
558,-0.140,-0.115
559,-0.135,-0.115
560,-0.135,-0.110
561,-0.135,-0.100
562,-0.145,-0.085
563,-0.125,-0.070
564,-0.060,-0.060
565,0.085,-0.050
566,0.295,-0.035
567,0.660,-0.060
568,1.125,-0.130
569,1.510,-0.255
570,1.845,-0.415
571,1.270,-0.580
572,0.265,-0.750
573,-0.320,-0.705
574,-0.755,-0.575
575,-0.770,-0.400
576,-0.655,-0.210
577,-0.490,-0.150
578,-0.310,-0.110
579,-0.230,-0.090
580,-0.165,-0.070
581,-0.150,-0.050
582,-0.140,-0.030
583,-0.135,-0.025
584,-0.125,-0.025
585,-0.130,-0.035
586,-0.135,-0.045
587,-0.130,-0.040
588,-0.125,-0.035
589,-0.125,-0.030
590,-0.125,-0.025
591,-0.120,-0.020
592,-0.115,-0.015
593,-0.115,-0.020
594,-0.115,-0.025
595,-0.115,-0.025
596,-0.115,-0.025
597,-0.110,-0.020
598,-0.105,-0.015
599,-0.105,-0.015
600,-0.105,-0.015
601,-0.095,-0.015
602,-0.085,-0.015
603,-0.075,-0.015
604,-0.065,-0.015
605,-0.070,-0.010
606,-0.075,-0.005
607,-0.070,0.000
608,-0.065,0.005
609,-0.060,0.005
610,-0.055,0.005
611,-0.060,0.010
612,-0.055,0.015
613,-0.040,0.020
614,-0.035,0.025
615,-0.030,0.025
616,-0.025,0.025
617,-0.025,0.025
618,-0.020,0.025
619,-0.010,0.030
620,-0.005,0.040
621,0.000,0.050
622,0.005,0.055
623,0.005,0.050
624,0.010,0.045
625,0.005,0.045
626,0.030,0.055
627,0.035,0.065
628,0.035,0.065
629,0.035,0.065
630,0.035,0.065
631,0.035,0.065
632,0.040,0.055
633,0.045,0.045
634,0.040,0.045
635,0.035,0.045
636,0.035,0.040
637,0.035,0.035
638,0.025,0.030
639,0.015,0.025
640,0.020,0.015
641,0.025,0.005
642,0.020,0.005
643,0.015,0.005
644,0.015,0.000
645,0.010,-0.005
646,-0.005,-0.010
647,-0.020,-0.020
648,-0.030,-0.030
649,-0.040,-0.035
650,-0.055,-0.035
651,-0.065,-0.035
652,-0.070,-0.040
653,-0.080,-0.045
654,-0.090,-0.045
655,-0.100,-0.050
656,-0.110,-0.060
657,-0.115,-0.065
658,-0.120,-0.060
659,-0.125,-0.055
660,-0.130,-0.050
661,-0.135,-0.045
662,-0.135,-0.050
663,-0.135,-0.055
664,-0.135,-0.060
665,-0.135,-0.065
666,-0.130,-0.060
667,-0.125,-0.050
668,-0.125,-0.045
669,-0.125,-0.050
670,-0.125,-0.055
671,-0.120,-0.060
672,-0.115,-0.065
673,-0.120,-0.060
674,-0.125,-0.055
675,-0.120,-0.045
676,-0.115,-0.035
677,-0.120,-0.040
678,-0.125,-0.045
679,-0.120,-0.045
680,-0.115,-0.045
681,-0.110,-0.050
682,-0.105,-0.055
683,-0.110,-0.045
684,-0.115,-0.035
685,-0.110,-0.040
686,-0.105,-0.045
687,-0.105,-0.050
688,-0.105,-0.055
689,-0.110,-0.055
690,-0.115,-0.055
691,-0.115,-0.050
692,-0.115,-0.045
693,-0.120,-0.050
694,-0.125,-0.055
695,-0.130,-0.060
696,-0.135,-0.065
697,-0.130,-0.060
698,-0.125,-0.055
699,-0.120,-0.055
700,-0.120,-0.055
701,-0.130,-0.060
702,-0.135,-0.065
703,-0.130,-0.065
704,-0.125,-0.065
705,-0.130,-0.065
706,-0.135,-0.065
707,-0.130,-0.065
708,-0.125,-0.065
709,-0.135,-0.065
710,-0.130,-0.065
711,-0.125,-0.065
712,-0.110,-0.050
713,-0.095,-0.035
714,-0.085,-0.025
715,-0.075,-0.015
716,-0.075,-0.015
717,-0.075,-0.015
718,-0.070,-0.015
719,-0.065,-0.015
720,-0.060,-0.020
721,-0.050,-0.025
722,-0.030,-0.025
723,-0.015,-0.025
724,-0.005,-0.025
725,0.005,-0.025
726,0.010,-0.030
727,0.015,-0.035
728,0.010,-0.040
729,0.000,-0.045
730,-0.025,-0.060
731,-0.045,-0.065
732,-0.065,-0.060
733,-0.080,-0.060
734,-0.095,-0.075
735,-0.110,-0.085
736,-0.125,-0.090
737,-0.135,-0.095
738,-0.130,-0.095
739,-0.125,-0.095
740,-0.125,-0.095
741,-0.125,-0.095
742,-0.130,-0.100
743,-0.135,-0.105
744,-0.135,-0.100
745,-0.135,-0.095
746,-0.135,-0.090
747,-0.135,-0.085
748,-0.140,-0.090
749,-0.145,-0.095
750,-0.145,-0.095
751,-0.145,-0.100
752,-0.145,-0.105
753,-0.140,-0.095
754,-0.135,-0.085
755,-0.130,-0.090
756,-0.125,-0.095
757,-0.125,-0.100
758,-0.125,-0.105
759,-0.115,-0.105
760,-0.105,-0.105
761,-0.095,-0.100
762,-0.090,-0.095
763,-0.110,-0.080
764,-0.110,-0.065
765,-0.060,-0.060
766,0.035,-0.055
767,0.200,-0.045
768,0.480,-0.040
769,0.920,-0.060
770,1.370,-0.145
771,1.835,-0.300
772,1.620,-0.470
773,0.750,-0.650
774,0.040,-0.710
775,-0.545,-0.665
776,-0.740,-0.505
777,-0.680,-0.270
778,-0.525,-0.155
779,-0.320,-0.105
780,-0.205,-0.075
781,-0.125,-0.060
782,-0.100,-0.045
783,-0.090,-0.030
784,-0.085,-0.020
785,-0.085,-0.010
786,-0.085,-0.005
787,-0.085,-0.010
788,-0.085,-0.015
789,-0.085,-0.020
790,-0.085,-0.025
791,-0.080,-0.020
792,-0.075,-0.010
793,-0.075,-0.005
794,-0.070,-0.005
795,-0.065,-0.005
796,-0.060,-0.010
797,-0.055,-0.015
798,-0.055,-0.015
799,-0.055,-0.015
800,-0.045,-0.010
801,-0.035,-0.005
802,-0.035,-0.005
803,-0.035,-0.005
804,-0.035,-0.010
805,-0.035,-0.015
806,-0.025,-0.005
807,-0.015,0.005
808,-0.015,0.005
809,-0.015,0.005
810,-0.010,0.005
811,-0.005,0.005
812,-0.005,0.010
813,0.000,0.015
814,0.010,0.020
815,0.020,0.025
816,0.030,0.025
817,0.035,0.030
818,0.035,0.040
819,0.035,0.045
820,0.040,0.045
821,0.045,0.045
822,0.050,0.050
823,0.065,0.060
824,0.080,0.070
825,0.085,0.075
826,0.085,0.080
827,0.085,0.085
828,0.090,0.080
829,0.095,0.075
830,0.095,0.080
831,0.095,0.090
832,0.100,0.100
833,0.105,0.100
834,0.105,0.085
835,0.110,0.080
836,0.115,0.075
837,0.115,0.070
838,0.115,0.065
839,0.110,0.065
840,0.105,0.065
841,0.105,0.055
842,0.105,0.045
843,0.105,0.030
844,0.105,0.015
845,0.095,0.015
846,0.085,0.015
847,0.085,0.015
848,0.080,0.015
849,0.065,0.005
850,0.055,-0.005
851,0.045,-0.015
852,0.030,-0.025
853,0.015,-0.030
854,0.000,-0.035
855,-0.015,-0.035
856,-0.030,-0.035
857,-0.040,-0.040
858,-0.045,-0.050
859,-0.050,-0.060
860,-0.055,-0.065
861,-0.060,-0.065
862,-0.065,-0.065
863,-0.065,-0.060
864,-0.065,-0.055
865,-0.070,-0.060
866,-0.075,-0.065
867,-0.070,-0.065
868,-0.065,-0.065
869,-0.065,-0.065
870,-0.065,-0.065
871,-0.065,-0.060
872,-0.065,-0.055
873,-0.070,-0.055
874,-0.075,-0.055
875,-0.075,-0.055
876,-0.065,-0.055
877,-0.065,-0.055
878,-0.060,-0.050
879,-0.055,-0.045
880,-0.060,-0.050
881,-0.065,-0.055
882,-0.065,-0.055
883,-0.065,-0.055
884,-0.060,-0.055
885,-0.055,-0.055
886,-0.045,-0.050
887,-0.035,-0.045
888,-0.045,-0.050
889,-0.055,-0.055
890,-0.055,-0.060
891,-0.055,-0.065
892,-0.060,-0.060
893,-0.065,-0.055
894,-0.060,-0.055
895,-0.055,-0.055
896,-0.055,-0.055
897,-0.055,-0.060
898,-0.060,-0.070
899,-0.065,-0.075
900,-0.065,-0.075
901,-0.065,-0.070
902,-0.065,-0.060
903,-0.065,-0.055
904,-0.065,-0.060
905,-0.065,-0.070
906,-0.070,-0.080
907,-0.075,-0.085
908,-0.080,-0.085
909,-0.085,-0.080
910,-0.080,-0.070
911,-0.075,-0.065
912,-0.075,-0.065
913,-0.075,-0.070
914,-0.075,-0.080
915,-0.075,-0.085
916,-0.070,-0.085
917,-0.065,-0.075
918,-0.065,-0.065
919,-0.060,-0.060
920,-0.055,-0.055
921,-0.040,-0.045
922,-0.025,-0.035
923,-0.025,-0.035
924,-0.025,-0.035
925,-0.010,-0.030
926,0.005,-0.025
927,0.005,-0.030
928,0.005,-0.035
929,0.005,-0.045
930,0.010,-0.055
931,0.030,-0.050
932,0.045,-0.045
933,0.050,-0.040
934,0.055,-0.035
935,0.055,-0.040
936,0.045,-0.055
937,0.020,-0.080
938,-0.005,-0.095
939,-0.025,-0.090
940,-0.040,-0.085
941,-0.050,-0.085
942,-0.060,-0.090
943,-0.075,-0.105
944,-0.085,-0.120
945,-0.090,-0.130
946,-0.095,-0.130
947,-0.095,-0.120
948,-0.095,-0.115
949,-0.095,-0.110
950,-0.095,-0.110
951,-0.100,-0.120
952,-0.105,-0.125
953,-0.105,-0.130
954,-0.110,-0.135
955,-0.120,-0.130
956,-0.120,-0.120
957,-0.110,-0.110
958,-0.105,-0.105
959,-0.105,-0.115
960,-0.105,-0.120
961,-0.105,-0.125
962,-0.100,-0.125
963,-0.095,-0.125
964,-0.090,-0.120
965,-0.085,-0.115
966,-0.080,-0.115
967,-0.075,-0.115
968,-0.085,-0.115
969,-0.090,-0.110
970,-0.070,-0.085
971,-0.025,-0.065
972,0.090,-0.050
973,0.270,-0.040
974,0.580,-0.055
975,1.005,-0.135
976,1.590,-0.310
977,1.750,-0.480
978,1.340,-0.640
979,0.710,-0.750
980,-0.155,-0.805
981,-0.610,-0.715
982,-0.695,-0.485
983,-0.600,-0.310
984,-0.365,-0.170
985,-0.220,-0.090
986,-0.130,-0.045
987,-0.090,-0.025
988,-0.080,-0.020
989,-0.075,-0.015
990,-0.075,-0.015
991,-0.075,-0.015
992,-0.075,-0.020
993,-0.075,-0.025
994,-0.075,-0.025
995,-0.075,-0.025
996,-0.075,-0.020
997,-0.075,-0.015
998,-0.075,-0.020
999,-0.075,-0.025
1000,-0.075,-0.025
1001,-0.070,-0.020
1002,-0.065,-0.015
1003,-0.060,-0.010
1004,-0.055,-0.005
1005,-0.055,-0.010
1006,-0.055,-0.015
1007,-0.050,-0.015
1008,-0.045,-0.015
1009,-0.040,-0.010
1010,-0.035,-0.005
1011,-0.035,0.000
1012,-0.035,0.005
1013,-0.030,0.000
1014,-0.025,-0.005
1015,-0.025,0.000
1016,-0.025,0.005
1017,-0.015,0.010
1018,-0.005,0.015
1019,0.005,0.020
1020,0.015,0.025
1021,0.015,0.025
1022,0.015,0.025
1023,0.015,0.025
1024,0.020,0.030
1025,0.030,0.045
1026,0.040,0.055
1027,0.050,0.060
1028,0.055,0.065
1029,0.060,0.065
1030,0.065,0.065
1031,0.070,0.070
1032,0.075,0.075
1033,0.075,0.080
1034,0.085,0.090
1035,0.100,0.100
1036,0.105,0.105
1037,0.105,0.100
1038,0.105,0.095
1039,0.110,0.090
1040,0.115,0.085
1041,0.110,0.090
1042,0.110,0.095
1043,0.115,0.095
1044,0.115,0.085
1045,0.115,0.075
1046,0.115,0.060
1047,0.115,0.045
1048,0.115,0.050
1049,0.115,0.055
1050,0.110,0.050
1051,0.105,0.045
1052,0.105,0.030
1053,0.105,0.015
1054,0.095,0.005
1055,0.080,-0.005
1056,0.060,-0.010
1057,0.040,-0.015
1058,0.025,-0.020
1059,0.010,-0.030
1060,-0.005,-0.045
1061,-0.020,-0.055
1062,-0.035,-0.065
1063,-0.050,-0.075
1064,-0.060,-0.075
1065,-0.065,-0.075
1066,-0.070,-0.080
1067,-0.080,-0.085
1068,-0.090,-0.085
1069,-0.095,-0.085
1070,-0.090,-0.090
1071,-0.085,-0.095
1072,-0.085,-0.095
1073,-0.085,-0.095
1074,-0.085,-0.090
1075,-0.085,-0.085
1076,-0.090,-0.085
1077,-0.095,-0.085
1078,-0.095,-0.085
1079,-0.095,-0.085
1080,-0.095,-0.090
1081,-0.095,-0.090
1082,-0.090,-0.080
1083,-0.090,-0.075
1084,-0.105,-0.085
1085,-0.100,-0.085
1086,-0.095,-0.085
1087,-0.090,-0.085
1088,-0.085,-0.085
1089,-0.080,-0.085
1090,-0.075,-0.085
1091,-0.080,-0.085
1092,-0.085,-0.085
1093,-0.090,-0.090
1094,-0.095,-0.095
1095,-0.100,-0.095
1096,-0.105,-0.095
1097,-0.095,-0.090
1098,-0.085,-0.085
1099,-0.090,-0.090
1100,-0.095,-0.095
1101,-0.100,-0.100
1102,-0.105,-0.105
1103,-0.105,-0.105
1104,-0.105,-0.105
1105,-0.100,-0.100
1106,-0.095,-0.095
1107,-0.100,-0.100
1108,-0.105,-0.105
1109,-0.110,-0.110
1110,-0.115,-0.115
1111,-0.120,-0.115
1112,-0.125,-0.115
1113,-0.120,-0.110
1114,-0.115,-0.105
1115,-0.115,-0.110
1116,-0.115,-0.115
1117,-0.120,-0.120
1118,-0.125,-0.125
1119,-0.120,-0.125
1120,-0.115,-0.125
1121,-0.120,-0.120
1122,-0.125,-0.115
1123,-0.125,-0.120
1124,-0.125,-0.125
1125,-0.125,-0.125
1126,-0.120,-0.125
1127,-0.125,-0.125
1128,-0.120,-0.120
1129,-0.115,-0.115
1130,-0.110,-0.105
1131,-0.105,-0.095
1132,-0.095,-0.090
1133,-0.085,-0.085
1134,-0.075,-0.075
1135,-0.065,-0.065
1136,-0.055,-0.065
1137,-0.045,-0.065
1138,-0.055,-0.065
1139,-0.065,-0.065
1140,-0.055,-0.075
1141,-0.040,-0.085
1142,-0.025,-0.085
1143,-0.015,-0.085
1144,-0.005,-0.075
1145,0.005,-0.065
1146,0.020,-0.080
1147,0.015,-0.090
1148,-0.005,-0.105
1149,-0.025,-0.115
1150,-0.055,-0.120
1151,-0.070,-0.125
1152,-0.085,-0.120
1153,-0.105,-0.125
1154,-0.125,-0.140
1155,-0.135,-0.155
1156,-0.140,-0.170
1157,-0.145,-0.170
1158,-0.145,-0.160
1159,-0.145,-0.155
1160,-0.145,-0.150
1161,-0.145,-0.145
1162,-0.145,-0.150
1163,-0.145,-0.155
1164,-0.145,-0.160
1165,-0.150,-0.160
1166,-0.160,-0.150
1167,-0.160,-0.145
1168,-0.155,-0.145
1169,-0.160,-0.150
1170,-0.165,-0.155
1171,-0.165,-0.155
1172,-0.165,-0.155
1173,-0.160,-0.155
1174,-0.155,-0.155
1175,-0.145,-0.155
1176,-0.135,-0.155
1177,-0.135,-0.150
1178,-0.135,-0.145
1179,-0.135,-0.150
1180,-0.135,-0.155
1181,-0.140,-0.145
1182,-0.135,-0.130
1183,-0.105,-0.110
1184,-0.030,-0.095
1185,0.105,-0.090
1186,0.365,-0.100
1187,0.770,-0.140
1188,1.235,-0.245
1189,1.755,-0.415
1190,1.655,-0.575
1191,1.025,-0.730
1192,0.315,-0.805
1193,-0.450,-0.825
1194,-0.740,-0.690
1195,-0.775,-0.460
1196,-0.635,-0.310
1197,-0.415,-0.195
1198,-0.280,-0.135
1199,-0.180,-0.090
1200,-0.150,-0.075
1201,-0.140,-0.070
1202,-0.135,-0.065
1203,-0.140,-0.070
1204,-0.145,-0.075
1205,-0.150,-0.075
1206,-0.150,-0.075
1207,-0.140,-0.070
1208,-0.135,-0.065
1209,-0.145,-0.065
1210,-0.140,-0.065
1211,-0.135,-0.065
1212,-0.135,-0.065
1213,-0.135,-0.065
1214,-0.125,-0.060
1215,-0.115,-0.055
1216,-0.120,-0.055
1217,-0.125,-0.055
1218,-0.120,-0.065
1219,-0.115,-0.075
1220,-0.120,-0.070
1221,-0.125,-0.065
1222,-0.115,-0.055
1223,-0.105,-0.045
1224,-0.105,-0.045
1225,-0.105,-0.045
1226,-0.100,-0.050
1227,-0.095,-0.055
1228,-0.090,-0.050
1229,-0.085,-0.045
1230,-0.080,-0.030
1231,-0.075,-0.025
1232,-0.070,-0.025
1233,-0.065,-0.025
1234,-0.065,-0.020
1235,-0.065,-0.015
1236,-0.070,-0.015
1237,-0.065,-0.010
1238,-0.050,0.000
1239,-0.045,0.005
1240,-0.040,0.005
1241,-0.030,0.005
1242,-0.020,0.005
1243,-0.015,0.005
1244,-0.010,0.005
1245,-0.005,0.010
1246,0.000,0.020
1247,0.005,0.030
1248,0.005,0.040
1249,0.005,0.045
1250,0.005,0.045
1251,0.015,0.030
1252,0.015,0.025
1253,0.020,0.030
1254,0.025,0.035
1255,0.020,0.030
1256,0.015,0.025
1257,0.015,0.020
1258,0.015,0.015
1259,0.020,0.005
1260,0.025,-0.005
1261,0.020,0.000
1262,0.015,0.005
1263,0.010,-0.005
1264,0.005,-0.015
1265,0.005,-0.025
1266,0.000,-0.035
1267,-0.015,-0.040
1268,-0.025,-0.045
1269,-0.025,-0.045
1270,-0.030,-0.045
1271,-0.045,-0.060
1272,-0.065,-0.070
1273,-0.085,-0.080
1274,-0.100,-0.090
1275,-0.110,-0.100
1276,-0.120,-0.105
1277,-0.130,-0.105
1278,-0.140,-0.105
1279,-0.150,-0.105
1280,-0.155,-0.110
1281,-0.160,-0.120
1282,-0.170,-0.125
1283,-0.180,-0.125
1284,-0.185,-0.125
1285,-0.180,-0.120
1286,-0.175,-0.115
1287,-0.175,-0.110
1288,-0.175,-0.105
1289,-0.175,-0.110
1290,-0.175,-0.115
1291,-0.170,-0.115
1292,-0.165,-0.110
1293,-0.165,-0.105
1294,-0.170,-0.105
1295,-0.175,-0.105
1296,-0.180,-0.110
1297,-0.185,-0.115
1298,-0.180,-0.115
1299,-0.175,-0.115
1300,-0.165,-0.105
1301,-0.155,-0.095
1302,-0.165,-0.100
1303,-0.175,-0.105
1304,-0.175,-0.115
1305,-0.175,-0.125
1306,-0.165,-0.120
1307,-0.155,-0.115
1308,-0.155,-0.110
1309,-0.155,-0.105
1310,-0.160,-0.110
1311,-0.165,-0.115
1312,-0.165,-0.115
1313,-0.165,-0.115
1314,-0.170,-0.115
1315,-0.175,-0.115
1316,-0.175,-0.110
1317,-0.175,-0.105
1318,-0.175,-0.110
1319,-0.175,-0.120
1320,-0.175,-0.130
1321,-0.180,-0.135
1322,-0.190,-0.135
1323,-0.195,-0.135
1324,-0.190,-0.130
1325,-0.185,-0.125
1326,-0.185,-0.125
1327,-0.185,-0.125
1328,-0.185,-0.130
1329,-0.185,-0.135
1330,-0.185,-0.135
1331,-0.185,-0.135
1332,-0.180,-0.135
1333,-0.180,-0.135
1334,-0.195,-0.135
1335,-0.185,-0.130
1336,-0.175,-0.125
1337,-0.160,-0.110
1338,-0.145,-0.095
1339,-0.140,-0.090
1340,-0.135,-0.085
1341,-0.135,-0.090
1342,-0.135,-0.095
1343,-0.130,-0.090
1344,-0.125,-0.085
1345,-0.120,-0.090
1346,-0.110,-0.095
1347,-0.090,-0.095
1348,-0.075,-0.095
1349,-0.070,-0.095
1350,-0.060,-0.095
1351,-0.045,-0.095
1352,-0.035,-0.095
1353,-0.045,-0.100
1354,-0.065,-0.110
1355,-0.090,-0.125
1356,-0.115,-0.135
1357,-0.140,-0.135
1358,-0.160,-0.135
1359,-0.175,-0.140
1360,-0.190,-0.150
1361,-0.200,-0.160
1362,-0.205,-0.160
1363,-0.205,-0.150
1364,-0.205,-0.145
1365,-0.205,-0.150
1366,-0.205,-0.155
1367,-0.205,-0.160
1368,-0.205,-0.165
1369,-0.210,-0.160
1370,-0.215,-0.155
1371,-0.220,-0.150
1372,-0.225,-0.145
1373,-0.220,-0.150
1374,-0.215,-0.155
1375,-0.215,-0.155
1376,-0.220,-0.165
1377,-0.225,-0.165
1378,-0.220,-0.155
1379,-0.215,-0.145
1380,-0.220,-0.150
1381,-0.225,-0.155
1382,-0.210,-0.155
1383,-0.195,-0.155
1384,-0.195,-0.155
1385,-0.195,-0.155
1386,-0.185,-0.150
1387,-0.180,-0.145
1388,-0.200,-0.135
1389,-0.200,-0.125
1390,-0.145,-0.115
1391,-0.050,-0.105
1392,0.110,-0.100
1393,0.380,-0.095
1394,0.805,-0.105
1395,1.250,-0.190
1396,1.715,-0.355
1397,1.515,-0.520
1398,0.685,-0.690
1399,-0.020,-0.750
1400,-0.620,-0.720
1401,-0.845,-0.565
1402,-0.825,-0.330
1403,-0.690,-0.205
1404,-0.495,-0.145
1405,-0.365,-0.125
1406,-0.265,-0.130
1407,-0.225,-0.120
1408,-0.210,-0.100
1409,-0.195,-0.085
1410,-0.180,-0.070
1411,-0.175,-0.065
1412,-0.180,-0.070
1413,-0.185,-0.075
1414,-0.190,-0.080
1415,-0.195,-0.085
1416,-0.190,-0.080
1417,-0.170,-0.070
1418,-0.155,-0.065
1419,-0.160,-0.065
1420,-0.165,-0.065
1421,-0.160,-0.065
1422,-0.155,-0.065
1423,-0.160,-0.065
1424,-0.165,-0.065
1425,-0.150,-0.060
1426,-0.135,-0.055
1427,-0.145,-0.055
1428,-0.155,-0.055
1429,-0.145,-0.060
1430,-0.135,-0.065
1431,-0.130,-0.060
1432,-0.125,-0.055
1433,-0.125,-0.045
1434,-0.125,-0.035
1435,-0.120,-0.040
1436,-0.115,-0.045
1437,-0.110,-0.050
1438,-0.105,-0.055
1439,-0.105,-0.050
1440,-0.100,-0.045
1441,-0.090,-0.040
1442,-0.085,-0.035
1443,-0.085,-0.030
1444,-0.085,-0.025
1445,-0.080,-0.030
1446,-0.070,-0.035
1447,-0.060,-0.030
1448,-0.055,-0.020
1449,-0.050,-0.010
1450,-0.045,-0.005
1451,-0.045,0.000
1452,-0.040,0.005
1453,-0.030,0.000
1454,-0.025,-0.005
1455,-0.025,0.000
1456,-0.020,0.005
1457,-0.010,0.010
1458,-0.005,0.015
1459,-0.015,0.015
1460,-0.020,0.005
1461,-0.025,-0.005
1462,-0.020,-0.010
1463,-0.015,-0.015
1464,-0.015,-0.015
1465,-0.015,-0.015
1466,-0.025,-0.020
1467,-0.035,-0.025
1468,-0.040,-0.040
1469,-0.045,-0.055
1470,-0.040,-0.060
1471,-0.035,-0.065
1472,-0.035,-0.060
1473,-0.040,-0.055
1474,-0.055,-0.060
1475,-0.065,-0.065
1476,-0.075,-0.075
1477,-0.085,-0.085
1478,-0.095,-0.085
1479,-0.105,-0.085
1480,-0.120,-0.085
1481,-0.130,-0.085
1482,-0.145,-0.090
1483,-0.155,-0.095
1484,-0.160,-0.100
1485,-0.165,-0.105
1486,-0.165,-0.105
1487,-0.165,-0.105
1488,-0.170,-0.100
1489,-0.175,-0.095
1490,-0.175,-0.100
1491,-0.175,-0.105
1492,-0.170,-0.105
1493,-0.165,-0.105
1494,-0.165,-0.100
1495,-0.165,-0.095
1496,-0.165,-0.095
1497,-0.165,-0.095
1498,-0.165,-0.095
1499,-0.165,-0.095
1500,-0.165,-0.095
1501,-0.160,-0.095
1502,-0.155,-0.095
1503,-0.150,-0.090
1504,-0.145,-0.085
1505,-0.145,-0.090
1506,-0.145,-0.095
1507,-0.150,-0.100
1508,-0.155,-0.105
1509,-0.155,-0.100
1510,-0.155,-0.095
1511,-0.150,-0.090
1512,-0.145,-0.085
1513,-0.150,-0.095
1514,-0.155,-0.105
1515,-0.155,-0.100
1516,-0.155,-0.095
1517,-0.155,-0.095
1518,-0.155,-0.095
1519,-0.150,-0.095
1520,-0.145,-0.095
1521,-0.150,-0.100
1522,-0.155,-0.105
1523,-0.155,-0.105
1524,-0.155,-0.105
1525,-0.160,-0.105
1526,-0.165,-0.105
1527,-0.160,-0.100
1528,-0.155,-0.095
1529,-0.160,-0.100
1530,-0.165,-0.105
1531,-0.160,-0.110
1532,-0.155,-0.115
1533,-0.160,-0.115
1534,-0.165,-0.115
1535,-0.160,-0.110
1536,-0.155,-0.105
1537,-0.160,-0.105
1538,-0.155,-0.105
1539,-0.140,-0.100
1540,-0.130,-0.085
1541,-0.120,-0.070
1542,-0.110,-0.060
1543,-0.105,-0.055
1544,-0.100,-0.055
1545,-0.095,-0.055
1546,-0.085,-0.065
1547,-0.075,-0.075
1548,-0.065,-0.080
1549,-0.055,-0.085
1550,-0.040,-0.075
1551,-0.025,-0.065
1552,-0.020,-0.070
1553,-0.015,-0.075
1554,-0.020,-0.085
1555,-0.030,-0.095
1556,-0.050,-0.105
1557,-0.070,-0.115
1558,-0.085,-0.110
1559,-0.105,-0.105
1560,-0.130,-0.110
1561,-0.145,-0.120
1562,-0.150,-0.135
1563,-0.155,-0.150
1564,-0.160,-0.160
1565,-0.165,-0.160
1566,-0.160,-0.145
1567,-0.160,-0.135
1568,-0.170,-0.140
1569,-0.175,-0.145
1570,-0.175,-0.145
1571,-0.175,-0.145
1572,-0.175,-0.150
1573,-0.175,-0.155
1574,-0.175,-0.150
1575,-0.175,-0.145
1576,-0.175,-0.145
1577,-0.175,-0.145
1578,-0.175,-0.145
1579,-0.175,-0.145
1580,-0.175,-0.145
1581,-0.170,-0.145
1582,-0.160,-0.140
1583,-0.155,-0.135
1584,-0.155,-0.135
1585,-0.150,-0.140
1586,-0.145,-0.145
1587,-0.135,-0.140
1588,-0.125,-0.135
1589,-0.135,-0.130
1590,-0.145,-0.125
1591,-0.120,-0.105
1592,-0.065,-0.085
1593,0.100,-0.080
1594,0.325,-0.080
1595,0.740,-0.100
1596,1.190,-0.160
1597,1.725,-0.320
1598,1.790,-0.485
1599,0.965,-0.670
1600,0.200,-0.780
1601,-0.455,-0.760
1602,-0.810,-0.640
1603,-0.770,-0.400
1604,-0.645,-0.240
1605,-0.430,-0.165
1606,-0.280,-0.115
1607,-0.185,-0.090
1608,-0.145,-0.075
1609,-0.140,-0.070
1610,-0.135,-0.065
1611,-0.140,-0.065
1612,-0.145,-0.065
1613,-0.140,-0.060
1614,-0.135,-0.055
1615,-0.130,-0.055
1616,-0.125,-0.055
1617,-0.125,-0.055
1618,-0.125,-0.055
1619,-0.120,-0.055
1620,-0.115,-0.055
1621,-0.115,-0.050
1622,-0.115,-0.045
1623,-0.115,-0.045
1624,-0.115,-0.045
1625,-0.115,-0.045
1626,-0.100,-0.045
1627,-0.095,-0.045
1628,-0.090,-0.035
1629,-0.085,-0.025
1630,-0.085,-0.025
1631,-0.085,-0.025
1632,-0.080,-0.030
1633,-0.075,-0.035
1634,-0.065,-0.030
1635,-0.055,-0.025
1636,-0.050,-0.020
1637,-0.045,-0.015
1638,-0.045,-0.015
1639,-0.045,-0.015
1640,-0.040,-0.010
1641,-0.035,-0.005
1642,-0.030,-0.005
1643,-0.025,-0.005
1644,-0.015,0.005
1645,-0.005,0.015
1646,0.000,0.020
1647,0.005,0.025
1648,0.010,0.020
1649,0.015,0.020
1650,0.020,0.035
1651,0.030,0.045
1652,0.040,0.050
1653,0.045,0.055
1654,0.050,0.060
1655,0.055,0.065
1656,0.060,0.060
1657,0.065,0.055
1658,0.070,0.060
1659,0.075,0.065
1660,0.080,0.070
1661,0.085,0.070
1662,0.085,0.060
1663,0.085,0.055
1664,0.080,0.050
1665,0.080,0.040
1666,0.090,0.030
1667,0.090,0.025
1668,0.085,0.025
1669,0.080,0.015
1670,0.075,0.005
1671,0.065,0.000
1672,0.055,-0.005
1673,0.045,-0.010
1674,0.035,-0.015
1675,0.025,-0.025
1676,0.015,-0.035
1677,0.000,-0.045
1678,-0.020,-0.055
1679,-0.040,-0.065
1680,-0.055,-0.075
1681,-0.065,-0.075
1682,-0.075,-0.075
1683,-0.085,-0.080
1684,-0.095,-0.085
1685,-0.100,-0.090
1686,-0.105,-0.095
1687,-0.110,-0.100
1688,-0.115,-0.105
1689,-0.120,-0.105
1690,-0.125,-0.100
1691,-0.125,-0.090
1692,-0.125,-0.085
1693,-0.120,-0.090
1694,-0.115,-0.095
1695,-0.115,-0.100
1696,-0.115,-0.105
1697,-0.115,-0.105
1698,-0.115,-0.100
1699,-0.115,-0.090
1700,-0.115,-0.085
1701,-0.115,-0.090
1702,-0.115,-0.095
1703,-0.115,-0.095
1704,-0.115,-0.095
1705,-0.110,-0.090
1706,-0.105,-0.085
1707,-0.105,-0.080
1708,-0.105,-0.075
1709,-0.105,-0.085
1710,-0.105,-0.090
1711,-0.105,-0.095
1712,-0.100,-0.090
1713,-0.095,-0.085
1714,-0.095,-0.080
1715,-0.095,-0.075
1716,-0.095,-0.080
1717,-0.095,-0.085
1718,-0.095,-0.090
1719,-0.095,-0.095
1720,-0.100,-0.095
1721,-0.105,-0.095
1722,-0.105,-0.095
1723,-0.105,-0.095
1724,-0.105,-0.095
1725,-0.105,-0.095
1726,-0.110,-0.100
1727,-0.115,-0.105
1728,-0.115,-0.105
1729,-0.115,-0.105
1730,-0.115,-0.100
1731,-0.115,-0.095
1732,-0.120,-0.100
1733,-0.125,-0.105
1734,-0.125,-0.110
1735,-0.125,-0.115
1736,-0.125,-0.110
1737,-0.125,-0.105
1738,-0.120,-0.105
1739,-0.115,-0.105
1740,-0.115,-0.105
1741,-0.115,-0.105
1742,-0.115,-0.110
1743,-0.115,-0.115
1744,-0.115,-0.110
1745,-0.115,-0.100
1746,-0.115,-0.090
1747,-0.100,-0.085
1748,-0.080,-0.080
1749,-0.075,-0.075
1750,-0.075,-0.075
1751,-0.065,-0.070
1752,-0.065,-0.065
1753,-0.060,-0.055
1754,-0.055,-0.045
1755,-0.045,-0.055
1756,-0.035,-0.065
1757,-0.025,-0.075
1758,-0.015,-0.085
1759,0.000,-0.075
1760,0.015,-0.065
1761,0.020,-0.065
1762,0.025,-0.065
1763,0.010,-0.075
1764,-0.010,-0.090
1765,-0.025,-0.105
1766,-0.040,-0.115
1767,-0.060,-0.110
1768,-0.080,-0.105
1769,-0.095,-0.110
1770,-0.110,-0.115
1771,-0.125,-0.130
1772,-0.135,-0.135
1773,-0.135,-0.140
1774,-0.135,-0.145
1775,-0.130,-0.145
1776,-0.125,-0.145
1777,-0.130,-0.140
1778,-0.140,-0.135
1779,-0.150,-0.135
1780,-0.155,-0.135
1781,-0.150,-0.140
1782,-0.145,-0.145
1783,-0.150,-0.140
1784,-0.150,-0.135
1785,-0.140,-0.135
1786,-0.140,-0.135
1787,-0.150,-0.135
1788,-0.155,-0.135
1789,-0.155,-0.140
1790,-0.150,-0.145
1791,-0.140,-0.140
1792,-0.130,-0.130
1793,-0.125,-0.125
1794,-0.120,-0.125
1795,-0.115,-0.125
1796,-0.120,-0.130
1797,-0.125,-0.135
1798,-0.120,-0.110
1799,-0.100,-0.085
1800,-0.005,-0.070
1801,0.140,-0.055
1802,0.440,-0.060
1803,0.810,-0.105
1804,1.360,-0.270
1805,1.710,-0.425
1806,1.595,-0.570
1807,1.155,-0.700
1808,0.145,-0.810
1809,-0.530,-0.790
1810,-0.725,-0.575
1811,-0.740,-0.395
1812,-0.525,-0.250
1813,-0.350,-0.150
1814,-0.220,-0.095
1815,-0.145,-0.055
1816,-0.120,-0.035
1817,-0.105,-0.025
1818,-0.110,-0.030
1819,-0.115,-0.035
1820,-0.115,-0.040
1821,-0.115,-0.045
1822,-0.115,-0.040
1823,-0.115,-0.035
1824,-0.110,-0.035
1825,-0.105,-0.035
1826,-0.110,-0.035
1827,-0.110,-0.035
1828,-0.100,-0.035
1829,-0.095,-0.035
1830,-0.095,-0.035
1831,-0.095,-0.035
1832,-0.090,-0.030
1833,-0.085,-0.025
1834,-0.095,-0.015
1835,-0.090,-0.020
1836,-0.085,-0.025
1837,-0.080,-0.020
1838,-0.075,-0.015
1839,-0.065,-0.010
1840,-0.055,-0.005
1841,-0.060,-0.005
1842,-0.065,-0.005
1843,-0.060,-0.005
1844,-0.055,-0.005
1845,-0.050,0.000
1846,-0.045,0.005
1847,-0.035,0.015
1848,-0.025,0.025
1849,-0.020,0.025
1850,-0.015,0.025
1851,-0.015,0.025
1852,-0.015,0.025
1853,-0.005,0.035
1854,0.005,0.045
1855,0.010,0.060
1856,0.020,0.065
1857,0.030,0.065
1858,0.035,0.065
1859,0.040,0.070
1860,0.045,0.075
1861,0.050,0.080
1862,0.060,0.085
1863,0.070,0.090
1864,0.075,0.095
1865,0.075,0.100
1866,0.075,0.105
1867,0.080,0.105
1868,0.085,0.100
1869,0.090,0.090
1870,0.095,0.085
1871,0.095,0.090
1872,0.095,0.090
1873,0.095,0.080
1874,0.095,0.070
1875,0.095,0.075
1876,0.095,0.050
1877,0.095,0.045
1878,0.095,0.045
1879,0.095,0.045
1880,0.090,0.035
1881,0.085,0.025
1882,0.070,0.015
1883,0.055,0.005
1884,0.045,-0.005
1885,0.035,-0.015
1886,0.020,-0.020
1887,0.000,-0.025
1888,-0.020,-0.035
1889,-0.040,-0.050
1890,-0.055,-0.065
1891,-0.065,-0.075
1892,-0.075,-0.080
1893,-0.085,-0.085
1894,-0.085,-0.085
1895,-0.090,-0.085
1896,-0.105,-0.090
1897,-0.115,-0.095
1898,-0.120,-0.095
1899,-0.120,-0.095
1900,-0.110,-0.095
1901,-0.105,-0.095
1902,-0.105,-0.090
1903,-0.110,-0.085
1904,-0.120,-0.090
1905,-0.125,-0.095
1906,-0.120,-0.095
1907,-0.115,-0.095
1908,-0.115,-0.090
1909,-0.115,-0.085
1910,-0.115,-0.085
1911,-0.115,-0.085
1912,-0.115,-0.085
1913,-0.115,-0.085
1914,-0.115,-0.080
1915,-0.115,-0.075
1916,-0.110,-0.080
1917,-0.105,-0.080
1918,-0.105,-0.075
1919,-0.110,-0.075
1920,-0.115,-0.075
1921,-0.115,-0.075
1922,-0.115,-0.075
1923,-0.115,-0.085
1924,-0.115,-0.095
1925,-0.110,-0.085
1926,-0.105,-0.075
1927,-0.110,-0.080
1928,-0.115,-0.085
1929,-0.110,-0.085
1930,-0.105,-0.085
1931,-0.105,-0.090
1932,-0.105,-0.095
1933,-0.110,-0.095
1934,-0.115,-0.095
1935,-0.115,-0.095
1936,-0.115,-0.095
1937,-0.115,-0.100
1938,-0.120,-0.105
1939,-0.130,-0.105
1940,-0.135,-0.105
1941,-0.130,-0.100
1942,-0.125,-0.095
1943,-0.130,-0.100
1944,-0.135,-0.105
1945,-0.130,-0.110
1946,-0.125,-0.115
1947,-0.130,-0.115
1948,-0.135,-0.115
1949,-0.135,-0.110
1950,-0.135,-0.105
1951,-0.130,-0.105
1952,-0.125,-0.105
1953,-0.125,-0.105
1954,-0.120,-0.105
1955,-0.110,-0.100
1956,-0.100,-0.080
1957,-0.090,-0.060
1958,-0.085,-0.055
1959,-0.075,-0.055
1960,-0.060,-0.055
1961,-0.045,-0.055
1962,-0.050,-0.065
1963,-0.055,-0.075
1964,-0.045,-0.075
1965,-0.035,-0.075
1966,-0.025,-0.070
1967,-0.015,-0.065
1968,-0.010,-0.065
1969,-0.005,-0.065
1970,0.005,-0.075
1971,0.010,-0.085
1972,-0.020,-0.100
1973,-0.050,-0.115
1974,-0.070,-0.110
1975,-0.090,-0.105
1976,-0.110,-0.105
1977,-0.130,-0.110
1978,-0.145,-0.130
1979,-0.155,-0.145
1980,-0.150,-0.145
1981,-0.145,-0.145
1982,-0.145,-0.140
1983,-0.145,-0.135
1984,-0.150,-0.140
1985,-0.160,-0.145
1986,-0.170,-0.145
1987,-0.175,-0.145
1988,-0.170,-0.145
1989,-0.165,-0.145
1990,-0.170,-0.140
1991,-0.175,-0.135
1992,-0.175,-0.140
1993,-0.175,-0.145
1994,-0.175,-0.145
1995,-0.175,-0.145
1996,-0.170,-0.140
1997,-0.165,-0.135
1998,-0.170,-0.135
1999,-0.170,-0.135
2000,-0.175,-0.135
2001,-0.150,-0.145
2002,-0.145,-0.145
2003,-0.145,-0.135
2004,-0.145,-0.125
2005,-0.135,-0.105
2006,-0.110,-0.085
2007,0.005,-0.080
2008,0.170,-0.075
2009,0.515,-0.080
2010,0.925,-0.120
2011,1.535,-0.290
2012,1.795,-0.465
2013,1.145,-0.650
2014,0.460,-0.775
2015,-0.290,-0.780
2016,-0.765,-0.695
2017,-0.765,-0.450
2018,-0.670,-0.265
2019,-0.435,-0.170
2020,-0.270,-0.105
2021,-0.195,-0.080
2022,-0.155,-0.065
2023,-0.150,-0.060
2024,-0.145,-0.055
2025,-0.145,-0.055
2026,-0.145,-0.055
2027,-0.150,-0.050
2028,-0.155,-0.045
2029,-0.155,-0.050
2030,-0.155,-0.055
2031,-0.155,-0.060
2032,-0.145,-0.065
2033,-0.130,-0.060
2034,-0.125,-0.055
2035,-0.125,-0.050
2036,-0.125,-0.045
2037,-0.130,-0.045
2038,-0.135,-0.045
2039,-0.130,-0.045
2040,-0.125,-0.045
2041,-0.120,-0.040
2042,-0.115,-0.035
2043,-0.115,-0.035
2044,-0.110,-0.040
2045,-0.105,-0.045
2046,-0.105,-0.040
2047,-0.105,-0.035
2048,-0.100,-0.030
2049,-0.095,-0.025
2050,-0.090,-0.020
2051,-0.085,-0.015
2052,-0.075,-0.015
2053,-0.065,-0.015
2054,-0.065,-0.015
2055,-0.065,-0.015
2056,-0.060,-0.010
2057,-0.055,-0.005
2058,-0.050,0.005
2059,-0.045,0.015
2060,-0.035,0.010
2061,-0.025,0.005
2062,-0.025,0.005
2063,-0.025,0.010
2064,-0.020,0.020
2065,-0.010,0.030
2066,0.000,0.045
2067,0.005,0.055
2068,0.010,0.050
2069,0.015,0.045
2070,0.010,0.040
2071,0.010,0.035
2072,0.020,0.040
2073,0.025,0.045
2074,0.030,0.050
2075,0.035,0.055
2076,0.040,0.050
2077,0.045,0.040
2078,0.040,0.030
2079,0.035,0.025
2080,0.030,0.025
2081,0.025,0.025
2082,0.030,0.025
2083,0.035,0.020
2084,0.035,0.005
2085,0.030,-0.005
2086,0.025,-0.015
2087,0.025,-0.020
2088,0.025,-0.025
2089,0.010,-0.025
2090,-0.005,-0.025
2091,-0.020,-0.035
2092,-0.035,-0.045
2093,-0.050,-0.060
2094,-0.065,-0.075
2095,-0.080,-0.080
2096,-0.095,-0.085
2097,-0.105,-0.085
2098,-0.115,-0.085
2099,-0.125,-0.090
2100,-0.135,-0.095
2101,-0.140,-0.100
2102,-0.145,-0.105
2103,-0.145,-0.105
2104,-0.145,-0.105
2105,-0.160,-0.105
2106,-0.165,-0.105
2107,-0.165,-0.105
2108,-0.165,-0.105
2109,-0.165,-0.105
2110,-0.165,-0.105
2111,-0.165,-0.100
2112,-0.165,-0.095
2113,-0.160,-0.090
2114,-0.155,-0.085
2115,-0.160,-0.090
2116,-0.165,-0.095
2117,-0.165,-0.100
2118,-0.160,-0.105
2119,-0.150,-0.100
2120,-0.145,-0.090
2121,-0.140,-0.080
2122,-0.135,-0.080
2123,-0.140,-0.090
2124,-0.145,-0.095
2125,-0.145,-0.095
2126,-0.150,-0.100
2127,-0.155,-0.095
2128,-0.155,-0.095
2129,-0.155,-0.095
2130,-0.150,-0.100
2131,-0.145,-0.105
2132,-0.145,-0.105
2133,-0.145,-0.105
2134,-0.150,-0.105
2135,-0.155,-0.105
2136,-0.150,-0.100
2137,-0.145,-0.095
2138,-0.150,-0.100
2139,-0.155,-0.105
2140,-0.150,-0.115
2141,-0.145,-0.125
2142,-0.155,-0.125
2143,-0.165,-0.125
2144,-0.165,-0.120
2145,-0.165,-0.115
2146,-0.165,-0.115
2147,-0.165,-0.115
2148,-0.170,-0.120
2149,-0.175,-0.125
2150,-0.170,-0.125
2151,-0.165,-0.125
2152,-0.165,-0.120
2153,-0.165,-0.115
2154,-0.160,-0.110
2155,-0.145,-0.100
2156,-0.130,-0.090
2157,-0.125,-0.085
2158,-0.120,-0.080
2159,-0.110,-0.075
2160,-0.100,-0.075
2161,-0.095,-0.075
2162,-0.095,-0.075
2163,-0.095,-0.075
2164,-0.095,-0.080
2165,-0.075,-0.085
2166,-0.050,-0.085
2167,-0.040,-0.080
2168,-0.035,-0.075
2169,-0.025,-0.080
2170,-0.015,-0.085
2171,-0.040,-0.105
2172,-0.065,-0.125
2173,-0.085,-0.125
2174,-0.105,-0.125
2175,-0.120,-0.120
2176,-0.135,-0.115
2177,-0.155,-0.130
2178,-0.175,-0.145
2179,-0.180,-0.155
2180,-0.185,-0.165
2181,-0.180,-0.155
2182,-0.175,-0.145
2183,-0.180,-0.145
2184,-0.185,-0.145
2185,-0.185,-0.145
2186,-0.185,-0.145
2187,-0.190,-0.150
2188,-0.195,-0.155
2189,-0.195,-0.155
2190,-0.195,-0.155
2191,-0.195,-0.150
2192,-0.195,-0.145
2193,-0.195,-0.145
2194,-0.195,-0.145
2195,-0.195,-0.150
2196,-0.185,-0.155
2197,-0.170,-0.150
2198,-0.165,-0.145
2199,-0.170,-0.140
2200,-0.175,-0.135
2201,-0.180,-0.140
2202,-0.175,-0.145
2203,-0.160,-0.145
2204,-0.155,-0.145
2205,-0.155,-0.145
2206,-0.155,-0.130
2207,-0.160,-0.110
2208,-0.105,-0.105
2209,-0.035,-0.105
2210,0.185,-0.085
2211,0.425,-0.065
2212,0.935,-0.145
2213,1.410,-0.230
2214,1.565,-0.395
2215,1.540,-0.555
2216,0.545,-0.700
2217,-0.320,-0.785
2218,-0.655,-0.620
2219,-0.875,-0.455
2220,-0.735,-0.280
2221,-0.585,-0.155
2222,-0.410,-0.140
2223,-0.275,-0.125
2224,-0.210,-0.115
2225,-0.165,-0.105
2226,-0.160,-0.095
2227,-0.155,-0.085
2228,-0.150,-0.075
2229,-0.145,-0.065
2230,-0.140,-0.060
2231,-0.135,-0.055
2232,-0.135,-0.060
2233,-0.135,-0.065
2234,-0.135,-0.065
2235,-0.135,-0.065
2236,-0.135,-0.065
2237,-0.135,-0.065
2238,-0.130,-0.060
2239,-0.125,-0.055
2240,-0.120,-0.055
2241,-0.115,-0.055
2242,-0.115,-0.060
2243,-0.115,-0.065
2244,-0.110,-0.060
2245,-0.100,-0.050
2246,-0.090,-0.040
2247,-0.085,-0.035
2248,-0.090,-0.040
2249,-0.095,-0.045
2250,-0.095,-0.045
2251,-0.085,-0.045
2252,-0.085,-0.045
2253,-0.070,-0.035
2254,-0.055,-0.025
2255,-0.050,-0.025
2256,-0.045,-0.025
2257,-0.040,-0.025
2258,-0.035,-0.025
2259,-0.030,-0.020
2260,-0.025,-0.015
2261,-0.020,-0.005
2262,-0.015,0.005
2263,-0.010,0.005
2264,-0.005,0.005
2265,-0.005,0.000
2266,-0.005,-0.005
2267,0.000,0.000
2268,0.005,0.005
2269,0.015,0.015
2270,0.025,0.025
2271,0.030,0.030
2272,0.040,0.035
2273,0.050,0.035
2274,0.055,0.035
2275,0.060,0.035
2276,0.065,0.035
2277,0.065,0.040
2278,0.065,0.045
2279,0.065,0.040
2280,0.065,0.035
2281,0.065,0.030
2282,0.065,0.020
2283,0.060,0.010
2284,0.055,0.005
2285,0.055,0.010
2286,0.055,0.015
2287,0.055,0.010
2288,0.055,0.005
2289,0.055,0.000
2290,0.055,-0.010
2291,0.050,-0.020
2292,0.045,-0.025
2293,0.045,-0.025
2294,0.030,-0.030
2295,0.015,-0.035
2296,0.000,-0.040
2297,-0.015,-0.045
2298,-0.020,-0.055
2299,-0.025,-0.065
2300,-0.035,-0.065
2301,-0.045,-0.065
2302,-0.060,-0.070
2303,-0.075,-0.075
2304,-0.080,-0.075
2305,-0.085,-0.075
2306,-0.085,-0.080
2307,-0.085,-0.085
2308,-0.080,-0.080
2309,-0.075,-0.075
2310,-0.080,-0.075
2311,-0.085,-0.075
2312,-0.080,-0.075
2313,-0.075,-0.075
2314,-0.080,-0.075
2315,-0.085,-0.075
2316,-0.080,-0.070
2317,-0.075,-0.065
2318,-0.075,-0.065
2319,-0.075,-0.065
2320,-0.070,-0.065
2321,-0.065,-0.065
2322,-0.065,-0.070
2323,-0.065,-0.070
2324,-0.065,-0.060
2325,-0.065,-0.055
2326,-0.060,-0.055
2327,-0.055,-0.055
2328,-0.055,-0.060
2329,-0.055,-0.065
2330,-0.060,-0.065
2331,-0.065,-0.065
2332,-0.060,-0.065
2333,-0.055,-0.065
2334,-0.055,-0.055
2335,-0.060,-0.065
2336,-0.065,-0.075
2337,-0.060,-0.075
2338,-0.055,-0.075
2339,-0.055,-0.070
2340,-0.055,-0.065
2341,-0.060,-0.070
2342,-0.065,-0.075
2343,-0.070,-0.080
2344,-0.075,-0.085
2345,-0.075,-0.085
2346,-0.075,-0.085
2347,-0.070,-0.075
2348,-0.065,-0.065
2349,-0.070,-0.075
2350,-0.075,-0.085
2351,-0.080,-0.090
2352,-0.085,-0.095
2353,-0.080,-0.090
2354,-0.075,-0.085
2355,-0.075,-0.080
2356,-0.075,-0.075
2357,-0.075,-0.075
2358,-0.065,-0.070
2359,-0.045,-0.060
2360,-0.035,-0.050
2361,-0.030,-0.040
2362,-0.025,-0.035
2363,-0.020,-0.035
2364,-0.015,-0.035
2365,-0.010,-0.035
2366,-0.005,-0.035
2367,0.000,-0.040
2368,0.025,-0.045
2369,0.050,-0.050
2370,0.055,-0.050
2371,0.055,-0.040
2372,0.060,-0.040
2373,0.070,-0.050
2374,0.065,-0.065
2375,0.075,-0.055
2376,0.020,-0.090
2377,-0.005,-0.095
2378,-0.020,-0.090
2379,-0.035,-0.085
2380,-0.050,-0.095
2381,-0.065,-0.105
2382,-0.075,-0.120
2383,-0.085,-0.135
2384,-0.085,-0.125
2385,-0.085,-0.115
2386,-0.085,-0.115
2387,-0.085,-0.115
2388,-0.085,-0.120
2389,-0.085,-0.125
2390,-0.090,-0.125
2391,-0.095,-0.125
2392,-0.100,-0.125
2393,-0.105,-0.125
2394,-0.100,-0.120
2395,-0.095,-0.115
2396,-0.095,-0.120
2397,-0.095,-0.125
2398,-0.095,-0.125
2399,-0.095,-0.125
2400,-0.090,-0.125
2401,-0.085,-0.125
2402,-0.085,-0.120
2403,-0.085,-0.115
2404,-0.080,-0.110
2405,-0.070,-0.105
2406,-0.060,-0.110
2407,-0.055,-0.115
2408,-0.055,-0.115
2409,-0.060,-0.100
2410,-0.070,-0.080
2411,-0.010,-0.070
2412,0.075,-0.060
2413,0.265,-0.045
2414,0.470,-0.030
2415,0.950,-0.125
2416,1.445,-0.230
2417,1.750,-0.390
2418,2.015,-0.545
2419,1.050,-0.700
2420,0.120,-0.840
2421,-0.365,-0.715
2422,-0.780,-0.585
2423,-0.660,-0.390
2424,-0.525,-0.215
2425,-0.325,-0.130
2426,-0.155,-0.065
2427,-0.105,-0.045
2428,-0.065,-0.025
2429,-0.065,-0.025
2430,-0.065,-0.025
2431,-0.060,-0.020
2432,-0.055,-0.015
2433,-0.055,-0.015
2434,-0.055,-0.015
2435,-0.050,-0.015
2436,-0.045,-0.015
2437,-0.050,-0.020
2438,-0.055,-0.025
2439,-0.050,-0.020
2440,-0.040,-0.015
2441,-0.030,-0.010
2442,-0.025,-0.005
2443,-0.030,-0.005
2444,-0.035,-0.005
2445,-0.035,-0.005
2446,-0.035,-0.005
2447,-0.030,-0.005
2448,-0.020,-0.005
2449,-0.010,0.000
2450,-0.005,0.005
2451,-0.010,0.005
2452,-0.015,0.005
2453,-0.010,0.005
2454,-0.005,0.005
2455,-0.005,0.010
2456,0.005,0.020
2457,0.020,0.030
2458,0.025,0.035
2459,0.035,0.035
2460,0.035,0.030
2461,0.035,0.025
2462,0.045,0.030
2463,0.055,0.035
2464,0.060,0.050
2465,0.065,0.065
2466,0.070,0.065
2467,0.075,0.065
2468,0.075,0.060
2469,0.075,0.055
2470,0.080,0.065
2471,0.085,0.075
2472,0.100,0.090
2473,0.115,0.105
2474,0.120,0.105
2475,0.125,0.105
2476,0.130,0.105
2477,0.135,0.105
2478,0.145,0.105
2479,0.155,0.105
2480,0.155,0.120
2481,0.155,0.120
2482,0.155,0.110
2483,0.155,0.105
2484,0.160,0.100
2485,0.165,0.095
2486,0.160,0.090
2487,0.155,0.085
2488,0.160,0.085
2489,0.165,0.085
2490,0.160,0.080
2491,0.155,0.070
2492,0.155,0.060
2493,0.155,0.045
2494,0.155,0.030
2495,0.145,0.025
2496,0.130,0.025
2497,0.105,0.020
2498,0.080,0.010
2499,0.065,0.000
2500,0.075,0.005
2501,0.030,-0.030
2502,0.015,-0.045
2503,0.010,-0.045
2504,0.005,-0.045
2505,-0.010,-0.050
2506,-0.025,-0.055
2507,-0.035,-0.060
2508,-0.045,-0.065
2509,-0.045,-0.065
2510,-0.045,-0.065
2511,-0.040,-0.060
2512,-0.035,-0.055
2513,-0.040,-0.060
2514,-0.045,-0.065
2515,-0.045,-0.070
2516,-0.045,-0.075
2517,-0.050,-0.070
2518,-0.050,-0.065
2519,-0.035,-0.055
2520,-0.025,-0.045
2521,-0.030,-0.045
2522,-0.035,-0.045
2523,-0.035,-0.050
2524,-0.035,-0.055
2525,-0.035,-0.050
2526,-0.035,-0.045
2527,-0.030,-0.040
2528,-0.025,-0.035
2529,-0.030,-0.040
2530,-0.035,-0.045
2531,-0.030,-0.050
2532,-0.025,-0.055
2533,-0.030,-0.055
2534,-0.035,-0.055
2535,-0.030,-0.050
2536,-0.025,-0.045
2537,-0.030,-0.045
2538,-0.035,-0.050
2539,-0.040,-0.060
2540,-0.040,-0.065
2541,-0.030,-0.060
2542,-0.035,-0.055
2543,-0.045,-0.055
2544,-0.045,-0.060
2545,-0.045,-0.065
2546,-0.050,-0.070
2547,-0.055,-0.075
2548,-0.060,-0.075
2549,-0.065,-0.075
2550,-0.055,-0.065
2551,-0.045,-0.055
2552,-0.050,-0.065
2553,-0.055,-0.075
2554,-0.055,-0.075
2555,-0.055,-0.075
2556,-0.055,-0.075
2557,-0.055,-0.075
2558,-0.055,-0.070
2559,-0.055,-0.065
2560,-0.055,-0.070
2561,-0.055,-0.075
2562,-0.055,-0.080
2563,-0.055,-0.085
2564,-0.060,-0.085
2565,-0.065,-0.085
2566,-0.065,-0.080
2567,-0.065,-0.075
2568,-0.065,-0.075
2569,-0.065,-0.075
2570,-0.060,-0.075
2571,-0.050,-0.075
2572,-0.040,-0.070
2573,-0.025,-0.050
2574,-0.010,-0.030
2575,-0.010,-0.025
2576,-0.020,-0.030
2577,-0.010,-0.035
2578,0.010,-0.030
2579,0.015,-0.025
2580,0.010,-0.030
2581,0.015,-0.035
2582,0.030,-0.035
2583,0.040,-0.035
2584,0.055,-0.045
2585,0.055,-0.040
2586,0.055,-0.035
2587,0.075,-0.035
2588,0.095,-0.035
2589,0.075,-0.050
2590,0.055,-0.065
2591,0.030,-0.075
2592,0.005,-0.085
2593,-0.015,-0.085
2594,-0.035,-0.085
2595,-0.050,-0.090
2596,-0.065,-0.095
2597,-0.065,-0.100
2598,-0.065,-0.105
2599,-0.070,-0.105
2600,-0.075,-0.105
2601,-0.080,-0.110
2602,-0.085,-0.115
2603,-0.080,-0.115
2604,-0.075,-0.115
2605,-0.075,-0.100
2606,-0.075,-0.095
2607,-0.080,-0.100
2608,-0.085,-0.105
2609,-0.090,-0.105
2610,-0.095,-0.105
2611,-0.095,-0.105
2612,-0.090,-0.100
2613,-0.080,-0.090
2614,-0.075,-0.085
2615,-0.080,-0.090
2616,-0.085,-0.095
2617,-0.080,-0.100
2618,-0.075,-0.105
2619,-0.070,-0.100
2620,-0.065,-0.095
2621,-0.060,-0.095
2622,-0.055,-0.095
2623,-0.050,-0.095
2624,-0.055,-0.090
2625,-0.045,-0.095
2626,-0.025,-0.065
2627,0.030,-0.055
2628,0.235,-0.030
2629,0.465,-0.015
2630,0.930,-0.120
2631,1.385,-0.235
2632,1.760,-0.405
2633,1.890,-0.575
2634,0.950,-0.735
2635,0.105,-0.835
2636,-0.410,-0.695
2637,-0.750,-0.540
2638,-0.625,-0.340
2639,-0.470,-0.180
2640,-0.270,-0.105
2641,-0.130,-0.050
2642,-0.090,-0.030
2643,-0.065,-0.015
2644,-0.060,-0.010
2645,-0.055,-0.005
2646,-0.060,-0.005
2647,-0.065,-0.005
2648,-0.065,-0.010
2649,-0.065,-0.015
2650,-0.060,-0.015
2651,-0.055,-0.015
2652,-0.050,-0.010
2653,-0.045,-0.005
2654,-0.050,0.000
2655,-0.055,0.005
2656,-0.055,0.000
2657,-0.055,-0.005
2658,-0.050,0.000
2659,-0.040,0.005
2660,-0.030,0.005
2661,-0.025,0.005
2662,-0.030,0.010
2663,-0.035,0.015
2664,-0.035,0.010
2665,-0.030,0.005
2666,-0.020,0.010
2667,-0.010,0.025
2668,-0.005,0.035
2669,-0.005,0.035
2670,-0.005,0.035
2671,0.000,0.035
2672,0.005,0.035
2673,0.010,0.040
2674,0.015,0.045
2675,0.025,0.050
2676,0.035,0.055
2677,0.040,0.060
2678,0.045,0.065
2679,0.045,0.065
2680,0.045,0.065
2681,0.055,0.070
2682,0.065,0.080
2683,0.075,0.095
2684,0.085,0.105
2685,0.085,0.105
2686,0.085,0.105
2687,0.090,0.105
2688,0.095,0.105
2689,0.095,0.110
2690,0.100,0.115
2691,0.115,0.120
2692,0.125,0.125
2693,0.120,0.125
2694,0.115,0.125
2695,0.120,0.125
2696,0.125,0.125
2697,0.130,0.120
2698,0.135,0.115
2699,0.135,0.115
2700,0.135,0.110
2701,0.130,0.100
2702,0.125,0.090
2703,0.130,0.080
2704,0.130,0.075
2705,0.120,0.070
2706,0.115,0.065
2707,0.120,0.065
2708,0.120,0.060
2709,0.105,0.045
2710,0.090,0.030
2711,0.075,0.015
2712,0.055,0.005
2713,0.035,-0.005
2714,0.025,-0.005
2715,0.015,-0.005
2716,0.000,-0.015
2717,-0.015,-0.025
2718,-0.025,-0.035
2719,-0.035,-0.045
2720,-0.045,-0.050
2721,-0.055,-0.055
2722,-0.055,-0.050
2723,-0.055,-0.045
2724,-0.060,-0.050
2725,-0.065,-0.055
2726,-0.065,-0.055
2727,-0.065,-0.055
2728,-0.060,-0.055
2729,-0.055,-0.055
2730,-0.055,-0.050
2731,-0.055,-0.045
2732,-0.060,-0.040
2733,-0.065,-0.040
2734,-0.065,-0.050
2735,-0.065,-0.055
2736,-0.060,-0.050
2737,-0.055,-0.045
2738,-0.055,-0.045
2739,-0.055,-0.045
2740,-0.060,-0.045
2741,-0.065,-0.045
2742,-0.065,-0.045
2743,-0.065,-0.045
2744,-0.060,-0.045
2745,-0.055,-0.045
2746,-0.055,-0.045
2747,-0.055,-0.045
2748,-0.060,-0.050
2749,-0.065,-0.055
2750,-0.065,-0.055
2751,-0.065,-0.060
2752,-0.065,-0.055
2753,-0.070,-0.055
2754,-0.075,-0.055
2755,-0.070,-0.060
2756,-0.065,-0.065
2757,-0.075,-0.065
2758,-0.085,-0.065
2759,-0.085,-0.065
2760,-0.085,-0.065
2761,-0.075,-0.065
2762,-0.065,-0.065
2763,-0.075,-0.070
2764,-0.085,-0.075
2765,-0.085,-0.075
2766,-0.085,-0.075
2767,-0.095,-0.075
2768,-0.105,-0.075
2769,-0.100,-0.075
2770,-0.095,-0.075
2771,-0.100,-0.080
2772,-0.105,-0.085
2773,-0.105,-0.090
2774,-0.105,-0.095
2775,-0.105,-0.095
2776,-0.105,-0.095
2777,-0.100,-0.090
2778,-0.095,-0.085
2779,-0.100,-0.085
2780,-0.105,-0.085
2781,-0.105,-0.090
2782,-0.105,-0.095
2783,-0.105,-0.095
2784,-0.105,-0.090
2785,-0.105,-0.080
2786,-0.105,-0.075
2787,-0.110,-0.080
2788,-0.115,-0.085
2789,-0.115,-0.090
2790,-0.115,-0.095
2791,-0.110,-0.095
2792,-0.105,-0.090
2793,-0.105,-0.085
2794,-0.105,-0.080
2795,-0.105,-0.075
2796,-0.085,-0.070
2797,-0.065,-0.065
2798,-0.065,-0.055
2799,-0.065,-0.045
2800,-0.055,-0.040
2801,-0.045,-0.035
2802,-0.045,-0.035
2803,-0.045,-0.035
2804,-0.040,-0.045
2805,-0.030,-0.055
2806,-0.005,-0.055
2807,0.015,-0.055
2808,0.015,-0.050
2809,0.015,-0.045
2810,0.020,-0.045
2811,0.025,-0.050
2812,0.015,-0.065
2813,-0.005,-0.080
2814,-0.030,-0.095
2815,-0.050,-0.100
2816,-0.060,-0.090
2817,-0.075,-0.090
2818,-0.095,-0.100
2819,-0.110,-0.110
2820,-0.120,-0.120
2821,-0.125,-0.125
2822,-0.125,-0.125
2823,-0.125,-0.125
2824,-0.125,-0.120
2825,-0.125,-0.115
2826,-0.130,-0.120
2827,-0.135,-0.125
2828,-0.135,-0.130
2829,-0.135,-0.135
2830,-0.140,-0.130
2831,-0.145,-0.125
2832,-0.140,-0.120
2833,-0.135,-0.115
2834,-0.145,-0.115
2835,-0.145,-0.120
2836,-0.145,-0.125
2837,-0.140,-0.125
2838,-0.135,-0.125
2839,-0.135,-0.115
2840,-0.135,-0.105
2841,-0.130,-0.110
2842,-0.125,-0.115
2843,-0.120,-0.120
2844,-0.115,-0.125
2845,-0.110,-0.125
2846,-0.105,-0.120
2847,-0.115,-0.095
2848,-0.110,-0.075
2849,-0.050,-0.070
2850,0.045,-0.065
2851,0.205,-0.060
2852,0.490,-0.075
2853,0.940,-0.125
2854,1.385,-0.230
2855,1.820,-0.390
2856,1.540,-0.560
2857,0.625,-0.745
2858,-0.075,-0.775
2859,-0.620,-0.690
2860,-0.780,-0.530
2861,-0.705,-0.325
2862,-0.535,-0.205
2863,-0.325,-0.130
2864,-0.220,-0.090
2865,-0.155,-0.065
2866,-0.135,-0.055
2867,-0.135,-0.050
2868,-0.130,-0.045
2869,-0.120,-0.040
2870,-0.115,-0.035
2871,-0.120,-0.035
2872,-0.125,-0.035
2873,-0.125,-0.040
2874,-0.125,-0.045
2875,-0.125,-0.045
2876,-0.125,-0.040
2877,-0.125,-0.035
2878,-0.120,-0.030
2879,-0.115,-0.025
2880,-0.110,-0.030
2881,-0.105,-0.035
2882,-0.100,-0.035
2883,-0.095,-0.035
2884,-0.095,-0.030
2885,-0.095,-0.025
2886,-0.085,-0.020
2887,-0.075,-0.015
2888,-0.080,-0.020
2889,-0.085,-0.025
2890,-0.075,-0.025
2891,-0.065,-0.025
2892,-0.060,-0.020
2893,-0.055,-0.015
2894,-0.055,-0.010
2895,-0.055,-0.005
2896,-0.050,-0.005
2897,-0.045,-0.005
2898,-0.040,-0.005
2899,-0.035,-0.005
2900,-0.030,0.000
2901,-0.020,0.005
2902,-0.010,0.010
2903,-0.005,0.015
2904,-0.010,0.020
2905,-0.015,0.025
2906,-0.010,0.025
2907,0.000,0.030
2908,0.010,0.040
2909,0.015,0.045
2910,0.020,0.050
2911,0.025,0.055
2912,0.025,0.055
2913,0.025,0.055
2914,0.025,0.050
2915,0.025,0.045
2916,0.025,0.045
2917,0.035,0.050
2918,0.045,0.055
2919,0.040,0.050
2920,0.035,0.045
2921,0.035,0.030
2922,0.035,0.015
2923,0.030,0.020
2924,0.025,0.025
2925,0.025,0.020
2926,0.025,0.015
2927,0.025,0.005
2928,0.025,-0.005
2929,0.015,-0.015
2930,0.005,-0.025
2931,0.005,-0.025
2932,0.005,-0.025
2933,-0.005,-0.025
2934,-0.015,-0.025
2935,-0.020,-0.035
2936,-0.025,-0.045
2937,-0.035,-0.055
2938,-0.050,-0.065
2939,-0.065,-0.070
2940,-0.080,-0.075
2941,-0.090,-0.070
2942,-0.100,-0.065
2943,-0.110,-0.070
2944,-0.120,-0.080
2945,-0.130,-0.090
2946,-0.135,-0.095
2947,-0.135,-0.095
2948,-0.135,-0.095
2949,-0.130,-0.090
2950,-0.125,-0.085
2951,-0.130,-0.085
2952,-0.135,-0.085
2953,-0.135,-0.090
2954,-0.135,-0.095
2955,-0.140,-0.090
2956,-0.140,-0.085
2957,-0.130,-0.080
2958,-0.125,-0.075
2959,-0.125,-0.085
2960,-0.120,-0.085
2961,-0.115,-0.085
2962,-0.125,-0.085
2963,-0.135,-0.085
2964,-0.130,-0.085
2965,-0.125,-0.085
2966,-0.120,-0.080
2967,-0.115,-0.075
2968,-0.115,-0.080
2969,-0.115,-0.085
2970,-0.120,-0.090
2971,-0.125,-0.095
2972,-0.125,-0.090
2973,-0.125,-0.085
2974,-0.125,-0.085
2975,-0.125,-0.085
2976,-0.125,-0.090
2977,-0.125,-0.095
2978,-0.125,-0.100
2979,-0.125,-0.105
2980,-0.130,-0.100
2981,-0.135,-0.095
2982,-0.140,-0.095
2983,-0.145,-0.095
2984,-0.140,-0.095
2985,-0.135,-0.100
2986,-0.135,-0.110
2987,-0.135,-0.115
2988,-0.140,-0.110
2989,-0.145,-0.105
2990,-0.145,-0.100
2991,-0.145,-0.095
2992,-0.145,-0.100
2993,-0.145,-0.110
2994,-0.150,-0.120
2995,-0.155,-0.125
2996,-0.150,-0.120
2997,-0.150,-0.115
2998,-0.160,-0.110
2999,-0.165,-0.105
3000,-0.165,-0.105
3001,-0.155,-0.115
3002,-0.155,-0.115
3003,-0.145,-0.105
3004,-0.135,-0.095
3005,-0.125,-0.085
3006,-0.115,-0.075
3007,-0.110,-0.070
3008,-0.105,-0.065
3009,-0.100,-0.070
3010,-0.095,-0.075
3011,-0.090,-0.070
3012,-0.085,-0.065
3013,-0.080,-0.070
3014,-0.070,-0.075
3015,-0.045,-0.080
3016,-0.025,-0.085
3017,-0.025,-0.085
3018,-0.025,-0.085
3019,-0.015,-0.080
3020,-0.015,-0.080
3021,-0.040,-0.095
3022,-0.060,-0.105
3023,-0.075,-0.110
3024,-0.095,-0.115
3025,-0.115,-0.120
3026,-0.130,-0.125
3027,-0.145,-0.130
3028,-0.160,-0.135
3029,-0.170,-0.135
3030,-0.175,-0.135
3031,-0.170,-0.140
3032,-0.165,-0.145
3033,-0.165,-0.150
3034,-0.165,-0.155
3035,-0.165,-0.150
3036,-0.165,-0.145
3037,-0.170,-0.145
3038,-0.175,-0.145
3039,-0.180,-0.145
3040,-0.185,-0.145
3041,-0.180,-0.145
3042,-0.170,-0.140
3043,-0.165,-0.135
3044,-0.165,-0.140
3045,-0.165,-0.145
3046,-0.165,-0.145
3047,-0.165,-0.145
3048,-0.165,-0.145
3049,-0.165,-0.145
3050,-0.155,-0.140
3051,-0.145,-0.135
3052,-0.140,-0.140
3053,-0.135,-0.145
3054,-0.145,-0.130
3055,-0.130,-0.115
3056,-0.050,-0.110
3057,0.085,-0.100
3058,0.325,-0.080
3059,0.685,-0.095
3060,1.235,-0.180
3061,1.525,-0.300
3062,1.495,-0.475
3063,0.980,-0.625
3064,-0.020,-0.745
3065,-0.585,-0.690
3066,-0.790,-0.475
3067,-0.760,-0.310
3068,-0.560,-0.185
3069,-0.395,-0.135
3070,-0.250,-0.135
3071,-0.185,-0.115
3072,-0.145,-0.085
3073,-0.135,-0.075
3074,-0.130,-0.070
3075,-0.125,-0.065
3076,-0.125,-0.070
3077,-0.130,-0.075
3078,-0.140,-0.080
3079,-0.140,-0.080
3080,-0.130,-0.070
3081,-0.125,-0.065
3082,-0.120,-0.065
3083,-0.115,-0.065
3084,-0.115,-0.075
3085,-0.105,-0.070
3086,-0.095,-0.065
3087,-0.095,-0.065
3088,-0.095,-0.065
3089,-0.100,-0.055
3090,-0.105,-0.045
3091,-0.095,-0.045
3092,-0.085,-0.045
3093,-0.085,-0.050
3094,-0.085,-0.055
3095,-0.080,-0.050
3096,-0.075,-0.045
3097,-0.070,-0.040
3098,-0.065,-0.035
3099,-0.065,-0.040
3100,-0.060,-0.045
3101,-0.045,-0.045
3102,-0.035,-0.045
3103,-0.035,-0.040
3104,-0.035,-0.035
3105,-0.030,-0.030
3106,-0.025,-0.025
3107,-0.025,-0.020
3108,-0.020,-0.015
3109,-0.010,-0.020
3110,-0.005,-0.020
3111,0.000,-0.010
3112,0.005,-0.005
3113,0.010,0.000
3114,0.015,0.005
3115,0.020,0.005
3116,0.025,0.005
3117,0.025,0.010
3118,0.030,0.015
3119,0.040,0.015
3120,0.045,0.015
3121,0.050,0.020
3122,0.055,0.025
3123,0.055,0.025
3124,0.055,0.025
3125,0.055,0.025
3126,0.055,0.010
3127,0.055,0.005
3128,0.055,0.005
3129,0.055,0.005
3130,0.050,-0.005
3131,0.045,-0.015
3132,0.040,-0.020
3133,0.035,-0.025
3134,0.045,-0.030
3135,0.055,-0.035
3136,0.055,-0.035
3137,0.055,-0.035
3138,0.040,-0.045
3139,0.025,-0.055
3140,0.015,-0.065
3141,0.000,-0.075
3142,-0.015,-0.075
3143,-0.025,-0.075
3144,-0.030,-0.075
3145,-0.040,-0.075
3146,-0.055,-0.090
3147,-0.070,-0.100
3148,-0.080,-0.110
3149,-0.085,-0.115
3150,-0.090,-0.115
3151,-0.095,-0.115
3152,-0.095,-0.110
3153,-0.095,-0.105
3154,-0.100,-0.110
3155,-0.105,-0.115
3156,-0.105,-0.120
3157,-0.105,-0.125
3158,-0.105,-0.120
3159,-0.105,-0.115
3160,-0.100,-0.110
3161,-0.095,-0.105
3162,-0.095,-0.105
3163,-0.095,-0.105
3164,-0.100,-0.110
3165,-0.100,-0.115
3166,-0.090,-0.115
3167,-0.090,-0.105
3168,-0.095,-0.095
3169,-0.095,-0.100
3170,-0.095,-0.105
3171,-0.090,-0.110
3172,-0.085,-0.115
3173,-0.085,-0.110
3174,-0.085,-0.105
3175,-0.085,-0.100
3176,-0.085,-0.095
3177,-0.085,-0.100
3178,-0.085,-0.105
3179,-0.090,-0.105
3180,-0.095,-0.105
3181,-0.090,-0.105
3182,-0.085,-0.105
3183,-0.085,-0.100
3184,-0.085,-0.095
3185,-0.085,-0.105
3186,-0.085,-0.115
3187,-0.090,-0.115
3188,-0.095,-0.115
3189,-0.100,-0.115
3190,-0.105,-0.115
3191,-0.100,-0.110
3192,-0.095,-0.105
3193,-0.100,-0.110
3194,-0.105,-0.115
3195,-0.105,-0.120
3196,-0.105,-0.125
3197,-0.105,-0.125
3198,-0.105,-0.125
3199,-0.105,-0.120
3200,-0.105,-0.115
3201,-0.105,-0.115
3202,-0.105,-0.120
3203,-0.105,-0.130
3204,-0.105,-0.135
3205,-0.110,-0.130
3206,-0.115,-0.120
3207,-0.110,-0.110
3208,-0.095,-0.105
3209,-0.075,-0.095
3210,-0.065,-0.090
3211,-0.055,-0.085
3212,-0.050,-0.080
3213,-0.045,-0.075
3214,-0.040,-0.070
3215,-0.035,-0.065
3216,-0.030,-0.070
3217,-0.025,-0.075
3218,-0.015,-0.085
3219,-0.005,-0.095
3220,0.005,-0.090
3221,0.015,-0.085
3222,0.030,-0.085
3223,0.040,-0.085
3224,0.025,-0.090
3225,0.010,-0.100
3226,-0.010,-0.115
3227,-0.030,-0.125
3228,-0.045,-0.120
3229,-0.060,-0.115
3230,-0.085,-0.120
3231,-0.100,-0.130
3232,-0.110,-0.145
3233,-0.115,-0.155
3234,-0.120,-0.155
3235,-0.125,-0.155
3236,-0.125,-0.155
3237,-0.125,-0.155
3238,-0.125,-0.150
3239,-0.125,-0.145
3240,-0.125,-0.150
3241,-0.125,-0.155
3242,-0.130,-0.160
3243,-0.135,-0.165
3244,-0.135,-0.160
3245,-0.135,-0.155
3246,-0.135,-0.150
3247,-0.135,-0.145
3248,-0.135,-0.145
3249,-0.135,-0.145
3250,-0.135,-0.145
3251,-0.125,-0.145
3252,-0.115,-0.145
3253,-0.115,-0.145
3254,-0.115,-0.145
3255,-0.105,-0.145
3256,-0.095,-0.145
3257,-0.105,-0.140
3258,-0.110,-0.135
3259,-0.070,-0.115
3260,0.000,-0.095
3261,0.160,-0.085
3262,0.400,-0.085
3263,0.850,-0.140
3264,1.310,-0.225
3265,1.785,-0.385
3266,1.775,-0.545
3267,0.945,-0.715
3268,0.200,-0.815
3269,-0.430,-0.805
3270,-0.760,-0.690
3271,-0.745,-0.465
3272,-0.620,-0.305
3273,-0.395,-0.200
3274,-0.245,-0.135
3275,-0.155,-0.095
3276,-0.110,-0.070
3277,-0.100,-0.060
3278,-0.095,-0.055
3279,-0.100,-0.055
3280,-0.105,-0.055
3281,-0.105,-0.060
3282,-0.105,-0.065
3283,-0.110,-0.065
3284,-0.110,-0.060
3285,-0.100,-0.050
3286,-0.095,-0.045
3287,-0.095,-0.050
3288,-0.095,-0.055
3289,-0.095,-0.055
3290,-0.095,-0.055
3291,-0.090,-0.050
3292,-0.080,-0.045
3293,-0.075,-0.045
3294,-0.075,-0.040
3295,-0.075,-0.035
3296,-0.075,-0.040
3297,-0.075,-0.045
3298,-0.070,-0.045
3299,-0.065,-0.045
3300,-0.055,-0.035
3301,-0.045,-0.025
3302,-0.050,-0.025
3303,-0.055,-0.025
3304,-0.050,-0.025
3305,-0.045,-0.025
3306,-0.035,-0.020
3307,-0.025,-0.015
3308,-0.015,-0.010
3309,-0.005,-0.005
3310,-0.005,-0.005
3311,-0.005,-0.005
3312,-0.005,0.000
3313,-0.005,0.005
3314,-0.005,0.010
3315,0.005,0.020
3316,0.025,0.030
3317,0.035,0.035
3318,0.035,0.040
3319,0.035,0.045
3320,0.040,0.045
3321,0.050,0.045
3322,0.060,0.045
3323,0.065,0.050
3324,0.070,0.060
3325,0.080,0.070
3326,0.090,0.080
3327,0.095,0.085
3328,0.095,0.080
3329,0.095,0.075
3330,0.095,0.075
3331,0.095,0.075
3332,0.100,0.075
3333,0.105,0.075
3334,0.105,0.065
3335,0.100,0.060
3336,0.095,0.055
3337,0.100,0.045
3338,0.105,0.035
3339,0.100,0.035
3340,0.095,0.035
3341,0.090,0.020
3342,0.085,0.005
3343,0.080,0.000
3344,0.070,-0.005
3345,0.050,-0.015
3346,0.035,-0.025
3347,0.020,-0.030
3348,0.000,-0.035
3349,-0.015,-0.045
3350,-0.030,-0.055
3351,-0.045,-0.065
3352,-0.055,-0.075
3353,-0.060,-0.085
3354,-0.070,-0.095
3355,-0.085,-0.090
3356,-0.095,-0.085
3357,-0.100,-0.090
3358,-0.105,-0.095
3359,-0.110,-0.100
3360,-0.115,-0.105
3361,-0.110,-0.105
3362,-0.105,-0.105
3363,-0.105,-0.100
3364,-0.105,-0.095
3365,-0.105,-0.095
3366,-0.105,-0.095
3367,-0.110,-0.100
3368,-0.115,-0.105
3369,-0.110,-0.105
3370,-0.105,-0.105
3371,-0.100,-0.100
3372,-0.095,-0.095
3373,-0.100,-0.095
3374,-0.105,-0.095
3375,-0.105,-0.095
3376,-0.115,-0.095
3377,-0.125,-0.095
3378,-0.110,-0.090
3379,-0.095,-0.085
3380,-0.100,-0.085
3381,-0.105,-0.085
3382,-0.105,-0.095
3383,-0.105,-0.105
3384,-0.100,-0.105
3385,-0.095,-0.105
3386,-0.095,-0.095
3387,-0.095,-0.085
3388,-0.100,-0.090
3389,-0.105,-0.095
3390,-0.105,-0.100
3391,-0.105,-0.105
3392,-0.110,-0.105
3393,-0.115,-0.105
3394,-0.110,-0.105
3395,-0.105,-0.105
3396,-0.120,-0.105
3397,-0.125,-0.105
3398,-0.125,-0.110
3399,-0.125,-0.115
3400,-0.120,-0.115
3401,-0.115,-0.115
3402,-0.110,-0.110
3403,-0.110,-0.105
3404,-0.120,-0.110
3405,-0.125,-0.115
3406,-0.125,-0.120
3407,-0.125,-0.125
3408,-0.130,-0.120
3409,-0.135,-0.115
3410,-0.130,-0.115
3411,-0.125,-0.115
3412,-0.130,-0.115
3413,-0.135,-0.115
3414,-0.130,-0.120
3415,-0.120,-0.115
3416,-0.110,-0.100
3417,-0.090,-0.075
3418,-0.075,-0.055
3419,-0.075,-0.060
3420,-0.075,-0.065
3421,-0.070,-0.065
3422,-0.065,-0.065
3423,-0.060,-0.065
3424,-0.055,-0.065
3425,-0.045,-0.075
3426,-0.035,-0.085
3427,-0.025,-0.080
3428,-0.015,-0.075
3429,-0.005,-0.075
3430,0.005,-0.075
3431,0.000,-0.075
3432,-0.010,-0.080
3433,-0.030,-0.100
3434,-0.050,-0.115
3435,-0.065,-0.115
3436,-0.085,-0.115
3437,-0.110,-0.120
3438,-0.130,-0.130
3439,-0.140,-0.140
3440,-0.145,-0.145
3441,-0.145,-0.145
3442,-0.145,-0.145
3443,-0.145,-0.145
3444,-0.145,-0.145
3445,-0.150,-0.145
3446,-0.155,-0.145
3447,-0.160,-0.145
3448,-0.165,-0.145
3449,-0.165,-0.140
3450,-0.165,-0.135
3451,-0.165,-0.140
3452,-0.165,-0.145
3453,-0.170,-0.150
3454,-0.175,-0.155
3455,-0.170,-0.150
3456,-0.165,-0.145
3457,-0.165,-0.140
3458,-0.165,-0.135
3459,-0.155,-0.145
3460,-0.150,-0.145
3461,-0.145,-0.145
3462,-0.145,-0.140
3463,-0.145,-0.135
3464,-0.140,-0.130
3465,-0.135,-0.125
3466,-0.140,-0.115
3467,-0.130,-0.105
3468,-0.055,-0.095
3469,0.060,-0.085
3470,0.285,-0.070
3471,0.590,-0.085
3472,1.095,-0.200
3473,1.490,-0.330
3474,1.685,-0.495
3475,1.435,-0.655
3476,0.490,-0.805
3477,-0.225,-0.850
3478,-0.645,-0.735
3479,-0.800,-0.575
3480,-0.660,-0.365
3481,-0.500,-0.225
3482,-0.325,-0.140
3483,-0.220,-0.095
3484,-0.165,-0.075
3485,-0.145,-0.065
3486,-0.145,-0.060
3487,-0.145,-0.055
3488,-0.140,-0.050
3489,-0.135,-0.045
3490,-0.140,-0.045
3491,-0.145,-0.045
3492,-0.150,-0.050
3493,-0.155,-0.055
3494,-0.150,-0.055
3495,-0.145,-0.050
3496,-0.140,-0.040
3497,-0.135,-0.035
3498,-0.135,-0.040
3499,-0.135,-0.045
3500,-0.135,-0.045
3501,-0.130,-0.040
3502,-0.125,-0.045
3503,-0.115,-0.035
3504,-0.105,-0.025
3505,-0.110,-0.025
3506,-0.115,-0.025
3507,-0.115,-0.025
3508,-0.115,-0.025
3509,-0.110,-0.025
3510,-0.105,-0.025
3511,-0.095,-0.020
3512,-0.085,-0.015
3513,-0.085,-0.010
3514,-0.085,-0.005
3515,-0.080,-0.005
3516,-0.075,-0.005
3517,-0.070,0.000
3518,-0.065,0.005
3519,-0.055,0.015
3520,-0.045,0.025
3521,-0.040,0.020
3522,-0.035,0.015
3523,-0.040,0.020
3524,-0.040,0.025
3525,-0.030,0.030
3526,-0.020,0.040
3527,-0.005,0.050
3528,0.005,0.055
3529,0.005,0.055
3530,0.005,0.055
3531,0.005,0.060
3532,0.005,0.065
3533,0.010,0.070
3534,0.020,0.075
3535,0.030,0.075
3536,0.035,0.075
3537,0.035,0.075
3538,0.035,0.075
3539,0.035,0.070
3540,0.035,0.065
3541,0.040,0.060
3542,0.040,0.060
3543,0.035,0.065
3544,0.035,0.055
3545,0.035,0.045
3546,0.035,0.035
3547,0.035,0.025
3548,0.035,0.015
3549,0.035,0.005
3550,0.030,0.005
3551,0.025,0.005
3552,0.010,-0.005
3553,-0.005,-0.015
3554,-0.020,-0.025
3555,-0.035,-0.035
3556,-0.045,-0.045
3557,-0.060,-0.055
3558,-0.080,-0.060
3559,-0.100,-0.065
3560,-0.120,-0.070
3561,-0.135,-0.075
3562,-0.145,-0.085
3563,-0.155,-0.095
3564,-0.155,-0.100
3565,-0.155,-0.105
3566,-0.155,-0.100
3567,-0.155,-0.095
3568,-0.160,-0.095
3569,-0.165,-0.095
3570,-0.170,-0.100
3571,-0.175,-0.105
3572,-0.175,-0.105
3573,-0.175,-0.100
3574,-0.170,-0.090
3575,-0.165,-0.085
3576,-0.170,-0.090
3577,-0.175,-0.095
3578,-0.170,-0.095
3579,-0.165,-0.095
3580,-0.170,-0.095
3581,-0.175,-0.090
3582,-0.170,-0.080
3583,-0.165,-0.080
3584,-0.175,-0.095
3585,-0.170,-0.095
3586,-0.165,-0.095
3587,-0.165,-0.095
3588,-0.165,-0.095
3589,-0.160,-0.090
3590,-0.155,-0.085
3591,-0.165,-0.090
3592,-0.175,-0.095
3593,-0.175,-0.095
3594,-0.175,-0.095
3595,-0.175,-0.100
3596,-0.175,-0.105
3597,-0.170,-0.100
3598,-0.165,-0.095
3599,-0.175,-0.100
3600,-0.185,-0.105
3601,-0.185,-0.110
3602,-0.185,-0.115
3603,-0.185,-0.105
3604,-0.185,-0.095
3605,-0.180,-0.100
3606,-0.180,-0.105
3607,-0.190,-0.105
3608,-0.195,-0.105
3609,-0.195,-0.110
3610,-0.195,-0.115
3611,-0.200,-0.110
3612,-0.200,-0.105
3613,-0.190,-0.100
3614,-0.185,-0.100
3615,-0.185,-0.110
3616,-0.185,-0.115
3617,-0.190,-0.115
3618,-0.195,-0.115
3619,-0.195,-0.110
3620,-0.195,-0.105
3621,-0.200,-0.105
3622,-0.205,-0.105
3623,-0.200,-0.105
3624,-0.180,-0.100
3625,-0.195,-0.105
3626,-0.150,-0.075
3627,-0.145,-0.065
3628,-0.140,-0.060
3629,-0.135,-0.055
3630,-0.130,-0.055
3631,-0.125,-0.055
3632,-0.120,-0.065
3633,-0.115,-0.075
3634,-0.100,-0.075
3635,-0.085,-0.075
3636,-0.075,-0.065
3637,-0.065,-0.055
3638,-0.050,-0.055
3639,-0.040,-0.060
3640,-0.055,-0.075
3641,-0.075,-0.090
3642,-0.105,-0.105
3643,-0.130,-0.110
3644,-0.145,-0.095
3645,-0.160,-0.085
3646,-0.185,-0.100
3647,-0.200,-0.115
3648,-0.210,-0.135
3649,-0.215,-0.145
3650,-0.210,-0.140
3651,-0.205,-0.135
3652,-0.205,-0.130
3653,-0.205,-0.125
3654,-0.210,-0.125
3655,-0.215,-0.125
3656,-0.220,-0.130
3657,-0.225,-0.135
3658,-0.225,-0.135
3659,-0.225,-0.135
3660,-0.225,-0.130
3661,-0.225,-0.125
3662,-0.225,-0.125
3663,-0.225,-0.125
3664,-0.225,-0.125
3665,-0.225,-0.125
3666,-0.220,-0.125
3667,-0.215,-0.120
3668,-0.215,-0.115
3669,-0.210,-0.115
3670,-0.205,-0.115
3671,-0.205,-0.120
3672,-0.205,-0.125
3673,-0.200,-0.125
3674,-0.195,-0.125
3675,-0.195,-0.105
3676,-0.180,-0.085
3677,-0.105,-0.080
3678,0.000,-0.075
3679,0.180,-0.060
3680,0.445,-0.060
3681,0.900,-0.115
3682,1.270,-0.210
3683,1.490,-0.375
3684,1.280,-0.540
3685,0.420,-0.705
3686,-0.235,-0.755
3687,-0.640,-0.665
3688,-0.800,-0.515
3689,-0.710,-0.305
3690,-0.570,-0.175
3691,-0.400,-0.110
3692,-0.295,-0.080
3693,-0.240,-0.070
3694,-0.210,-0.060
3695,-0.200,-0.050
3696,-0.195,-0.045
3697,-0.190,-0.045
3698,-0.185,-0.040
3699,-0.185,-0.030
3700,-0.185,-0.030
3701,-0.180,-0.040
3702,-0.175,-0.045
3703,-0.175,-0.045
3704,-0.175,-0.045
3705,-0.180,-0.045
3706,-0.180,-0.040
3707,-0.170,-0.030
3708,-0.165,-0.025
3709,-0.165,-0.025
3710,-0.165,-0.030
3711,-0.165,-0.035
3712,-0.160,-0.035
3713,-0.155,-0.035
3714,-0.145,-0.030
3715,-0.135,-0.025
3716,-0.135,-0.020
3717,-0.135,-0.015
3718,-0.130,-0.020
3719,-0.125,-0.025
3720,-0.120,-0.020
3721,-0.115,-0.015
3722,-0.115,-0.010
3723,-0.115,-0.005
3724,-0.115,0.000
3725,-0.115,0.005
3726,-0.115,0.000
3727,-0.115,-0.005
3728,-0.105,0.005
3729,-0.090,0.015
3730,-0.075,0.015
3731,-0.065,0.015
3732,-0.060,0.020
3733,-0.055,0.025
3734,-0.055,0.025
3735,-0.055,0.025
3736,-0.055,0.025
3737,-0.045,0.035
3738,-0.030,0.050
3739,-0.025,0.055
3740,-0.020,0.055
3741,-0.015,0.055
3742,-0.015,0.050
3743,-0.015,0.045
3744,-0.010,0.045
3745,-0.005,0.050
3746,-0.005,0.060
3747,-0.005,0.060
3748,-0.005,0.050
3749,-0.005,0.040
3750,-0.005,0.045
3751,-0.020,0.015
3752,-0.025,0.005
3753,-0.020,0.010
3754,-0.015,0.015
3755,-0.015,0.005
3756,-0.015,-0.005
3757,-0.020,-0.010
3758,-0.025,-0.015
3759,-0.030,-0.015
3760,-0.035,-0.015
3761,-0.060,-0.020
3762,-0.080,-0.025
3763,-0.100,-0.035
3764,-0.115,-0.045
3765,-0.125,-0.050
3766,-0.140,-0.055
3767,-0.155,-0.055
3768,-0.165,-0.055
3769,-0.170,-0.060
3770,-0.175,-0.065
3771,-0.175,-0.070
3772,-0.175,-0.075
3773,-0.180,-0.075
3774,-0.185,-0.075
3775,-0.185,-0.070
3776,-0.185,-0.065
3777,-0.180,-0.065
3778,-0.175,-0.065
3779,-0.180,-0.070
3780,-0.185,-0.075
3781,-0.185,-0.075
3782,-0.185,-0.075
3783,-0.185,-0.075
3784,-0.185,-0.070
3785,-0.185,-0.060
3786,-0.185,-0.060
3787,-0.185,-0.070
3788,-0.180,-0.075
3789,-0.170,-0.075
3790,-0.165,-0.075
3791,-0.170,-0.070
3792,-0.175,-0.060
3793,-0.175,-0.055
3794,-0.175,-0.060
3795,-0.175,-0.065
3796,-0.170,-0.070
3797,-0.165,-0.075
3798,-0.165,-0.075
3799,-0.165,-0.075
3800,-0.165,-0.070
3801,-0.165,-0.065
3802,-0.165,-0.065
3803,-0.165,-0.065
3804,-0.165,-0.070
3805,-0.165,-0.075
3806,-0.170,-0.075
3807,-0.175,-0.075
3808,-0.175,-0.080
3809,-0.175,-0.085
3810,-0.175,-0.085
3811,-0.175,-0.085
3812,-0.180,-0.085
3813,-0.185,-0.085
3814,-0.180,-0.085
3815,-0.175,-0.085
3816,-0.175,-0.080
3817,-0.175,-0.075
3818,-0.175,-0.080
3819,-0.175,-0.085
3820,-0.180,-0.085
3821,-0.180,-0.085
3822,-0.170,-0.080
3823,-0.155,-0.070
3824,-0.140,-0.060
3825,-0.135,-0.055
3826,-0.135,-0.050
3827,-0.135,-0.045
3828,-0.130,-0.045
3829,-0.125,-0.045
3830,-0.120,-0.045
3831,-0.105,-0.045
3832,-0.090,-0.040
3833,-0.080,-0.045
3834,-0.065,-0.065
3835,-0.060,-0.065
3836,-0.055,-0.065
3837,-0.040,-0.055
3838,-0.025,-0.045
3839,-0.040,-0.060
3840,-0.055,-0.075
3841,-0.075,-0.085
3842,-0.095,-0.095
3843,-0.115,-0.095
3844,-0.140,-0.095
3845,-0.165,-0.105
3846,-0.185,-0.115
3847,-0.175,-0.120
3848,-0.165,-0.125
3849,-0.165,-0.125
3850,-0.165,-0.125
3851,-0.175,-0.130
3852,-0.185,-0.135
3853,-0.180,-0.130
3854,-0.175,-0.125
3855,-0.180,-0.120
3856,-0.185,-0.115
3857,-0.185,-0.120
3858,-0.185,-0.125
3859,-0.185,-0.125
3860,-0.185,-0.125
3861,-0.185,-0.125
3862,-0.185,-0.125
3863,-0.185,-0.120
3864,-0.185,-0.115
3865,-0.180,-0.115
3866,-0.175,-0.115
3867,-0.175,-0.120
3868,-0.170,-0.125
3869,-0.160,-0.125
3870,-0.155,-0.125
3871,-0.150,-0.120
3872,-0.145,-0.115
3873,-0.145,-0.115
3874,-0.145,-0.105
3875,-0.145,-0.115
3876,-0.060,-0.080
3877,0.045,-0.075
3878,0.300,-0.055
3879,0.580,-0.040
3880,1.095,-0.120
3881,1.535,-0.215
3882,1.560,-0.375
3883,1.400,-0.530
3884,0.400,-0.675
3885,-0.425,-0.750
3886,-0.685,-0.580
3887,-0.830,-0.410
3888,-0.670,-0.250
3889,-0.505,-0.130
3890,-0.340,-0.115
3891,-0.220,-0.100
3892,-0.165,-0.085
3893,-0.135,-0.070
3894,-0.130,-0.055
3895,-0.125,-0.045
3896,-0.130,-0.045
3897,-0.135,-0.045
3898,-0.135,-0.050
3899,-0.135,-0.055
3900,-0.130,-0.050
3901,-0.120,-0.045
3902,-0.110,-0.040
3903,-0.105,-0.035
3904,-0.105,-0.035
3905,-0.105,-0.035
3906,-0.100,-0.040
3907,-0.095,-0.045
3908,-0.100,-0.045
3909,-0.100,-0.040
3910,-0.090,-0.030
3911,-0.085,-0.025
3912,-0.080,-0.025
3913,-0.075,-0.025
3914,-0.075,-0.030
3915,-0.070,-0.035
3916,-0.060,-0.030
3917,-0.055,-0.020
3918,-0.055,-0.015
3919,-0.055,-0.015
3920,-0.055,-0.015
3921,-0.045,-0.015
3922,-0.035,-0.015
3923,-0.025,-0.015
3924,-0.015,-0.015
3925,-0.010,-0.005
3926,-0.005,0.005
3927,-0.005,0.010
3928,-0.005,0.015
3929,0.000,0.010
3930,0.005,0.005
3931,0.015,0.015
3932,0.025,0.025
3933,0.035,0.030
3934,0.045,0.035
3935,0.045,0.040
3936,0.045,0.045
3937,0.050,0.045
3938,0.060,0.045
3939,0.070,0.045
3940,0.080,0.050
3941,0.090,0.065
3942,0.095,0.075
3943,0.095,0.070
3944,0.095,0.060
3945,0.095,0.050
3946,0.095,0.045
3947,0.100,0.045
3948,0.105,0.045
3949,0.100,0.050
3950,0.095,0.045
3951,0.100,0.030
3952,0.105,0.020
3953,0.100,0.010
3954,0.095,0.000
3955,0.090,-0.010
3956,0.085,-0.015
3957,0.080,-0.010
3958,0.070,-0.010
3959,0.055,-0.025
3960,0.040,-0.035
3961,0.025,-0.045
3962,0.010,-0.050
3963,-0.005,-0.055
3964,-0.020,-0.060
3965,-0.035,-0.065
3966,-0.050,-0.070
3967,-0.065,-0.075
3968,-0.075,-0.080
3969,-0.085,-0.085
3970,-0.085,-0.085
3971,-0.085,-0.085
3972,-0.085,-0.085
3973,-0.085,-0.085
3974,-0.090,-0.090
3975,-0.095,-0.095
3976,-0.090,-0.095
3977,-0.085,-0.095
3978,-0.090,-0.095
3979,-0.095,-0.095
3980,-0.090,-0.090
3981,-0.085,-0.085
3982,-0.085,-0.090
3983,-0.085,-0.095
3984,-0.085,-0.095
3985,-0.085,-0.095
3986,-0.085,-0.090
3987,-0.080,-0.085
3988,-0.070,-0.085
3989,-0.065,-0.085
3990,-0.070,-0.085
3991,-0.075,-0.085
3992,-0.075,-0.085
3993,-0.075,-0.085
3994,-0.070,-0.085
3995,-0.065,-0.085
3996,-0.065,-0.085
3997,-0.065,-0.085
3998,-0.065,-0.085
3999,-0.065,-0.085
4000,-0.065,-0.085
4001,-0.065,-0.085
4002,-0.065,-0.075
4003,-0.060,-0.080
4004,-0.055,-0.085
4005,-0.060,-0.090
4006,-0.065,-0.095
4007,-0.070,-0.095
4008,-0.075,-0.095
4009,-0.075,-0.100
4010,-0.075,-0.105
4011,-0.070,-0.100
4012,-0.065,-0.095
4013,-0.070,-0.095
4014,-0.075,-0.095
4015,-0.080,-0.100
4016,-0.085,-0.105
4017,-0.090,-0.105
4018,-0.090,-0.105
4019,-0.075,-0.100
4020,-0.065,-0.095
4021,-0.080,-0.100
4022,-0.085,-0.105
4023,-0.085,-0.105
4024,-0.085,-0.105
4025,-0.085,-0.110
4026,-0.085,-0.115
4027,-0.080,-0.110
4028,-0.075,-0.105
4029,-0.075,-0.105
4030,-0.070,-0.105
4031,-0.060,-0.100
4032,-0.050,-0.090
4033,-0.040,-0.080
4034,-0.035,-0.070
4035,-0.035,-0.060
4036,-0.025,-0.055
4037,-0.010,-0.050
4038,-0.005,-0.050
4039,-0.005,-0.060
4040,-0.005,-0.070
4041,0.000,-0.080
4042,0.020,-0.080
4043,0.035,-0.075
4044,0.040,-0.070
4045,0.045,-0.065
4046,0.055,-0.075
4047,0.065,-0.085
4048,0.045,-0.095
4049,0.025,-0.105
4050,0.005,-0.110
4051,-0.015,-0.115
4052,-0.030,-0.110
4053,-0.045,-0.105
4054,-0.060,-0.115
4055,-0.075,-0.125
4056,-0.080,-0.145
4057,-0.085,-0.155
4058,-0.090,-0.150
4059,-0.095,-0.145
4060,-0.100,-0.150
4061,-0.105,-0.155
4062,-0.100,-0.150
4063,-0.095,-0.145
4064,-0.100,-0.150
4065,-0.105,-0.155
4066,-0.105,-0.150
4067,-0.105,-0.145
4068,-0.110,-0.145
4069,-0.110,-0.145
4070,-0.100,-0.145
4071,-0.095,-0.145
4072,-0.100,-0.150
4073,-0.105,-0.155
4074,-0.100,-0.150
4075,-0.095,-0.145
4076,-0.095,-0.140
4077,-0.095,-0.135
4078,-0.090,-0.135
4079,-0.080,-0.135
4080,-0.070,-0.140
4081,-0.070,-0.145
4082,-0.080,-0.140
4083,-0.070,-0.115
4084,-0.045,-0.085
4085,0.065,-0.085
4086,0.195,-0.085
4087,0.560,-0.105
4088,0.945,-0.140
4089,1.540,-0.315
4090,1.950,-0.490
4091,1.320,-0.650
4092,0.660,-0.785
4093,-0.115,-0.795
4094,-0.695,-0.750
4095,-0.685,-0.520
4096,-0.610,-0.325
4097,-0.370,-0.205
4098,-0.195,-0.115
4099,-0.120,-0.080
4100,-0.075,-0.055
4101,-0.075,-0.055
4102,-0.075,-0.055
4103,-0.070,-0.060
4104,-0.065,-0.065
4105,-0.065,-0.060
4106,-0.065,-0.055
4107,-0.070,-0.055
4108,-0.075,-0.055
4109,-0.075,-0.055
4110,-0.075,-0.055
4111,-0.070,-0.055
4112,-0.065,-0.055
4113,-0.060,-0.050
4114,-0.055,-0.045
4115,-0.055,-0.050
4116,-0.055,-0.055
4117,-0.055,-0.055
4118,-0.055,-0.055
4119,-0.050,-0.055
4120,-0.045,-0.050
4121,-0.040,-0.040
4122,-0.035,-0.035
4123,-0.030,-0.030
4124,-0.025,-0.025
4125,-0.025,-0.025
4126,-0.010,-0.030
4127,-0.005,-0.025
4128,-0.005,-0.015
4129,-0.005,-0.005
4130,0.005,-0.005
4131,0.015,-0.005
4132,0.020,0.000
4133,0.025,0.005
4134,0.030,0.010
4135,0.035,0.015
4136,0.045,0.015
4137,0.055,0.015
4138,0.055,0.020
4139,0.055,0.025
4140,0.060,0.035
4141,0.065,0.045
4142,0.075,0.050
4143,0.085,0.055
4144,0.095,0.060
4145,0.105,0.065
4146,0.110,0.065
4147,0.115,0.065
4148,0.120,0.065
4149,0.125,0.065
4150,0.130,0.065
4151,0.135,0.065
4152,0.140,0.070
4153,0.145,0.075
4154,0.145,0.070
4155,0.145,0.060
4156,0.145,0.050
4157,0.145,0.045
4158,0.145,0.045
4159,0.145,0.045
4160,0.150,0.045
4161,0.155,0.035
4162,0.150,0.020
4163,0.145,0.010
4164,0.140,0.000
4165,0.120,-0.010
4166,0.100,-0.020
4167,0.080,-0.025
4168,0.065,-0.025
4169,0.050,-0.040
4170,0.035,-0.055
4171,0.015,-0.075
4172,-0.005,-0.095
4173,-0.020,-0.095
4174,-0.035,-0.095
4175,-0.045,-0.095
4176,-0.055,-0.095
4177,-0.060,-0.100
4178,-0.065,-0.105
4179,-0.070,-0.110
4180,-0.075,-0.115
4181,-0.075,-0.115
4182,-0.075,-0.115
4183,-0.075,-0.110
4184,-0.075,-0.105
4185,-0.075,-0.105
4186,-0.075,-0.105
4187,-0.075,-0.110
4188,-0.075,-0.115
4189,-0.075,-0.115
4190,-0.075,-0.110
4191,-0.070,-0.100
4192,-0.065,-0.095
4193,-0.070,-0.100
4194,-0.075,-0.105
4195,-0.075,-0.105
4196,-0.075,-0.105
4197,-0.070,-0.100
4198,-0.065,-0.095
4199,-0.065,-0.095
4200,-0.065,-0.095
4201,-0.070,-0.095
4202,-0.075,-0.095
4203,-0.070,-0.100
4204,-0.065,-0.105
4205,-0.070,-0.105
4206,-0.075,-0.105
4207,-0.070,-0.100
4208,-0.065,-0.095
4209,-0.065,-0.105
4210,-0.065,-0.105
4211,-0.065,-0.105
4212,-0.070,-0.105
4213,-0.075,-0.105
4214,-0.070,-0.100
4215,-0.065,-0.095
4216,-0.070,-0.100
4217,-0.075,-0.105
4218,-0.075,-0.110
4219,-0.075,-0.115
4220,-0.085,-0.115
4221,-0.095,-0.115
4222,-0.085,-0.110
4223,-0.075,-0.105
4224,-0.075,-0.110
4225,-0.075,-0.115
4226,-0.080,-0.120
4227,-0.085,-0.125
4228,-0.085,-0.125
4229,-0.085,-0.125
4230,-0.085,-0.110
4231,-0.085,-0.110
4232,-0.090,-0.120
4233,-0.095,-0.125
4234,-0.090,-0.130
4235,-0.085,-0.135
4236,-0.090,-0.130
4237,-0.095,-0.125
4238,-0.090,-0.120
4239,-0.085,-0.115
4240,-0.090,-0.120
4241,-0.095,-0.125
4242,-0.090,-0.125
4243,-0.085,-0.120
4244,-0.080,-0.110
4245,-0.060,-0.090
4246,-0.040,-0.070
4247,-0.035,-0.065
4248,-0.035,-0.060
4249,-0.030,-0.055
4250,-0.035,-0.055
4251,-0.010,-0.065
4252,-0.005,-0.065
4253,0.000,-0.065
4254,0.005,-0.065
4255,0.015,-0.070
4256,0.025,-0.075
4257,0.030,-0.075
4258,0.035,-0.075
4259,0.050,-0.070
4260,0.065,-0.065
4261,0.050,-0.080
4262,0.030,-0.095
4263,0.005,-0.105
4264,-0.020,-0.115
4265,-0.040,-0.115
4266,-0.060,-0.115
4267,-0.075,-0.115
4268,-0.085,-0.115
4269,-0.085,-0.125
4270,-0.085,-0.135
4271,-0.085,-0.140
4272,-0.085,-0.145
4273,-0.090,-0.145
4274,-0.095,-0.145
4275,-0.100,-0.145
4276,-0.105,-0.145
4277,-0.105,-0.140
4278,-0.105,-0.135
4279,-0.110,-0.135
4280,-0.115,-0.135
4281,-0.110,-0.140
4282,-0.105,-0.145
4283,-0.105,-0.140
4284,-0.105,-0.135
4285,-0.105,-0.130
4286,-0.105,-0.125
4287,-0.105,-0.130
4288,-0.105,-0.135
4289,-0.100,-0.135
4290,-0.095,-0.135
4291,-0.090,-0.135
4292,-0.075,-0.130
4293,-0.065,-0.125
4294,-0.075,-0.125
4295,-0.085,-0.125
4296,-0.075,-0.105
4297,-0.055,-0.085
4298,0.060,-0.075
4299,0.200,-0.065
4300,0.470,-0.060
4301,0.800,-0.090
4302,1.330,-0.250
4303,1.710,-0.410
4304,1.635,-0.560
4305,1.280,-0.700
4306,0.295,-0.810
4307,-0.420,-0.815
4308,-0.660,-0.615
4309,-0.725,-0.430
4310,-0.525,-0.265
4311,-0.355,-0.150
4312,-0.210,-0.095
4313,-0.120,-0.060
4314,-0.090,-0.045
4315,-0.075,-0.035
4316,-0.075,-0.030
4317,-0.075,-0.025
4318,-0.080,-0.030
4319,-0.085,-0.035
4320,-0.090,-0.040
4321,-0.095,-0.045
4322,-0.090,-0.040
4323,-0.085,-0.035
4324,-0.080,-0.030
4325,-0.075,-0.025
4326,-0.070,-0.025
4327,-0.065,-0.025
4328,-0.070,-0.025
4329,-0.075,-0.025
4330,-0.075,-0.020
4331,-0.070,-0.015
4332,-0.060,-0.010
4333,-0.055,-0.005
4334,-0.055,-0.015
4335,-0.055,-0.015
4336,-0.055,-0.015
4337,-0.045,-0.010
4338,-0.035,-0.005
4339,-0.030,0.000
4340,-0.025,0.005
4341,-0.025,0.005
4342,-0.025,0.005
4343,-0.020,0.005
4344,-0.015,0.005
4345,-0.015,0.010
4346,-0.015,0.015
4347,0.000,0.025
4348,0.015,0.035
4349,0.015,0.035
4350,0.015,0.035
4351,0.020,0.030
4352,0.025,0.025
4353,0.035,0.035
4354,0.045,0.050
4355,0.050,0.065
4356,0.055,0.075
4357,0.060,0.075
4358,0.070,0.075
4359,0.080,0.075
4360,0.085,0.075
4361,0.085,0.080
4362,0.085,0.090
4363,0.090,0.100
4364,0.105,0.105
4365,0.120,0.105
4366,0.125,0.105
4367,0.130,0.100
4368,0.135,0.095
4369,0.135,0.090
4370,0.135,0.085
4371,0.135,0.090
4372,0.135,0.095
4373,0.130,0.095
4374,0.125,0.085
4375,0.125,0.095
4376,0.130,0.055
4377,0.125,0.045
4378,0.130,0.045
4379,0.135,0.045
4380,0.120,0.040
4381,0.105,0.035
4382,0.090,0.020
4383,0.075,0.005
4384,0.060,-0.005
4385,0.045,-0.015
4386,0.035,-0.020
4387,0.020,-0.025
4388,-0.005,-0.030
4389,-0.030,-0.035
4390,-0.045,-0.045
4391,-0.055,-0.055
4392,-0.060,-0.060
4393,-0.065,-0.065
4394,-0.070,-0.070
4395,-0.075,-0.075
4396,-0.090,-0.075
4397,-0.095,-0.075
4398,-0.095,-0.080
4399,-0.095,-0.085
4400,-0.090,-0.080
4401,-0.085,-0.075
4402,-0.090,-0.075
4403,-0.095,-0.075
4404,-0.090,-0.070
4405,-0.085,-0.065
4406,-0.090,-0.065
4407,-0.095,-0.065
4408,-0.090,-0.065
4409,-0.085,-0.065
4410,-0.090,-0.065
4411,-0.090,-0.065
4412,-0.080,-0.060
4413,-0.075,-0.055
4414,-0.080,-0.060
4415,-0.085,-0.065
4416,-0.085,-0.070
4417,-0.085,-0.065
4418,-0.085,-0.055
4419,-0.080,-0.060
4420,-0.075,-0.065
4421,-0.085,-0.065
4422,-0.095,-0.065
4423,-0.095,-0.070
4424,-0.095,-0.075
4425,-0.095,-0.070
4426,-0.095,-0.065
4427,-0.095,-0.065
4428,-0.095,-0.065
4429,-0.090,-0.070
4430,-0.085,-0.075
4431,-0.085,-0.080
4432,-0.085,-0.085
4433,-0.090,-0.085
4434,-0.095,-0.085
4435,-0.095,-0.080
4436,-0.095,-0.075
4437,-0.105,-0.085
4438,-0.115,-0.095
4439,-0.115,-0.090
4440,-0.115,-0.085
4441,-0.110,-0.080
4442,-0.105,-0.075
4443,-0.105,-0.080
4444,-0.105,-0.085
4445,-0.110,-0.090
4446,-0.115,-0.095
4447,-0.115,-0.095
4448,-0.115,-0.095
4449,-0.110,-0.090
4450,-0.105,-0.085
4451,-0.105,-0.085
4452,-0.105,-0.085
4453,-0.110,-0.090
4454,-0.115,-0.095
4455,-0.120,-0.095
4456,-0.120,-0.095
4457,-0.110,-0.090
4458,-0.105,-0.085
4459,-0.115,-0.085
4460,-0.115,-0.090
4461,-0.115,-0.095
4462,-0.110,-0.095
4463,-0.105,-0.095
4464,-0.100,-0.080
4465,-0.095,-0.065
4466,-0.085,-0.055
4467,-0.075,-0.045
4468,-0.070,-0.045
4469,-0.065,-0.045
4470,-0.060,-0.040
4471,-0.055,-0.035
4472,-0.045,-0.030
4473,-0.035,-0.030
4474,-0.035,-0.045
4475,-0.030,-0.055
4476,-0.010,-0.055
4477,0.005,-0.055
4478,0.005,-0.050
4479,0.010,-0.045
4480,0.025,-0.040
4481,0.025,-0.045
4482,0.000,-0.070
4483,-0.025,-0.085
4484,-0.055,-0.085
4485,-0.070,-0.085
4486,-0.080,-0.080
4487,-0.095,-0.080
4488,-0.110,-0.090
4489,-0.115,-0.100
4490,-0.120,-0.110
4491,-0.125,-0.115
4492,-0.120,-0.115
4493,-0.115,-0.115
4494,-0.120,-0.110
4495,-0.130,-0.105
4496,-0.140,-0.100
4497,-0.145,-0.095
4498,-0.145,-0.100
4499,-0.145,-0.105
4500,-0.145,-0.105
4501,-0.140,-0.110
4502,-0.135,-0.105
4503,-0.145,-0.100
4504,-0.155,-0.095
4505,-0.155,-0.100
4506,-0.155,-0.105
4507,-0.145,-0.105
4508,-0.135,-0.105
4509,-0.130,-0.105
4510,-0.125,-0.105
4511,-0.120,-0.100
4512,-0.115,-0.095
4513,-0.115,-0.095
4514,-0.115,-0.095
4515,-0.120,-0.100
4516,-0.125,-0.100
4517,-0.115,-0.080
4518,-0.065,-0.060
4519,0.040,-0.045
4520,0.225,-0.035
4521,0.505,-0.020
4522,0.930,-0.080
4523,1.480,-0.215
4524,1.605,-0.370
4525,1.385,-0.535
4526,0.740,-0.655
4527,-0.170,-0.745
4528,-0.605,-0.645
4529,-0.790,-0.445
4530,-0.710,-0.295
4531,-0.515,-0.170
4532,-0.360,-0.110
4533,-0.215,-0.075
4534,-0.160,-0.045
4535,-0.125,-0.020
4536,-0.115,-0.015
4537,-0.115,-0.020
4538,-0.115,-0.025
4539,-0.115,-0.025
4540,-0.115,-0.025
4541,-0.115,-0.020
4542,-0.110,-0.015
4543,-0.105,-0.015
4544,-0.105,-0.015
4545,-0.105,-0.015
4546,-0.105,-0.020
4547,-0.105,-0.025
4548,-0.105,-0.020
4549,-0.105,-0.015
4550,-0.100,-0.005
4551,-0.095,0.005
4552,-0.090,0.000
4553,-0.085,-0.005
4554,-0.080,-0.005
4555,-0.075,-0.005
4556,-0.070,-0.005
4557,-0.065,-0.005
4558,-0.065,0.005
4559,-0.065,0.015
4560,-0.065,0.010
4561,-0.065,0.005
4562,-0.055,0.010
4563,-0.045,0.015
4564,-0.045,0.015
4565,-0.040,0.015
4566,-0.030,0.020
4567,-0.025,0.025
4568,-0.025,0.025
4569,-0.025,0.025
4570,-0.020,0.025
4571,-0.010,0.030
4572,0.000,0.040
4573,0.005,0.045
4574,0.005,0.045
4575,0.005,0.050
4576,0.010,0.060
4577,0.020,0.065
4578,0.030,0.060
4579,0.035,0.055
4580,0.040,0.060
4581,0.045,0.070
4582,0.050,0.080
4583,0.055,0.085
4584,0.055,0.085
4585,0.055,0.075
4586,0.055,0.065
4587,0.065,0.070
4588,0.075,0.075
4589,0.080,0.075
4590,0.085,0.075
4591,0.075,0.065
4592,0.065,0.055
4593,0.065,0.050
4594,0.065,0.045
4595,0.055,0.040
4596,0.045,0.035
4597,0.060,0.035
4598,0.075,0.035
4599,0.065,0.025
4600,0.055,0.015
4601,0.045,0.005
4602,0.035,-0.005
4603,0.025,-0.005
4604,0.010,-0.005
4605,-0.005,-0.005
4606,-0.020,-0.005
4607,-0.030,-0.010
4608,-0.040,-0.020
4609,-0.055,-0.035
4610,-0.075,-0.045
4611,-0.095,-0.040
4612,-0.105,-0.035
4613,-0.105,-0.035
4614,-0.105,-0.035
4615,-0.110,-0.040
4616,-0.115,-0.045
4617,-0.115,-0.050
4618,-0.115,-0.055
4619,-0.120,-0.050
4620,-0.125,-0.045
4621,-0.125,-0.045
4622,-0.125,-0.045
4623,-0.120,-0.040
4624,-0.115,-0.035
4625,-0.115,-0.035
4626,-0.115,-0.050
4627,-0.115,-0.055
4628,-0.115,-0.045
4629,-0.115,-0.035
4630,-0.115,-0.035
4631,-0.115,-0.035
4632,-0.115,-0.040
4633,-0.115,-0.045
4634,-0.105,-0.045
4635,-0.095,-0.045
4636,-0.100,-0.040
4637,-0.105,-0.035
4638,-0.105,-0.040
4639,-0.105,-0.045
4640,-0.105,-0.045
4641,-0.105,-0.045
4642,-0.110,-0.045
4643,-0.115,-0.045
4644,-0.110,-0.040
4645,-0.105,-0.035
4646,-0.105,-0.040
4647,-0.105,-0.045
4648,-0.110,-0.050
4649,-0.115,-0.055
4650,-0.120,-0.055
4651,-0.125,-0.055
4652,-0.120,-0.050
4653,-0.120,-0.045
4654,-0.130,-0.050
4655,-0.135,-0.055
4656,-0.130,-0.055
4657,-0.125,-0.055
4658,-0.125,-0.060
4659,-0.125,-0.065
4660,-0.120,-0.060
4661,-0.120,-0.055
4662,-0.130,-0.055
4663,-0.130,-0.060
4664,-0.120,-0.070
4665,-0.115,-0.075
4666,-0.115,-0.070
4667,-0.115,-0.065
4668,-0.115,-0.065
4669,-0.120,-0.065
4670,-0.125,-0.065
4671,-0.120,-0.065
4672,-0.115,-0.065
4673,-0.100,-0.050
4674,-0.085,-0.035
4675,-0.080,-0.030
4676,-0.075,-0.025
4677,-0.075,-0.025
4678,-0.075,-0.025
4679,-0.065,-0.025
4680,-0.055,-0.025
4681,-0.045,-0.025
4682,-0.035,-0.025
4683,-0.035,-0.025
4684,-0.030,-0.025
4685,-0.010,-0.030
4686,0.005,-0.035
4687,0.005,-0.030
4688,0.010,-0.025
4689,0.020,-0.025
4690,0.015,-0.030
4691,-0.010,-0.045
4692,-0.035,-0.055
4693,-0.055,-0.055
4694,-0.075,-0.060
4695,-0.095,-0.070
4696,-0.110,-0.080
4697,-0.120,-0.090
4698,-0.125,-0.095
4699,-0.125,-0.090
4700,-0.125,-0.085
4701,-0.130,-0.085
4702,-0.135,-0.085
4703,-0.135,-0.090
4704,-0.135,-0.095
4705,-0.140,-0.095
4706,-0.145,-0.095
4707,-0.140,-0.090
4708,-0.135,-0.085
4709,-0.145,-0.085
4710,-0.145,-0.090
4711,-0.145,-0.095
4712,-0.135,-0.095
4713,-0.125,-0.095
4714,-0.130,-0.090
4715,-0.135,-0.085
4716,-0.135,-0.090
4717,-0.135,-0.095
4718,-0.135,-0.095
4719,-0.135,-0.095
4720,-0.125,-0.095
4721,-0.115,-0.095
4722,-0.110,-0.090
4723,-0.105,-0.085
4724,-0.100,-0.085
4725,-0.100,-0.080
4726,-0.115,-0.065
4727,-0.100,-0.055
4728,-0.040,-0.050
4729,0.090,-0.040
4730,0.290,-0.015
4731,0.635,-0.030
4732,1.105,-0.090
4733,1.520,-0.205
4734,1.900,-0.370
4735,1.460,-0.535
4736,0.515,-0.700
4737,-0.150,-0.685
4738,-0.685,-0.580
4739,-0.755,-0.400
4740,-0.635,-0.195
4741,-0.465,-0.125
4742,-0.280,-0.095
4743,-0.190,-0.070
4744,-0.120,-0.050
4745,-0.100,-0.035
4746,-0.090,-0.020
4747,-0.085,-0.015
4748,-0.090,-0.010
4749,-0.095,-0.005
4750,-0.095,-0.005
4751,-0.095,-0.020
4752,-0.095,-0.025
4753,-0.090,-0.015
4754,-0.085,-0.005
4755,-0.085,0.000
4756,-0.085,0.005
4757,-0.080,0.000
4758,-0.075,-0.005
4759,-0.065,-0.005
4760,-0.055,-0.005
4761,-0.055,0.000
4762,-0.055,0.005
4763,-0.055,0.005
4764,-0.055,0.005
4765,-0.050,0.005
4766,-0.045,0.005
4767,-0.045,0.005
4768,-0.045,0.005
4769,-0.035,0.010
4770,-0.025,0.015
4771,-0.025,0.020
4772,-0.025,0.025
4773,-0.020,0.020
4774,-0.010,0.015
4775,0.000,0.020
4776,0.005,0.025
4777,0.010,0.030
4778,0.015,0.035
4779,0.020,0.040
4780,0.025,0.045
4781,0.025,0.045
4782,0.025,0.045
4783,0.030,0.050
4784,0.045,0.060
4785,0.060,0.070
4786,0.065,0.075
4787,0.070,0.080
4788,0.075,0.085
4789,0.075,0.085
4790,0.085,0.085
4791,0.100,0.090
4792,0.110,0.105
4793,0.115,0.115
4794,0.115,0.110
4795,0.115,0.105
4796,0.115,0.100
4797,0.115,0.095
4798,0.115,0.090
4799,0.115,0.085
4800,0.120,0.085
4801,0.125,0.085
4802,0.120,0.080
4803,0.115,0.075
4804,0.115,0.065
4805,0.115,0.055
4806,0.115,0.050
4807,0.115,0.045
4808,0.110,0.040
4809,0.100,0.035
4810,0.085,0.025
4811,0.070,0.010
4812,0.050,-0.005
4813,0.025,-0.015
4814,0.005,-0.015
4815,-0.010,-0.015
4816,-0.020,-0.020
4817,-0.030,-0.030
4818,-0.040,-0.040
4819,-0.050,-0.045
4820,-0.070,-0.050
4821,-0.075,-0.055
4822,-0.075,-0.055
4823,-0.075,-0.055
4824,-0.080,-0.055
4825,-0.085,-0.055
4826,-0.085,-0.060
4827,-0.085,-0.065
4828,-0.085,-0.065
4829,-0.085,-0.065
4830,-0.080,-0.060
4831,-0.075,-0.055
4832,-0.080,-0.050
4833,-0.085,-0.045
4834,-0.085,-0.055
4835,-0.080,-0.055
4836,-0.075,-0.055
4837,-0.070,-0.055
4838,-0.065,-0.055
4839,-0.065,-0.050
4840,-0.065,-0.045
4841,-0.070,-0.050
4842,-0.075,-0.055
4843,-0.075,-0.055
4844,-0.075,-0.055
4845,-0.070,-0.050
4846,-0.065,-0.045
4847,-0.060,-0.045
4848,-0.055,-0.045
4849,-0.060,-0.050
4850,-0.065,-0.055
4851,-0.065,-0.055
4852,-0.065,-0.055
4853,-0.070,-0.055
4854,-0.075,-0.055
4855,-0.060,-0.050
4856,-0.060,-0.050
4857,-0.070,-0.060
4858,-0.075,-0.065
4859,-0.075,-0.070
4860,-0.075,-0.075
4861,-0.080,-0.070
4862,-0.085,-0.065
4863,-0.080,-0.060
4864,-0.080,-0.055
4865,-0.090,-0.060
4866,-0.095,-0.070
4867,-0.095,-0.080
4868,-0.095,-0.080
4869,-0.090,-0.070
4870,-0.085,-0.065
4871,-0.090,-0.065
4872,-0.095,-0.065
4873,-0.095,-0.070
4874,-0.095,-0.075
4875,-0.095,-0.075
4876,-0.095,-0.085
4877,-0.095,-0.085
4878,-0.095,-0.075
4879,-0.095,-0.065
4880,-0.095,-0.075
4881,-0.095,-0.085
4882,-0.095,-0.085
4883,-0.095,-0.085
4884,-0.095,-0.085
4885,-0.095,-0.085
4886,-0.095,-0.080
4887,-0.095,-0.075
4888,-0.095,-0.075
4889,-0.095,-0.075
4890,-0.095,-0.080
4891,-0.095,-0.085
4892,-0.095,-0.085
4893,-0.095,-0.085
4894,-0.095,-0.080
4895,-0.095,-0.075
4896,-0.095,-0.070
4897,-0.085,-0.060
4898,-0.065,-0.050
4899,-0.050,-0.040
4900,-0.040,-0.030
4901,-0.030,-0.025
4902,-0.020,-0.025
4903,-0.015,-0.025
4904,-0.020,-0.025
4905,-0.025,-0.030
4906,-0.020,-0.040
4907,-0.010,-0.045
4908,0.000,-0.045
4909,0.020,-0.040
4910,0.040,-0.030
4911,0.045,-0.030
4912,0.045,-0.040
4913,0.040,-0.050
4914,0.030,-0.060
4915,0.010,-0.070
4916,-0.010,-0.080
4917,-0.025,-0.075
4918,-0.035,-0.065
4919,-0.060,-0.075
4920,-0.085,-0.085
4921,-0.100,-0.105
4922,-0.115,-0.125
4923,-0.115,-0.120
4924,-0.115,-0.115
4925,-0.110,-0.105
4926,-0.105,-0.095
4927,-0.105,-0.105
4928,-0.105,-0.115
4929,-0.110,-0.120
4930,-0.115,-0.125
4931,-0.115,-0.115
4932,-0.115,-0.105
4933,-0.115,-0.105
4934,-0.115,-0.105
4935,-0.115,-0.105
4936,-0.115,-0.105
4937,-0.115,-0.110
4938,-0.115,-0.115
4939,-0.115,-0.115
4940,-0.115,-0.110
4941,-0.110,-0.100
4942,-0.105,-0.095
4943,-0.100,-0.100
4944,-0.095,-0.105
4945,-0.090,-0.110
4946,-0.085,-0.115
4947,-0.090,-0.110
4948,-0.090,-0.090
4949,-0.080,-0.065
4950,-0.010,-0.055
4951,0.080,-0.050
4952,0.350,-0.050
4953,0.665,-0.060
4954,1.190,-0.210
4955,1.750,-0.380
4956,1.605,-0.530
4957,1.395,-0.680
4958,0.455,-0.765
4959,-0.495,-0.855
4960,-0.645,-0.625
4961,-0.775,-0.400
4962,-0.550,-0.260
4963,-0.335,-0.130
4964,-0.210,-0.070
4965,-0.105,-0.015
4966,-0.095,-0.015
4967,-0.085,-0.015
4968,-0.090,-0.020
4969,-0.095,-0.025
4970,-0.100,-0.025
4971,-0.105,-0.025
4972,-0.095,-0.020
4973,-0.085,-0.015
4974,-0.085,-0.015
4975,-0.085,-0.015
4976,-0.090,-0.020
4977,-0.095,-0.025
4978,-0.090,-0.020
4979,-0.085,-0.015
4980,-0.080,-0.010
4981,-0.075,-0.005
4982,-0.075,-0.010
4983,-0.075,-0.015
4984,-0.070,-0.015
4985,-0.065,-0.015
4986,-0.065,-0.015
4987,-0.065,-0.010
4988,-0.065,0.000
4989,-0.065,0.005
4990,-0.060,0.000
4991,-0.055,-0.005
4992,-0.050,-0.005
4993,-0.045,0.000
4994,-0.040,0.010
4995,-0.035,0.015
4996,-0.030,0.020
4997,-0.025,0.025
4998,-0.020,0.025
4999,-0.015,0.025
5000,-0.015,0.025
5001,-0.010,0.035
5002,-0.005,0.045
5003,0.005,0.045
5004,0.015,0.045
5005,0.020,0.050
5006,0.025,0.055
5007,0.025,0.065
5008,0.025,0.075
5009,0.040,0.085
5010,0.055,0.095
5011,0.060,0.100
5012,0.065,0.105
5013,0.070,0.100
5014,0.075,0.095
5015,0.080,0.095
5016,0.085,0.095
5017,0.085,0.100
5018,0.085,0.105
5019,0.095,0.110
5020,0.105,0.110
5021,0.105,0.095
5022,0.105,0.085
5023,0.110,0.080
5024,0.115,0.075
5025,0.115,0.070
5026,0.115,0.065
5027,0.115,0.065
5028,0.115,0.055
5029,0.110,0.040
5030,0.105,0.025
5031,0.100,0.010
5032,0.085,0.005
5033,0.070,0.000
5034,0.060,-0.005
5035,0.050,-0.005
5036,0.035,-0.015
5037,0.020,-0.030
5038,0.000,-0.045
5039,-0.020,-0.060
5040,-0.035,-0.065
5041,-0.050,-0.065
5042,-0.065,-0.070
5043,-0.075,-0.075
5044,-0.090,-0.080
5045,-0.105,-0.085
5046,-0.105,-0.095
5047,-0.105,-0.105
5048,-0.110,-0.105
5049,-0.115,-0.105
5050,-0.110,-0.100
5051,-0.105,-0.095
5052,-0.105,-0.095
5053,-0.105,-0.095
5054,-0.105,-0.095
5055,-0.105,-0.095
5056,-0.100,-0.095
5057,-0.095,-0.095
5058,-0.100,-0.090
5059,-0.105,-0.085
5060,-0.105,-0.085
5061,-0.105,-0.085
5062,-0.110,-0.090
5063,-0.115,-0.095
5064,-0.115,-0.095
5065,-0.115,-0.095
5066,-0.110,-0.090
5067,-0.105,-0.085
5068,-0.110,-0.085
5069,-0.115,-0.085
5070,-0.110,-0.090
5071,-0.105,-0.095
5072,-0.105,-0.100
5073,-0.105,-0.105
5074,-0.105,-0.100
5075,-0.105,-0.095
5076,-0.110,-0.095
5077,-0.115,-0.095
5078,-0.115,-0.095
5079,-0.115,-0.095
5080,-0.115,-0.100
5081,-0.115,-0.105
5082,-0.110,-0.105
5083,-0.110,-0.105
5084,-0.125,-0.105
5085,-0.120,-0.105
5086,-0.115,-0.105
5087,-0.115,-0.110
5088,-0.115,-0.115
5089,-0.120,-0.115
5090,-0.125,-0.115
5091,-0.130,-0.110
5092,-0.135,-0.105
5093,-0.135,-0.110
5094,-0.135,-0.115
5095,-0.135,-0.120
5096,-0.135,-0.125
5097,-0.135,-0.125
5098,-0.135,-0.125
5099,-0.135,-0.120
5100,-0.135,-0.115
5101,-0.140,-0.115
5102,-0.145,-0.115
5103,-0.140,-0.125
5104,-0.135,-0.135
5105,-0.135,-0.130
5106,-0.135,-0.125
5107,-0.135,-0.125
5108,-0.135,-0.125
5109,-0.135,-0.125
5110,-0.140,-0.125
5111,-0.150,-0.130
5112,-0.155,-0.135
5113,-0.150,-0.130
5114,-0.145,-0.125
5115,-0.140,-0.125
5116,-0.135,-0.125
5117,-0.135,-0.130
5118,-0.135,-0.135
5119,-0.135,-0.135
5120,-0.135,-0.135
5121,-0.135,-0.130
5122,-0.135,-0.125
5123,-0.140,-0.130
5124,-0.145,-0.135
5125,-0.145,-0.135
5126,-0.140,-0.135
5127,-0.145,-0.135
5128,-0.135,-0.125
5129,-0.125,-0.115
5130,-0.115,-0.105
5131,-0.105,-0.095
5132,-0.095,-0.090
5133,-0.085,-0.085
5134,-0.075,-0.090
5135,-0.065,-0.095
5136,-0.055,-0.085
5137,-0.045,-0.075
5138,-0.045,-0.085
5139,-0.040,-0.095
5140,-0.025,-0.100
5141,-0.015,-0.105
5142,-0.015,-0.095
5143,-0.010,-0.085
5144,0.005,-0.080
5145,0.010,-0.080
5146,-0.015,-0.095
5147,-0.035,-0.110
5148,-0.055,-0.125
5149,-0.070,-0.135
5150,-0.085,-0.130
5151,-0.100,-0.125
5152,-0.115,-0.130
5153,-0.130,-0.140
5154,-0.140,-0.150
5155,-0.145,-0.155
5156,-0.145,-0.160
5157,-0.145,-0.165
5158,-0.145,-0.160
5159,-0.145,-0.155
5160,-0.145,-0.150
5161,-0.150,-0.145
5162,-0.160,-0.150
5163,-0.165,-0.155
5164,-0.160,-0.155
5165,-0.155,-0.155
5166,-0.160,-0.155
5167,-0.155,-0.150
5168,-0.145,-0.145
5169,-0.150,-0.150
5170,-0.155,-0.155
5171,-0.150,-0.155
5172,-0.145,-0.155
5173,-0.145,-0.150
5174,-0.145,-0.145
5175,-0.135,-0.145
5176,-0.125,-0.145
5177,-0.120,-0.150
5178,-0.120,-0.155
5179,-0.140,-0.145
5180,-0.135,-0.130
5181,-0.055,-0.105
5182,0.060,-0.085
5183,0.255,-0.075
5184,0.570,-0.110
5185,1.055,-0.230
5186,1.450,-0.365
5187,1.740,-0.530
5188,1.410,-0.690
5189,0.460,-0.845
5190,-0.220,-0.860
5191,-0.670,-0.760
5192,-0.790,-0.590
5193,-0.670,-0.375
5194,-0.495,-0.240
5195,-0.290,-0.155
5196,-0.195,-0.105
5197,-0.150,-0.075
5198,-0.135,-0.060
5199,-0.140,-0.050
5200,-0.145,-0.050
5201,-0.145,-0.060
5202,-0.145,-0.065
5203,-0.145,-0.065
5204,-0.145,-0.065
5205,-0.145,-0.065
5206,-0.145,-0.065
5207,-0.140,-0.060
5208,-0.135,-0.055
5209,-0.145,-0.055
5210,-0.140,-0.060
5211,-0.135,-0.065
5212,-0.125,-0.060
5213,-0.115,-0.055
5214,-0.120,-0.050
5215,-0.125,-0.045
5216,-0.125,-0.045
5217,-0.125,-0.045
5218,-0.120,-0.050
5219,-0.115,-0.055
5220,-0.115,-0.045
5221,-0.115,-0.035
5222,-0.105,-0.030
5223,-0.095,-0.025
5224,-0.100,-0.030
5225,-0.105,-0.035
5226,-0.100,-0.035
5227,-0.095,-0.035
5228,-0.090,-0.025
5229,-0.085,-0.015
5230,-0.080,-0.010
5231,-0.075,-0.005
5232,-0.070,-0.005
5233,-0.065,-0.005
5234,-0.060,-0.005
5235,-0.055,-0.005
5236,-0.055,0.000
5237,-0.045,0.010
5238,-0.030,0.020
5239,-0.025,0.025
5240,-0.025,0.025
5241,-0.025,0.025
5242,-0.020,0.025
5243,-0.010,0.030
5244,0.000,0.040
5245,0.005,0.045
5246,0.005,0.050
5247,0.010,0.055
5248,0.020,0.050
5249,0.025,0.045
5250,0.025,0.045
5251,0.020,0.045
5252,0.015,0.045
5253,0.015,0.045
5254,0.015,0.045
5255,0.015,0.035
5256,0.015,0.025
5257,0.020,0.015
5258,0.025,0.005
5259,0.020,0.000
5260,0.015,-0.005
5261,0.015,-0.010
5262,0.015,-0.015
5263,0.010,-0.015
5264,0.005,-0.020
5265,0.005,-0.035
5266,0.000,-0.045
5267,-0.020,-0.050
5268,-0.040,-0.055
5269,-0.055,-0.060
5270,-0.070,-0.065
5271,-0.095,-0.080
5272,-0.110,-0.090
5273,-0.125,-0.100
5274,-0.135,-0.105
5275,-0.140,-0.105
5276,-0.145,-0.105
5277,-0.150,-0.105
5278,-0.155,-0.105
5279,-0.160,-0.110
5280,-0.165,-0.115
5281,-0.165,-0.120
5282,-0.165,-0.125
5283,-0.170,-0.120
5284,-0.175,-0.115
5285,-0.170,-0.110
5286,-0.165,-0.105
5287,-0.170,-0.110
5288,-0.175,-0.115
5289,-0.175,-0.115
5290,-0.175,-0.115
5291,-0.170,-0.115
5292,-0.160,-0.110
5293,-0.155,-0.105
5294,-0.160,-0.105
5295,-0.165,-0.105
5296,-0.165,-0.115
5297,-0.165,-0.125
5298,-0.165,-0.120
5299,-0.165,-0.115
5300,-0.160,-0.110
5301,-0.155,-0.105
5302,-0.160,-0.110
5303,-0.165,-0.115
5304,-0.165,-0.120
5305,-0.165,-0.125
5306,-0.160,-0.120
5307,-0.155,-0.115
5308,-0.160,-0.115
5309,-0.165,-0.115
5310,-0.170,-0.115
5311,-0.175,-0.115
5312,-0.175,-0.120
5313,-0.175,-0.125
5314,-0.175,-0.125
5315,-0.175,-0.125
5316,-0.175,-0.120
5317,-0.175,-0.120
5318,-0.180,-0.130
5319,-0.185,-0.135
5320,-0.185,-0.135
5321,-0.185,-0.135
5322,-0.185,-0.130
5323,-0.185,-0.125
5324,-0.185,-0.125
5325,-0.185,-0.125
5326,-0.185,-0.130
5327,-0.185,-0.135
5328,-0.190,-0.135
5329,-0.195,-0.135
5330,-0.190,-0.135
5331,-0.185,-0.135
5332,-0.185,-0.135
5333,-0.185,-0.135
5334,-0.175,-0.145
5335,-0.170,-0.145
5336,-0.165,-0.145
5337,-0.170,-0.140
5338,-0.175,-0.135
5339,-0.175,-0.130
5340,-0.175,-0.125
5341,-0.175,-0.135
5342,-0.175,-0.145
5343,-0.180,-0.145
5344,-0.185,-0.145
5345,-0.190,-0.140
5346,-0.195,-0.135
5347,-0.185,-0.135
5348,-0.175,-0.135
5349,-0.175,-0.135
5350,-0.175,-0.135
5351,-0.170,-0.140
5352,-0.165,-0.145
5353,-0.160,-0.140
5354,-0.155,-0.130
5355,-0.140,-0.105
5356,-0.135,-0.095
5357,-0.140,-0.095
5358,-0.140,-0.095
5359,-0.130,-0.095
5360,-0.125,-0.095
5361,-0.120,-0.095
5362,-0.110,-0.095
5363,-0.100,-0.095
5364,-0.085,-0.095
5365,-0.070,-0.100
5366,-0.065,-0.105
5367,-0.065,-0.105
5368,-0.050,-0.105
5369,-0.030,-0.105
5370,-0.045,-0.105
5371,-0.070,-0.110
5372,-0.090,-0.125
5373,-0.110,-0.140
5374,-0.125,-0.145
5375,-0.115,-0.145
5376,-0.160,-0.150
5377,-0.175,-0.155
5378,-0.180,-0.160
5379,-0.185,-0.165
5380,-0.190,-0.165
5381,-0.195,-0.165
5382,-0.195,-0.170
5383,-0.195,-0.175
5384,-0.195,-0.170
5385,-0.195,-0.165
5386,-0.195,-0.165
5387,-0.195,-0.165
5388,-0.200,-0.165
5389,-0.205,-0.165
5390,-0.205,-0.170
5391,-0.205,-0.175
5392,-0.210,-0.170
5393,-0.210,-0.165
5394,-0.195,-0.160
5395,-0.185,-0.155
5396,-0.190,-0.160
5397,-0.195,-0.165
5398,-0.195,-0.165
5399,-0.195,-0.165
5400,-0.190,-0.165
5401,-0.180,-0.165
5402,-0.170,-0.160
5403,-0.170,-0.155
5404,-0.180,-0.160
5405,-0.185,-0.155
5406,-0.185,-0.140
5407,-0.120,-0.130
5408,-0.035,-0.120
5409,0.180,-0.100
5410,0.425,-0.080
5411,0.905,-0.155
5412,1.435,-0.250
5413,1.485,-0.420
5414,1.470,-0.590
5415,0.580,-0.725
5416,-0.370,-0.850
5417,-0.650,-0.680
5418,-0.910,-0.500
5419,-0.750,-0.340
5420,-0.585,-0.185
5421,-0.425,-0.175
5422,-0.280,-0.165
5423,-0.235,-0.145
5424,-0.195,-0.125
5425,-0.190,-0.105
5426,-0.185,-0.085
5427,-0.180,-0.085
5428,-0.175,-0.085
5429,-0.175,-0.090
5430,-0.175,-0.095
5431,-0.175,-0.095
5432,-0.175,-0.095
5433,-0.165,-0.090
5434,-0.155,-0.085
5435,-0.160,-0.080
5436,-0.165,-0.075
5437,-0.160,-0.085
5438,-0.155,-0.095
5439,-0.160,-0.090
5440,-0.160,-0.085
5441,-0.150,-0.080
5442,-0.145,-0.075
5443,-0.140,-0.075
5444,-0.135,-0.075
5445,-0.130,-0.075
5446,-0.125,-0.075
5447,-0.125,-0.075
5448,-0.125,-0.075
5449,-0.125,-0.075
5450,-0.125,-0.075
5451,-0.120,-0.070
5452,-0.115,-0.065
5453,-0.110,-0.065
5454,-0.105,-0.065
5455,-0.100,-0.065
5456,-0.090,-0.065
5457,-0.080,-0.060
5458,-0.075,-0.055
5459,-0.075,-0.045
5460,-0.070,-0.045
5461,-0.065,-0.045
5462,-0.055,-0.045
5463,-0.045,-0.045
5464,-0.045,-0.040
5465,-0.045,-0.035
5466,-0.045,-0.025
5467,-0.045,-0.015
5468,-0.040,-0.010
5469,-0.035,-0.005
5470,-0.030,-0.005
5471,-0.025,-0.005
5472,-0.010,0.000
5473,0.005,0.005
5474,0.005,0.005
5475,0.005,0.005
5476,0.005,0.000
5477,0.005,-0.005
5478,0.010,-0.005
5479,0.015,-0.005
5480,0.010,-0.005
5481,0.005,-0.010
5482,0.000,-0.020
5483,-0.005,-0.030
5484,-0.005,-0.040
5485,-0.005,-0.045
5486,-0.010,-0.050
5487,-0.015,-0.055
5488,-0.015,-0.060
5489,-0.015,-0.065
5490,-0.020,-0.065
5491,-0.025,-0.075
5492,-0.030,-0.090
5493,-0.040,-0.095
5494,-0.050,-0.095
5495,-0.065,-0.095
5496,-0.080,-0.095
5497,-0.095,-0.095
5498,-0.110,-0.100
5499,-0.125,-0.105
5500,-0.115,-0.105
5501,-0.150,-0.120
5502,-0.155,-0.125
5503,-0.150,-0.120
5504,-0.145,-0.115
5505,-0.145,-0.120
5506,-0.145,-0.125
5507,-0.150,-0.130
5508,-0.155,-0.135
5509,-0.155,-0.125
5510,-0.155,-0.115
5511,-0.150,-0.115
5512,-0.145,-0.115
5513,-0.145,-0.115
5514,-0.145,-0.115
5515,-0.145,-0.120
5516,-0.145,-0.125
5517,-0.145,-0.120
5518,-0.145,-0.115
5519,-0.140,-0.115
5520,-0.135,-0.115
5521,-0.135,-0.115
5522,-0.135,-0.115
5523,-0.135,-0.115
5524,-0.135,-0.115
5525,-0.130,-0.115
5526,-0.125,-0.115
5527,-0.125,-0.110
5528,-0.125,-0.105
5529,-0.130,-0.110
5530,-0.135,-0.115
5531,-0.140,-0.115
5532,-0.140,-0.115
5533,-0.130,-0.120
5534,-0.125,-0.125
5535,-0.125,-0.120
5536,-0.125,-0.115
5537,-0.130,-0.120
5538,-0.135,-0.125
5539,-0.135,-0.125
5540,-0.135,-0.125
5541,-0.140,-0.120
5542,-0.140,-0.120
5543,-0.135,-0.125
5544,-0.140,-0.125
5545,-0.145,-0.125
5546,-0.150,-0.130
5547,-0.155,-0.135
5548,-0.150,-0.130
5549,-0.145,-0.125
5550,-0.140,-0.120
5551,-0.135,-0.115
5552,-0.140,-0.125
5553,-0.145,-0.135
5554,-0.145,-0.135
5555,-0.145,-0.135
5556,-0.145,-0.135
5557,-0.145,-0.135
5558,-0.145,-0.130
5559,-0.145,-0.125
5560,-0.145,-0.130
5561,-0.145,-0.135
5562,-0.145,-0.140
5563,-0.145,-0.145
5564,-0.145,-0.140
5565,-0.145,-0.135
5566,-0.145,-0.130
5567,-0.145,-0.125
5568,-0.140,-0.125
5569,-0.125,-0.125
5570,-0.105,-0.120
5571,-0.095,-0.110
5572,-0.090,-0.100
5573,-0.085,-0.095
5574,-0.085,-0.090
5575,-0.080,-0.085
5576,-0.070,-0.085
5577,-0.065,-0.090
5578,-0.060,-0.100
5579,-0.050,-0.105
5580,-0.040,-0.105
5581,-0.030,-0.100
5582,-0.020,-0.090
5583,-0.015,-0.085
5584,-0.005,-0.085
5585,-0.005,-0.095
5586,-0.005,-0.105
5587,-0.030,-0.120
5588,-0.055,-0.135
5589,-0.070,-0.130
5590,-0.085,-0.125
5591,-0.110,-0.125
5592,-0.135,-0.125
5593,-0.145,-0.140
5594,-0.155,-0.155
5595,-0.150,-0.155
5596,-0.145,-0.155
5597,-0.145,-0.155
5598,-0.145,-0.155
5599,-0.150,-0.155
5600,-0.155,-0.155
5601,-0.155,-0.155
5602,-0.155,-0.155
5603,-0.155,-0.150
5604,-0.155,-0.145
5605,-0.155,-0.145
5606,-0.155,-0.145
5607,-0.155,-0.150
5608,-0.155,-0.155
5609,-0.155,-0.160
5610,-0.155,-0.160
5611,-0.155,-0.150
5612,-0.150,-0.145
5613,-0.140,-0.145
5614,-0.135,-0.145
5615,-0.135,-0.150
5616,-0.135,-0.155
5617,-0.130,-0.155
5618,-0.125,-0.155
5619,-0.130,-0.155
5620,-0.130,-0.135
5621,-0.120,-0.110
5622,-0.025,-0.100
5623,0.080,-0.090
5624,0.310,-0.080
5625,0.085,-0.085
5626,1.090,-0.180
5627,1.605,-0.300
5628,1.510,-0.460
5629,1.340,-0.615
5630,0.390,-0.750
5631,-0.455,-0.840
5632,-0.670,-0.665
5633,-0.805,-0.485
5634,-0.590,-0.325
5635,-0.395,-0.185
5636,-0.265,-0.130
5637,-0.160,-0.085
5638,-0.140,-0.075
5639,-0.125,-0.065
5640,-0.120,-0.060
5641,-0.115,-0.055
5642,-0.115,-0.060
5643,-0.115,-0.065
5644,-0.115,-0.060
5645,-0.115,-0.055
5646,-0.115,-0.055
5647,-0.115,-0.055
5648,-0.115,-0.055
5649,-0.115,-0.055
5650,-0.110,-0.055
5651,-0.105,-0.055
5652,-0.100,-0.050
5653,-0.095,-0.045
5654,-0.095,-0.045
5655,-0.095,-0.045
5656,-0.095,-0.045
5657,-0.095,-0.045
5658,-0.090,-0.040
5659,-0.085,-0.035
5660,-0.080,-0.030
5661,-0.075,-0.025
5662,-0.070,-0.030
5663,-0.065,-0.035
5664,-0.065,-0.035
5665,-0.065,-0.035
5666,-0.065,-0.030
5667,-0.055,-0.015
5668,-0.045,-0.005
5669,-0.040,-0.005
5670,-0.035,-0.005
5671,-0.030,-0.005
5672,-0.025,-0.005
5673,-0.015,0.000
5674,-0.005,0.005
5675,0.000,0.015
5676,0.005,0.025
5677,0.010,0.025
5678,0.015,0.025
5679,0.025,0.030
5680,0.035,0.035
5681,0.040,0.045
5682,0.045,0.055
5683,0.050,0.060
5684,0.055,0.065
5685,0.060,0.070
5686,0.065,0.075
5687,0.070,0.070
5688,0.075,0.065
5689,0.080,0.070
5690,0.085,0.075
5691,0.090,0.080
5692,0.095,0.080
5693,0.090,0.070
5694,0.085,0.060
5695,0.090,0.050
5696,0.095,0.045
5697,0.095,0.045
5698,0.095,0.040
5699,0.095,0.030
5700,0.095,0.020
5701,0.090,0.010
5702,0.080,0.005
5703,0.070,0.000
5704,0.065,-0.005
5705,0.060,-0.010
5706,0.050,-0.015
5707,0.040,-0.020
5708,0.020,-0.035
5709,-0.005,-0.055
5710,-0.020,-0.065
5711,-0.035,-0.075
5712,-0.050,-0.080
5713,-0.065,-0.085
5714,-0.075,-0.085
5715,-0.085,-0.085
5716,-0.090,-0.095
5717,-0.095,-0.105
5718,-0.105,-0.110
5719,-0.115,-0.115
5720,-0.120,-0.110
5721,-0.125,-0.105
5722,-0.120,-0.100
5723,-0.115,-0.095
5724,-0.115,-0.100
5725,-0.115,-0.105
5726,-0.110,-0.110
5727,-0.105,-0.115
5728,-0.110,-0.110
5729,-0.115,-0.105
5730,-0.115,-0.100
5731,-0.115,-0.095
5732,-0.110,-0.095
5733,-0.105,-0.095
5734,-0.105,-0.100
5735,-0.105,-0.105
5736,-0.105,-0.105
5737,-0.105,-0.100
5738,-0.100,-0.090
5739,-0.095,-0.085
5740,-0.095,-0.090
5741,-0.095,-0.095
5742,-0.095,-0.100
5743,-0.095,-0.105
5744,-0.095,-0.100
5745,-0.095,-0.095
5746,-0.095,-0.090
5747,-0.095,-0.085
5748,-0.095,-0.090
5749,-0.095,-0.095
5750,-0.095,-0.095
5751,-0.100,-0.100
5752,-0.105,-0.105
5753,-0.105,-0.100
5754,-0.105,-0.095
5755,-0.105,-0.100
5756,-0.105,-0.105
5757,-0.105,-0.105
5758,-0.105,-0.105
5759,-0.110,-0.105
5760,-0.115,-0.105
5761,-0.115,-0.105
5762,-0.115,-0.105
5763,-0.120,-0.105
5764,-0.125,-0.105
5765,-0.120,-0.110
5766,-0.115,-0.115
5767,-0.125,-0.120
5768,-0.135,-0.125
5769,-0.130,-0.115
5770,-0.125,-0.105
5771,-0.125,-0.100
5772,-0.125,-0.100
5773,-0.125,-0.110
5774,-0.125,-0.115
5775,-0.125,-0.120
5776,-0.125,-0.120
5777,-0.125,-0.110
5778,-0.125,-0.105
5779,-0.125,-0.105
5780,-0.125,-0.105
5781,-0.120,-0.110
5782,-0.115,-0.115
5783,-0.120,-0.120
5784,-0.125,-0.125
5785,-0.125,-0.120
5786,-0.125,-0.115
5787,-0.125,-0.110
5788,-0.125,-0.105
5789,-0.125,-0.110
5790,-0.125,-0.115
5791,-0.120,-0.120
5792,-0.120,-0.120
5793,-0.125,-0.115
5794,-0.120,-0.110
5795,-0.115,-0.105
5796,-0.105,-0.095
5797,-0.095,-0.085
5798,-0.085,-0.080
5799,-0.075,-0.075
5800,-0.070,-0.070
5801,-0.065,-0.065
5802,-0.055,-0.060
5803,-0.045,-0.055
5804,-0.045,-0.060
5805,-0.045,-0.065
5806,-0.035,-0.070
5807,-0.020,-0.075
5808,-0.005,-0.070
5809,0.005,-0.065
5810,0.005,-0.065
5811,0.005,-0.065
5812,0.015,-0.065
5813,0.010,-0.075
5814,-0.025,-0.100
5815,-0.050,-0.115
5816,-0.060,-0.110
5817,-0.070,-0.105
5818,-0.085,-0.100
5819,-0.100,-0.105
5820,-0.120,-0.125
5821,-0.125,-0.135
5822,-0.125,-0.140
5823,-0.125,-0.140
5824,-0.125,-0.130
5825,-0.130,-0.125
5826,-0.140,-0.130
5827,-0.145,-0.135
5828,-0.140,-0.130
5829,-0.135,-0.130
5830,-0.140,-0.140
5831,-0.145,-0.145
5832,-0.140,-0.140
5833,-0.135,-0.135
5834,-0.145,-0.135
5835,-0.145,-0.135
5836,-0.145,-0.135
5837,-0.140,-0.135
5838,-0.135,-0.135
5839,-0.125,-0.130
5840,-0.115,-0.125
5841,-0.110,-0.130
5842,-0.105,-0.135
5843,-0.105,-0.135
5844,-0.105,-0.135
5845,-0.120,-0.120
5846,-0.115,-0.100
5847,-0.045,-0.080
5848,0.070,-0.065
5849,0.255,-0.060
5850,0.565,-0.095
5851,1.050,-0.210
5852,1.445,-0.335
5853,1.720,-0.485
5854,1.375,-0.640
5855,0.365,-0.805
5856,-0.305,-0.805
5857,-0.670,-0.650
5858,-0.720,-0.480
5859,-0.530,-0.290
5860,-0.360,-0.165
5861,-0.210,-0.085
5862,-0.140,-0.045
5863,-0.115,-0.030
5864,-0.105,-0.030
5865,-0.105,-0.040
5866,-0.105,-0.045
5867,-0.105,-0.040
5868,-0.105,-0.035
5869,-0.110,-0.030
5870,-0.115,-0.025
5871,-0.115,-0.025
5872,-0.115,-0.025
5873,-0.110,-0.030
5874,-0.105,-0.035
5875,-0.105,-0.035
5876,-0.105,-0.035
5877,-0.105,-0.025
5878,-0.105,-0.020
5879,-0.105,-0.015
5880,-0.100,-0.020
5881,-0.095,-0.025
5882,-0.085,-0.020
5883,-0.075,-0.015
5884,-0.075,-0.015
5885,-0.075,-0.015
5886,-0.075,-0.010
5887,-0.075,-0.005
5888,-0.070,-0.005
5889,-0.065,-0.005
5890,-0.065,-0.005
5891,-0.060,-0.005
5892,-0.045,0.000
5893,-0.035,0.005
5894,-0.035,0.015
5895,-0.035,0.025
5896,-0.030,0.025
5897,-0.025,0.025
5898,-0.020,0.025
5899,-0.015,0.025
5900,-0.010,0.030
5901,-0.005,0.035
5902,0.000,0.040
5903,0.005,0.045
5904,0.010,0.050
5905,0.015,0.055
5906,0.020,0.060
5907,0.030,0.070
5908,0.040,0.080
5909,0.045,0.085
5910,0.050,0.090
5911,0.055,0.095
5912,0.055,0.095
5913,0.060,0.095
5914,0.070,0.095
5915,0.075,0.095
5916,0.075,0.095
5917,0.080,0.090
5918,0.085,0.085
5919,0.080,0.085
5920,0.075,0.085
5921,0.075,0.075
5922,0.075,0.065
5923,0.075,0.060
5924,0.075,0.055
5925,0.080,0.050
5926,0.085,0.045
5927,0.080,0.035
5928,0.075,0.025
5929,0.070,0.010
5930,0.065,-0.005
5931,0.055,-0.010
5932,0.040,-0.015
5933,0.025,-0.015
5934,0.010,-0.020
5935,-0.005,-0.035
5936,-0.020,-0.050
5937,-0.035,-0.065
5938,-0.050,-0.075
5939,-0.065,-0.070
5940,-0.075,-0.065
5941,-0.080,-0.070
5942,-0.085,-0.075
5943,-0.090,-0.080
5944,-0.100,-0.085
5945,-0.110,-0.090
5946,-0.115,-0.095
5947,-0.110,-0.100
5948,-0.105,-0.105
5949,-0.105,-0.100
5950,-0.105,-0.095
5951,-0.105,-0.095
5952,-0.105,-0.095
5953,-0.110,-0.100
5954,-0.115,-0.105
5955,-0.115,-0.100
5956,-0.115,-0.095
5957,-0.110,-0.090
5958,-0.105,-0.085
5959,-0.105,-0.095
5960,-0.110,-0.095
5961,-0.115,-0.095
5962,-0.110,-0.100
5963,-0.105,-0.105
5964,-0.105,-0.095
5965,-0.105,-0.085
5966,-0.105,-0.085
5967,-0.105,-0.085
5968,-0.105,-0.090
5969,-0.105,-0.095
5970,-0.105,-0.100
5971,-0.105,-0.105
5972,-0.105,-0.095
5973,-0.105,-0.085
5974,-0.110,-0.085
5975,-0.115,-0.085
5976,-0.115,-0.095
5977,-0.115,-0.105
5978,-0.110,-0.105
5979,-0.105,-0.105
5980,-0.110,-0.105
5981,-0.115,-0.105
5982,-0.120,-0.100
5983,-0.125,-0.100
5984,-0.130,-0.110
5985,-0.135,-0.115
5986,-0.130,-0.115
5987,-0.125,-0.115
5988,-0.125,-0.110
5989,-0.125,-0.105
5990,-0.130,-0.110
5991,-0.135,-0.115
5992,-0.135,-0.115
5993,-0.135,-0.115
5994,-0.135,-0.115
5995,-0.135,-0.115
5996,-0.130,-0.115
5997,-0.130,-0.115
5998,-0.140,-0.115
5999,-0.145,-0.115
6000,-0.145,-0.115
6001,-0.145,-0.130
6002,-0.145,-0.135
6003,-0.140,-0.125
6004,-0.135,-0.115
6005,-0.135,-0.120
6006,-0.135,-0.125
6007,-0.140,-0.125
6008,-0.145,-0.125
6009,-0.145,-0.125
6010,-0.145,-0.125
6011,-0.140,-0.120
6012,-0.135,-0.115
6013,-0.135,-0.120
6014,-0.135,-0.125
6015,-0.135,-0.130
6016,-0.135,-0.135
6017,-0.140,-0.130
6018,-0.145,-0.125
6019,-0.140,-0.120
6020,-0.135,-0.115
6021,-0.135,-0.115
6022,-0.135,-0.115
6023,-0.140,-0.120
6024,-0.145,-0.125
6025,-0.140,-0.125
6026,-0.130,-0.120
6027,-0.120,-0.105
6028,-0.115,-0.095
6029,-0.110,-0.090
6030,-0.105,-0.085
6031,-0.100,-0.080
6032,-0.090,-0.075
6033,-0.080,-0.075
6034,-0.070,-0.075
6035,-0.060,-0.070
6036,-0.055,-0.070
6037,-0.060,-0.080
6038,-0.055,-0.085
6039,-0.040,-0.085
6040,-0.035,-0.085
6041,-0.030,-0.080
6042,-0.005,-0.075
6043,0.015,-0.075
6044,-0.010,-0.090
6045,-0.035,-0.105
6046,-0.060,-0.115
6047,-0.085,-0.125
6048,-0.100,-0.120
6049,-0.115,-0.115
6050,-0.130,-0.120
6051,-0.145,-0.125
6052,-0.150,-0.135
6053,-0.155,-0.145
6054,-0.150,-0.145
6055,-0.145,-0.145
6056,-0.150,-0.145
6057,-0.155,-0.145
6058,-0.160,-0.140
6059,-0.165,-0.135
6060,-0.165,-0.140
6061,-0.165,-0.145
6062,-0.170,-0.140
6063,-0.170,-0.135
6064,-0.160,-0.135
6065,-0.155,-0.135
6066,-0.155,-0.135
6067,-0.155,-0.135
6068,-0.155,-0.135
6069,-0.155,-0.135
6070,-0.155,-0.135
6071,-0.155,-0.135
6072,-0.150,-0.135
6073,-0.145,-0.135
6074,-0.140,-0.135
6075,-0.135,-0.135
6076,-0.140,-0.135
6077,-0.145,-0.125
6078,-0.145,-0.110
6079,-0.060,-0.100
6080,0.035,-0.090
6081,0.245,-0.075
6082,0.465,-0.060
6083,1.045,-0.160
6084,1.625,-0.275
6085,1.450,-0.455
6086,1.230,-0.630
6087,0.320,-0.735
6088,-0.515,-0.820
6089,-0.710,-0.650
6090,-0.850,-0.485
6091,-0.660,-0.330
6092,-0.480,-0.200
6093,-0.335,-0.150
6094,-0.220,-0.110
6095,-0.185,-0.090
6096,-0.155,-0.075
6097,-0.150,-0.065
6098,-0.145,-0.055
6099,-0.145,-0.060
6100,-0.145,-0.065
6101,-0.145,-0.060
6102,-0.145,-0.055
6103,-0.145,-0.055
6104,-0.145,-0.055
6105,-0.140,-0.055
6106,-0.135,-0.055
6107,-0.130,-0.055
6108,-0.125,-0.055
6109,-0.125,-0.055
6110,-0.125,-0.055
6111,-0.130,-0.050
6112,-0.135,-0.045
6113,-0.130,-0.045
6114,-0.125,-0.045
6115,-0.120,-0.040
6116,-0.115,-0.035
6117,-0.110,-0.040
6118,-0.105,-0.045
6119,-0.105,-0.045
6120,-0.100,-0.040
6121,-0.090,-0.030
6122,-0.085,-0.025
6123,-0.085,-0.025
6124,-0.085,-0.025
6125,-0.085,-0.025
6126,-0.080,-0.025
6127,-0.075,-0.025
6128,-0.070,-0.015
6129,-0.065,-0.005
6130,-0.060,-0.005
6131,-0.055,-0.005
6132,-0.050,-0.005
6133,-0.045,-0.005
6134,-0.040,-0.005
6135,-0.035,-0.005
6136,-0.030,0.005
6137,-0.025,0.015
6138,-0.015,0.020
6139,-0.005,0.025
6140,-0.005,0.025
6141,-0.005,0.025
6142,-0.005,0.025
6143,-0.005,0.030
6144,0.005,0.045
6145,0.015,0.055
6146,0.020,0.055
6147,0.025,0.055
6148,0.030,0.055
6149,0.035,0.055
6150,0.035,0.050
6151,0.035,0.045
6152,0.035,0.045
6153,0.035,0.045
6154,0.030,0.040
6155,0.025,0.035
6156,0.025,0.030
6157,0.025,0.020
6158,0.025,0.010
6159,0.025,0.000
6160,0.025,-0.010
6161,0.025,-0.015
6162,0.020,-0.015
6163,0.015,-0.020
6164,0.015,-0.030
6165,0.015,-0.035
6166,0.010,-0.040
6167,-0.010,-0.045
6168,-0.025,-0.045
6169,-0.040,-0.045
6170,-0.055,-0.045
6171,-0.070,-0.055
6172,-0.085,-0.065
6173,-0.090,-0.075
6174,-0.095,-0.085
6175,-0.100,-0.080
6176,-0.105,-0.075
6177,-0.110,-0.075
6178,-0.115,-0.075
6179,-0.125,-0.080
6180,-0.135,-0.085
6181,-0.135,-0.085
6182,-0.135,-0.085
6183,-0.135,-0.080
6184,-0.135,-0.075
6185,-0.135,-0.075
6186,-0.135,-0.075
6187,-0.135,-0.075
6188,-0.135,-0.075
6189,-0.140,-0.080
6190,-0.140,-0.085
6191,-0.130,-0.080
6192,-0.125,-0.075
6193,-0.130,-0.070
6194,-0.135,-0.065
6195,-0.135,-0.070
6196,-0.130,-0.075
6197,-0.120,-0.080
6198,-0.115,-0.085
6199,-0.115,-0.080
6200,-0.115,-0.075
6201,-0.120,-0.070
6202,-0.125,-0.070
6203,-0.120,-0.080
6204,-0.115,-0.085
6205,-0.115,-0.080
6206,-0.115,-0.075
6207,-0.115,-0.075
6208,-0.115,-0.075
6209,-0.115,-0.085
6210,-0.120,-0.085
6211,-0.125,-0.085
6212,-0.125,-0.085
6213,-0.125,-0.085
6214,-0.125,-0.080
6215,-0.125,-0.075
6216,-0.130,-0.085
6217,-0.135,-0.095
6218,-0.135,-0.095
6219,-0.135,-0.095
6220,-0.140,-0.100
6221,-0.145,-0.105
6222,-0.135,-0.095
6223,-0.125,-0.085
6224,-0.135,-0.090
6225,-0.145,-0.095
6226,-0.135,-0.095
6227,-0.125,-0.095
6228,-0.135,-0.095
6229,-0.145,-0.095
6230,-0.140,-0.095
6231,-0.135,-0.095
6232,-0.140,-0.100
6233,-0.145,-0.105
6234,-0.140,-0.105
6235,-0.135,-0.105
6236,-0.140,-0.100
6237,-0.145,-0.095
6238,-0.140,-0.095
6239,-0.135,-0.095
6240,-0.135,-0.095
6241,-0.135,-0.095
6242,-0.130,-0.090
6243,-0.115,-0.080
6244,-0.100,-0.070
6245,-0.090,-0.060
6246,-0.080,-0.050
6247,-0.075,-0.045
6248,-0.075,-0.045
6249,-0.075,-0.045
6250,-0.075,-0.045
6251,-0.060,-0.050
6252,-0.055,-0.055
6253,-0.035,-0.055
6254,-0.015,-0.055
6255,-0.005,-0.055
6256,0.005,-0.055
6257,0.010,-0.060
6258,0.015,-0.065
6259,0.010,-0.065
6260,0.000,-0.065
6261,-0.025,-0.075
6262,-0.045,-0.085
6263,-0.060,-0.090
6264,-0.080,-0.095
6265,-0.105,-0.100
6266,-0.125,-0.105
6267,-0.130,-0.110
6268,-0.135,-0.115
6269,-0.135,-0.110
6270,-0.135,-0.105
6271,-0.130,-0.110
6272,-0.125,-0.115
6273,-0.125,-0.120
6274,-0.125,-0.125
6275,-0.125,-0.120
6276,-0.130,-0.115
6277,-0.140,-0.115
6278,-0.145,-0.115
6279,-0.140,-0.115
6280,-0.135,-0.115
6281,-0.135,-0.115
6282,-0.135,-0.115
6283,-0.130,-0.110
6284,-0.125,-0.105
6285,-0.120,-0.105
6286,-0.115,-0.105
6287,-0.120,-0.105
6288,-0.120,-0.105
6289,-0.110,-0.105
6290,-0.105,-0.105
6291,-0.100,-0.105
6292,-0.095,-0.105
6293,-0.095,-0.105
6294,-0.090,-0.085
6295,-0.080,-0.065
6296,0.035,-0.065
6297,0.165,-0.065
6298,0.445,-0.045
6299,0.765,-0.040
6300,1.315,-0.150
6301,1.695,-0.270
6302,1.440,-0.450
6303,1.025,-0.610
6304,0.145,-0.705
6305,-0.515,-0.720
6306,-0.690,-0.530
6307,-0.740,-0.355
6308,-0.545,-0.215
6309,-0.370,-0.120
6310,-0.225,-0.100
6311,-0.135,-0.080
6312,-0.105,-0.065
6313,-0.085,-0.050
6314,-0.085,-0.035
6315,-0.085,-0.025
6316,-0.085,-0.020
6317,-0.085,-0.020
6318,-0.080,-0.030
6319,-0.075,-0.035
6320,-0.080,-0.035
6321,-0.085,-0.035
6322,-0.080,-0.030
6323,-0.075,-0.025
6324,-0.070,-0.020
6325,-0.065,-0.015
6326,-0.060,-0.015
6327,-0.055,-0.015
6328,-0.050,-0.020
6329,-0.045,-0.025
6330,-0.050,-0.020
6331,-0.055,-0.010
6332,-0.050,0.000
6333,-0.045,0.005
6334,-0.035,-0.005
6335,-0.030,-0.005
6336,-0.025,-0.005
6337,-0.020,-0.005
6338,-0.015,-0.005
6339,-0.010,0.005
6340,-0.005,0.015
6341,-0.005,0.015
6342,-0.005,0.015
6343,0.005,0.010
6344,0.015,0.005
6345,0.015,0.005
6346,0.015,0.010
6347,0.025,0.030
6348,0.035,0.045
6349,0.035,0.045
6350,0.035,0.045
6351,0.040,0.050
6352,0.045,0.055
6353,0.055,0.060
6354,0.065,0.065
6355,0.080,0.070
6356,0.085,0.075
6357,0.085,0.080
6358,0.085,0.085
6359,0.085,0.085
6360,0.090,0.090
6361,0.100,0.100
6362,0.110,0.105
6363,0.120,0.105
6364,0.125,0.105
6365,0.125,0.105
6366,0.125,0.100
6367,0.120,0.090
6368,0.115,0.085
6369,0.115,0.085
6370,0.115,0.085
6371,0.115,0.080
6372,0.115,0.065
6373,0.120,0.050
6374,0.125,0.040
6375,0.125,0.045
6376,0.110,0.025
6377,0.105,0.025
6378,0.100,0.025
6379,0.095,0.025
6380,0.085,0.015
6381,0.075,0.005
6382,0.060,-0.005
6383,0.045,-0.015
6384,0.035,-0.025
6385,0.025,-0.035
6386,0.010,-0.030
6387,-0.005,-0.025
6388,-0.015,-0.035
6389,-0.025,-0.045
6390,-0.035,-0.050
6391,-0.045,-0.055
6392,-0.050,-0.055
6393,-0.055,-0.055
6394,-0.050,-0.050
6395,-0.045,-0.045
6396,-0.050,-0.050
6397,-0.055,-0.055
6398,-0.055,-0.055
6399,-0.055,-0.055
6400,-0.050,-0.055
6401,-0.045,-0.055
6402,-0.045,-0.050
6403,-0.045,-0.045
6404,-0.045,-0.050
6405,-0.045,-0.055
6406,-0.045,-0.055
6407,-0.045,-0.055
6408,-0.045,-0.050
6409,-0.045,-0.045
6410,-0.040,-0.040
6411,-0.035,-0.035
6412,-0.035,-0.040
6413,-0.035,-0.045
6414,-0.035,-0.050
6415,-0.035,-0.055
6416,-0.035,-0.050
6417,-0.030,-0.040
6418,-0.025,-0.035
6419,-0.025,-0.040
6420,-0.025,-0.045
6421,-0.025,-0.050
6422,-0.025,-0.055
6423,-0.035,-0.050
6424,-0.045,-0.045
6425,-0.040,-0.040
6426,-0.035,-0.035
6427,-0.030,-0.045
6428,-0.025,-0.055
6429,-0.035,-0.055
6430,-0.045,-0.055
6431,-0.045,-0.055
6432,-0.045,-0.055
6433,-0.045,-0.055
6434,-0.045,-0.055
6435,-0.045,-0.055
6436,-0.045,-0.055
6437,-0.045,-0.060
6438,-0.045,-0.065
6439,-0.050,-0.065
6440,-0.055,-0.065
6441,-0.050,-0.065
6442,-0.045,-0.065
6443,-0.045,-0.065
6444,-0.045,-0.065
6445,-0.050,-0.070
6446,-0.055,-0.075
6447,-0.050,-0.075
6448,-0.045,-0.075
6449,-0.050,-0.070
6450,-0.055,-0.065
6451,-0.050,-0.065
6452,-0.045,-0.065
6453,-0.050,-0.065
6454,-0.055,-0.065
6455,-0.060,-0.070
6456,-0.060,-0.070
6457,-0.050,-0.060
6458,-0.045,-0.055
6459,-0.055,-0.065
6460,-0.050,-0.070
6461,-0.045,-0.075
6462,-0.050,-0.075
6463,-0.055,-0.075
6464,-0.050,-0.065
6465,-0.045,-0.055
6466,-0.025,-0.040
6467,-0.005,-0.025
6468,0.000,-0.025
6469,0.005,-0.025
6470,0.005,-0.025
6471,0.005,-0.025
6472,0.010,-0.020
6473,0.015,-0.015
6474,0.020,-0.020
6475,0.030,-0.025
6476,0.045,-0.030
6477,0.060,-0.035
6478,0.075,-0.035
6479,0.085,-0.035
6480,0.090,-0.030
6481,0.090,-0.025
6482,0.075,-0.030
6483,0.055,-0.040
6484,0.035,-0.055
6485,0.015,-0.065
6486,-0.005,-0.065
6487,-0.020,-0.065
6488,-0.030,-0.070
6489,-0.045,-0.080
6490,-0.060,-0.090
6491,-0.065,-0.095
6492,-0.065,-0.095
6493,-0.065,-0.095
6494,-0.060,-0.095
6495,-0.055,-0.095
6496,-0.060,-0.090
