'sample interval','V4'
'0.004 sec','mV'
0,7.080
1,7.065
2,7.055
3,7.025
4,6.995
5,6.970
6,6.955
7,6.905
8,6.930
9,6.915
10,6.895
11,6.885
12,6.880
13,6.885
14,6.885
15,6.885
16,6.895
17,6.885
18,6.895
19,6.915
20,6.920
21,6.920
22,6.945
23,6.915
24,6.945
25,6.945
26,6.955
27,6.955
28,6.965
29,6.970
30,6.965
31,6.955
32,6.965
33,6.990
34,6.965
35,6.970
36,6.970
37,6.970
38,6.970
39,6.970
40,6.995
41,6.970
42,6.970
43,6.970
44,6.965
45,6.970
46,6.970
47,6.970
48,6.970
49,6.970
50,6.995
51,6.970
52,6.955
53,6.955
54,6.965
55,6.955
56,6.955
57,6.965
58,6.955
59,6.945
60,6.965
61,6.955
62,6.945
63,6.945
64,6.945
65,6.945
66,6.915
67,6.940
68,6.945
69,6.930
70,6.940
71,6.920
72,6.930
73,6.930
74,6.930
75,6.920
76,6.920
77,6.920
78,6.930
79,6.915
80,6.920
81,6.920
82,6.880
83,6.920
84,6.915
85,6.915
86,6.915
87,6.915
88,6.905
89,6.905
90,6.915
91,6.915
92,6.905
93,6.915
94,6.915
95,6.920
96,6.915
97,6.915
98,6.915
99,6.915
100,6.905
101,6.915
102,6.915
103,6.915
104,6.915
105,6.915
106,6.895
107,6.915
108,6.915
109,6.860
110,6.895
111,6.895
112,6.885
113,6.885
114,6.880
115,6.895
116,6.885
117,6.885
118,6.885
119,6.885
120,6.920
121,6.880
122,6.885
123,6.885
124,6.885
125,6.855
126,6.885
127,6.885
128,6.880
129,6.885
130,6.885
131,6.885
132,6.880
133,6.885
134,6.880
135,6.880
136,6.880
137,6.880
138,6.880
139,6.880
140,6.880
141,6.855
142,6.880
143,6.880
144,6.880
145,6.880
146,6.880
147,6.885
148,6.880
149,6.880
150,6.880
151,6.885
152,6.870
153,6.870
154,6.880
155,6.880
156,6.880
157,6.860
158,6.880
159,6.870
160,6.870
161,6.885
162,6.880
163,6.870
164,6.870
165,6.870
166,6.880
167,6.885
168,6.845
169,6.880
170,6.880
171,6.880
172,6.880
173,6.880
174,6.885
175,6.885
176,6.880
177,6.885
178,6.885
179,6.885
180,6.880
181,6.885
182,6.885
183,6.885
184,6.860
185,6.885
186,6.880
187,6.885
188,6.885
189,6.880
190,6.885
191,6.885
192,6.885
193,6.880
194,6.895
195,6.885
196,6.885
197,6.880
198,6.885
199,6.885
200,6.880
201,6.895
202,6.885
203,6.895
204,6.880
205,6.885
206,6.880
207,6.885
208,6.885
209,6.895
210,6.895
211,6.885
212,6.895
213,6.915
214,6.915
215,6.915
216,6.885
217,6.895
218,6.895
219,6.895
220,6.905
221,6.915
222,6.905
223,6.915
224,6.915
225,6.915
226,6.915
227,6.870
228,6.905
229,6.915
230,6.905
231,6.915
232,6.905
233,6.915
234,6.920
235,6.915
236,6.915
237,6.920
238,6.905
239,6.915
240,6.920
241,6.920
242,6.920
243,6.905
244,6.930
245,6.930
246,6.940
247,6.940
248,6.945
249,6.945
250,6.965
251,6.955
252,6.965
253,6.955
254,6.945
255,6.945
256,6.945
257,6.955
258,6.965
259,6.940
260,6.945
261,6.945
262,6.930
263,6.920
264,6.915
265,6.905
266,6.915
267,6.915
268,6.905
269,6.915
270,6.870
271,6.920
272,6.915
273,6.915
274,6.920
275,6.920
276,6.930
277,6.920
278,6.930
279,6.940
280,6.945
281,6.970
282,6.945
283,6.955
284,6.940
285,6.990
286,7.105
287,7.245
288,7.420
289,7.635
290,7.830
291,7.870
292,7.855
293,7.835
294,7.720
295,7.330
296,6.810
297,6.590
298,6.690
299,6.770
300,6.800
301,6.835
302,6.855
303,6.915
304,6.945
305,6.945
306,6.940
307,6.955
308,6.970
309,6.965
310,6.965
311,6.970
312,6.970
313,6.965
314,6.965
315,6.965
316,6.970
317,6.990
318,6.965
319,6.965
320,6.970
321,6.990
322,6.970
323,6.990
324,6.980
325,6.970
326,6.970
327,6.970
328,6.970
329,7.025
330,6.995
331,6.995
332,6.990
333,6.990
334,7.005
335,7.005
336,6.995
337,7.005
338,6.995
339,7.005
340,7.015
341,7.015
342,7.015
343,7.025
344,7.015
345,7.055
346,7.050
347,7.050
348,7.050
349,7.050
350,7.050
351,7.055
352,7.080
353,7.075
354,7.080
355,7.080
356,7.100
357,7.090
358,7.115
359,7.105
360,7.105
361,7.115
362,7.125
363,7.125
364,7.125
365,7.135
366,7.115
367,7.125
368,7.115
369,7.115
370,7.100
371,7.090
372,7.115
373,7.090
374,7.055
375,7.050
376,7.030
377,7.015
378,6.995
379,6.980
380,6.965
381,6.945
382,6.930
383,6.915
384,6.895
385,6.880
386,6.870
387,6.870
388,6.830
389,6.860
390,6.860
391,6.860
392,6.880
393,6.885
394,6.895
395,6.895
396,6.905
397,6.905
398,6.915
399,6.920
400,6.920
401,6.945
402,6.930
403,6.945
404,6.920
405,6.945
406,6.945
407,6.945
408,6.955
409,6.945
410,6.955
411,6.955
412,6.965
413,6.945
414,6.955
415,6.945
416,6.965
417,6.940
418,6.945
419,6.945
420,6.945
421,6.955
422,6.955
423,6.940
424,6.965
425,6.955
426,6.955
427,6.945
428,6.940
429,6.945
430,6.955
431,6.915
432,6.940
433,6.920
434,6.930
435,6.920
436,6.905
437,6.905
438,6.915
439,6.920
440,6.905
441,6.915
442,6.945
443,6.915
444,6.895
445,6.915
446,6.905
447,6.860
448,6.885
449,6.885
450,6.880
451,6.885
452,6.880
453,6.885
454,6.870
455,6.880
456,6.880
457,6.880
458,6.870
459,6.870
460,6.870
461,6.860
462,6.870
463,6.855
464,6.880
465,6.880
466,6.880
467,6.885
468,6.880
469,6.870
470,6.860
471,6.870
472,6.860
473,6.860
474,6.860
475,6.870
476,6.870
477,6.870
478,6.860
479,6.855
480,6.855
481,6.860
482,6.860
483,6.855
484,6.860
485,6.860
486,6.855
487,6.860
488,6.860
489,6.870
490,6.830
491,6.855
492,6.860
493,6.870
494,6.860
495,6.860
496,6.855
497,6.855
498,6.860
499,6.855
500,6.855
501,6.855
502,6.860
503,6.870
504,6.855
505,6.855
506,6.830
507,6.855
508,6.855
509,6.860
510,6.860
511,6.860
512,6.880
513,6.870
514,6.870
515,6.870
516,6.860
517,6.870
518,6.870
519,6.880
520,6.870
521,6.880
522,6.860
523,6.870
524,6.855
525,6.860
526,6.870
527,6.860
528,6.855
529,6.860
530,6.870
531,6.860
532,6.870
533,6.860
534,6.860
535,6.855
536,6.855
537,6.860
538,6.855
539,6.870
540,6.870
541,6.870
542,6.860
543,6.870
544,6.855
545,6.855
546,6.870
547,6.855
548,6.880
549,6.830
550,6.860
551,6.855
552,6.855
553,6.860
554,6.855
555,6.860
556,6.855
557,6.870
558,6.860
559,6.860
560,6.855
561,6.860
562,6.860
563,6.870
564,6.870
565,6.845
566,6.880
567,6.880
568,6.860
569,6.880
570,6.870
571,6.880
572,6.870
573,6.880
574,6.880
575,6.880
576,6.870
577,6.880
578,6.880
579,6.870
580,6.870
581,6.860
582,6.880
583,6.870
584,6.880
585,6.880
586,6.870
587,6.880
588,6.880
589,6.870
590,6.880
591,6.880
592,6.835
593,6.880
594,6.885
595,6.885
596,6.880
597,6.880
598,6.880
599,6.880
600,6.880
601,6.895
602,6.895
603,6.930
604,6.895
605,6.905
606,6.885
607,6.895
608,6.855
609,6.885
610,6.895
611,6.905
612,6.895
613,6.915
614,6.915
615,6.915
616,6.905
617,6.895
618,6.915
619,6.915
620,6.905
621,6.905
622,6.915
623,6.920
624,6.885
625,6.905
626,6.905
627,6.915
628,6.920
629,6.930
630,6.940
631,6.930
632,6.945
633,6.955
634,6.955
635,6.955
636,6.955
637,6.945
638,6.945
639,6.945
640,6.930
641,6.945
642,6.945
643,6.945
644,6.940
645,6.945
646,6.940
647,6.940
648,6.930
649,6.920
650,6.920
651,6.885
652,6.920
653,6.930
654,6.920
655,6.930
656,6.930
657,6.940
658,6.930
659,6.945
660,6.945
661,6.945
662,6.945
663,6.955
664,6.965
665,6.965
666,6.970
667,6.955
668,7.005
669,7.055
670,7.160
671,7.320
672,7.465
673,7.700
674,7.855
675,7.885
676,7.835
677,7.770
678,7.575
679,7.190
680,6.745
681,6.640
682,6.720
683,6.770
684,6.830
685,6.855
686,6.885
687,6.930
688,6.945
689,6.970
690,6.965
691,6.980
692,6.990
693,6.990
694,7.015
695,6.995
696,6.995
697,6.995
698,6.990
699,7.015
700,7.015
701,7.015
702,7.015
703,6.995
704,7.005
705,7.015
706,7.015
707,7.015
708,7.015
709,7.015
710,7.065
711,7.030
712,7.025
713,7.025
714,7.025
715,7.050
716,7.040
717,7.050
718,7.050
719,7.055
720,7.040
721,7.055
722,7.055
723,7.065
724,7.075
725,7.065
726,7.105
727,7.090
728,7.100
729,7.100
730,7.115
731,7.105
732,7.115
733,7.115
734,7.125
735,7.140
736,7.150
737,7.160
738,7.165
739,7.185
740,7.175
741,7.185
742,7.190
743,7.200
744,7.210
745,7.200
746,7.220
747,7.210
748,7.220
749,7.220
750,7.220
751,7.220
752,7.210
753,7.235
754,7.200
755,7.190
756,7.175
757,7.160
758,7.150
759,7.125
760,7.105
761,7.090
762,7.065
763,7.040
764,7.030
765,7.015
766,6.990
767,6.965
768,6.945
769,6.885
770,6.915
771,6.885
772,6.895
773,6.885
774,6.895
775,6.885
776,6.885
777,6.895
778,6.915
779,6.915
780,6.915
781,6.930
782,6.930
783,6.930
784,6.965
785,6.945
786,6.965
787,6.955
788,6.965
789,6.965
790,6.965
791,6.965
792,6.970
793,6.970
794,6.970
795,6.970
796,6.980
797,6.980
798,6.970
799,6.970
800,6.980
801,6.970
802,6.980
803,6.990
804,6.990
805,6.970
806,6.970
807,6.970
808,6.970
809,6.970
810,6.970
811,6.965
812,7.015
813,6.980
814,6.970
815,6.970
816,6.970
817,6.955
818,6.965
819,6.965
820,6.965
821,6.955
822,6.955
823,6.940
824,6.965
825,6.945
826,6.945
827,6.955
828,6.905
829,6.945
830,6.945
831,6.940
832,6.930
833,6.930
834,6.940
835,6.930
836,6.930
837,6.940
838,6.930
839,6.920
840,6.930
841,6.930
842,6.915
843,6.920
844,6.905
845,6.915
846,6.915
847,6.915
848,6.920
849,6.915
850,6.905
851,6.915
852,6.915
853,6.915
854,6.915
855,6.895
856,6.895
857,6.895
858,6.895
859,6.905
860,6.885
861,6.895
862,6.895
863,6.885
864,6.885
865,6.915
866,6.915
867,6.895
868,6.885
869,6.895
870,6.895
871,6.860
872,6.885
873,6.885
874,6.885
875,6.885
876,6.885
877,6.885
878,6.885
879,6.885
880,6.880
881,6.885
882,6.885
883,6.885
884,6.880
885,6.885
886,6.885
887,6.860
888,6.880
889,6.880
890,6.860
891,6.885
892,6.885
893,6.885
894,6.885
895,6.880
896,6.880
897,6.880
898,6.880
899,6.870
900,6.880
901,6.880
902,6.885
903,6.870
904,6.880
905,6.880
906,6.880
907,6.880
908,6.880
909,6.870
910,6.880
911,6.880
912,6.880
913,6.885
914,6.835
915,6.870
916,6.860
917,6.880
918,6.880
919,6.860
920,6.880
921,6.880
922,6.880
923,6.880
924,6.880
925,6.915
926,6.880
927,6.880
928,6.880
929,6.870
930,6.835
931,6.880
932,6.880
933,6.880
934,6.885
935,6.895
936,6.905
937,6.915
938,6.915
939,6.915
940,6.920
941,6.915
942,6.920
943,6.930
944,6.945
945,6.940
946,6.920
947,6.945
948,6.945
949,6.940
950,6.920
951,6.920
952,6.905
953,6.915
954,6.885
955,6.885
956,6.885
957,6.880
958,6.885
959,6.880
960,6.870
961,6.870
962,6.855
963,6.880
964,6.880
965,6.880
966,6.880
967,6.885
968,6.880
969,6.885
970,6.895
971,6.885
972,6.895
973,6.870
974,6.895
975,6.905
976,6.905
977,6.930
978,6.965
979,7.100
980,7.285
981,7.480
982,7.700
983,7.830
984,7.830
985,7.830
986,7.785
987,7.640
988,7.235
989,6.685
990,6.555
991,6.650
992,6.710
993,6.775
994,6.800
995,6.835
996,6.860
997,6.895
998,6.895
999,6.915
1000,6.930
1001,6.940
1002,6.930
1003,6.920
1004,6.945
1005,6.920
1006,6.930
1007,6.940
1008,6.945
1009,6.930
1010,6.945
1011,6.940
1012,6.945
1013,6.945
1014,6.955
1015,6.955
1016,6.940
1017,6.955
1018,6.955
1019,6.955
1020,6.965
1021,6.955
1022,6.965
1023,6.965
1024,6.955
1025,6.970
1026,6.965
1027,6.980
1028,6.970
1029,6.970
1030,6.970
1031,6.970
1032,7.015
1033,6.995
1034,6.990
1035,6.990
1036,6.990
1037,6.995
1038,7.005
1039,7.015
1040,7.015
1041,7.030
1042,7.030
1043,7.040
1044,7.040
1045,7.065
1046,7.065
1047,7.065
1048,7.105
1049,7.100
1050,7.105
1051,7.100
1052,7.105
1053,7.105
1054,7.115
1055,7.125
1056,7.125
1057,7.135
1058,7.125
1059,7.135
1060,7.125
1061,7.125
1062,7.125
1063,7.115
1064,7.115
1065,7.100
1066,7.090
1067,7.065
1068,7.050
1069,7.030
1070,7.025
1071,6.995
1072,6.970
1073,6.955
1074,6.955
1075,6.895
1076,6.930
1077,6.915
1078,6.895
1079,6.885
1080,6.880
1081,6.880
1082,6.860
1083,6.870
1084,6.880
1085,6.885
1086,6.915
1087,6.885
1088,6.885
1089,6.895
1090,6.915
1091,6.880
1092,6.905
1093,6.915
1094,6.920
1095,6.915
1096,6.920
1097,6.920
1098,6.930
1099,6.920
1100,6.920
1101,6.930
1102,6.920
1103,6.930
1104,6.930
1105,6.920
1106,6.930
1107,6.920
1108,6.930
1109,6.915
1110,6.920
1111,6.930
1112,6.930
1113,6.915
1114,6.930
1115,6.930
1116,6.905
1117,6.930
1118,6.905
1119,6.920
1120,6.905
1121,6.915
1122,6.905
1123,6.915
1124,6.895
1125,6.895
1126,6.885
1127,6.895
1128,6.895
1129,6.880
1130,6.880
1131,6.880
1132,6.880
1133,6.880
1134,6.845
1135,6.870
1136,6.855
1137,6.860
1138,6.860
1139,6.855
1140,6.860
1141,6.860
1142,6.860
1143,6.860
1144,6.855
1145,6.845
1146,6.855
1147,6.855
1148,6.855
1149,6.860
1150,6.830
1151,6.855
1152,6.845
1153,6.845
1154,6.845
1155,6.845
1156,6.845
1157,6.845
1158,6.835
1159,6.845
1160,6.855
1161,6.835
1162,6.845
1163,6.845
1164,6.845
1165,6.835
1166,6.845
1167,6.845
1168,6.845
1169,6.835
1170,6.845
1171,6.845
1172,6.835
1173,6.845
1174,6.855
1175,6.845
1176,6.860
1177,6.830
1178,6.855
1179,6.835
1180,6.845
1181,6.845
1182,6.830
1183,6.835
1184,6.845
1185,6.845
1186,6.835
1187,6.855
1188,6.855
1189,6.845
1190,6.835
1191,6.835
1192,6.845
1193,6.820
1194,6.845
1195,6.855
1196,6.835
1197,6.845
1198,6.845
1199,6.855
1200,6.845
1201,6.845
1202,6.845
1203,6.855
1204,6.845
1205,6.855
1206,6.845
1207,6.845
1208,6.845
1209,6.810
1210,6.835
1211,6.835
1212,6.845
1213,6.845
1214,6.845
1215,6.835
1216,6.845
1217,6.845
1218,6.845
1219,6.855
1220,6.845
1221,6.845
1222,6.835
1223,6.845
1224,6.855
1225,6.835
1226,6.845
1227,6.855
1228,6.845
1229,6.855
1230,6.855
1231,6.845
1232,6.845
1233,6.845
1234,6.855
1235,6.855
1236,6.810
1237,6.855
1238,6.845
1239,6.855
1240,6.855
1241,6.835
1242,6.855
1243,6.855
1244,6.855
1245,6.845
1246,6.855
1247,6.870
1248,6.845
1249,6.855
1250,6.855
1251,6.855
1252,6.820
1253,6.860
1254,6.860
1255,6.855
1256,6.855
1257,6.860
1258,6.860
1259,6.855
1260,6.855
1261,6.860
1262,6.855
1263,6.855
1264,6.855
1265,6.855
1266,6.860
1267,6.860
1268,6.845
1269,6.860
1270,6.860
1271,6.860
1272,6.860
1273,6.860
1274,6.860
1275,6.870
1276,6.870
1277,6.880
1278,6.885
1279,6.880
1280,6.880
1281,6.880
1282,6.870
1283,6.870
1284,6.860
1285,6.870
1286,6.880
1287,6.880
1288,6.880
1289,6.870
1290,6.880
1291,6.870
1292,6.880
1293,6.870
1294,6.885
1295,6.835
1296,6.885
1297,6.880
1298,6.885
1299,6.885
1300,6.880
1301,6.880
1302,6.885
1303,6.870
1304,6.880
1305,6.880
1306,6.880
1307,6.915
1308,6.885
1309,6.895
1310,6.885
1311,6.855
1312,6.895
1313,6.885
1314,6.885
1315,6.885
1316,6.885
1317,6.885
1318,6.885
1319,6.885
1320,6.880
1321,6.895
1322,6.895
1323,6.895
1324,6.895
1325,6.905
1326,6.895
1327,6.885
1328,6.895
1329,6.885
1330,6.895
1331,6.895
1332,6.895
1333,6.915
1334,6.915
1335,6.915
1336,6.905
1337,6.905
1338,6.880
1339,6.915
1340,6.915
1341,6.920
1342,6.920
1343,6.915
1344,6.915
1345,6.915
1346,6.930
1347,6.930
1348,6.930
1349,6.955
1350,6.945
1351,6.940
1352,6.945
1353,6.955
1354,6.915
1355,6.940
1356,6.965
1357,6.970
1358,6.990
1359,6.990
1360,6.970
1361,6.970
1362,6.970
1363,6.990
1364,6.970
1365,6.965
1366,6.955
1367,6.955
1368,6.965
1369,6.930
1370,6.915
1371,6.920
1372,6.930
1373,6.930
1374,6.915
1375,6.915
1376,6.915
1377,6.915
1378,6.920
1379,6.920
1380,6.930
1381,6.920
1382,6.930
1383,6.920
1384,6.920
1385,6.930
1386,6.930
1387,6.940
1388,6.945
1389,6.955
1390,6.945
1391,6.970
1392,7.025
1393,7.185
1394,7.360
1395,7.540
1396,7.745
1397,7.880
1398,7.845
1399,7.830
1400,7.770
1401,7.565
1402,7.090
1403,6.660
1404,6.640
1405,6.735
1406,6.785
1407,6.835
1408,6.870
1409,6.885
1410,6.905
1411,6.920
1412,6.945
1413,6.930
1414,6.970
1415,6.970
1416,6.965
1417,6.965
1418,6.965
1419,6.970
1420,6.970
1421,6.970
1422,6.970
1423,6.970
1424,6.970
1425,6.970
1426,6.990
1427,6.990
1428,6.980
1429,6.970
1430,6.970
1431,6.970
1432,6.990
1433,6.980
1434,6.990
1435,6.990
1436,6.995
1437,6.990
1438,6.990
1439,6.990
1440,6.995
1441,7.015
1442,7.015
1443,7.015
1444,7.015
1445,7.025
1446,7.025
1447,7.025
1448,7.025
1449,7.030
1450,7.030
1451,7.050
1452,7.050
1453,7.065
1454,7.055
1455,7.055
1456,7.100
1457,7.080
1458,7.080
1459,7.090
1460,7.100
1461,7.115
1462,7.105
1463,7.115
1464,7.125
1465,7.125
1466,7.135
1467,7.150
1468,7.150
1469,7.160
1470,7.150
1471,7.160
1472,7.185
1473,7.150
1474,7.140
1475,7.135
1476,7.135
1477,7.135
1478,7.125
1479,7.125
1480,7.115
1481,7.100
1482,7.075
1483,7.075
1484,7.050
1485,7.030
1486,6.995
1487,6.970
1488,6.965
1489,6.955
1490,6.940
1491,6.920
1492,6.920
1493,6.915
1494,6.885
1495,6.885
1496,6.895
1497,6.885
1498,6.895
1499,6.860
1500,6.905
1501,6.905
1502,6.905
1503,6.920
1504,6.915
1505,6.930
1506,6.945
1507,6.955
1508,6.955
1509,6.965
1510,6.995
1511,6.965
1512,6.965
1513,6.965
1514,6.970
1515,6.940
1516,6.980
1517,6.990
1518,6.990
1519,6.980
1520,6.995
1521,6.990
1522,6.990
1523,6.990
1524,6.980
1525,6.970
1526,6.990
1527,6.970
1528,6.970
1529,6.965
1530,6.970
1531,6.940
1532,6.965
1533,6.955
1534,6.955
1535,6.945
1536,6.965
1537,6.945
1538,6.945
1539,6.940
1540,6.945
1541,6.930
1542,6.930
1543,6.930
1544,6.930
1545,6.930
1546,6.920
1547,6.915
1548,6.905
1549,6.915
1550,6.905
1551,6.915
1552,6.905
1553,6.915
1554,6.915
1555,6.915
1556,6.895
1557,6.895
1558,6.860
1559,6.895
1560,6.885
1561,6.895
1562,6.915
1563,6.880
1564,6.880
1565,6.880
1566,6.885
1567,6.885
1568,6.895
1569,6.895
1570,6.885
1571,6.880
1572,6.880
1573,6.880
1574,6.845
1575,6.870
1576,6.880
1577,6.870
1578,6.880
1579,6.880
1580,6.870
1581,6.870
1582,6.870
1583,6.860
1584,6.880
1585,6.860
1586,6.860
1587,6.860
1588,6.870
1589,6.880
1590,6.860
1591,6.860
1592,6.880
1593,6.880
1594,6.860
1595,6.860
1596,6.860
1597,6.860
1598,6.870
1599,6.870
1600,6.880
1601,6.860
1602,6.860
1603,6.860
1604,6.860
1605,6.860
1606,6.855
1607,6.860
1608,6.855
1609,6.855
1610,6.860
1611,6.860
1612,6.855
1613,6.870
1614,6.860
1615,6.860
1616,6.860
1617,6.820
1618,6.860
1619,6.855
1620,6.855
1621,6.860
1622,6.855
1623,6.855
1624,6.860
1625,6.855
1626,6.855
1627,6.855
1628,6.855
1629,6.845
1630,6.855
1631,6.855
1632,6.860
1633,6.835
1634,6.855
1635,6.860
1636,6.860
1637,6.860
1638,6.860
1639,6.855
1640,6.855
1641,6.855
1642,6.860
1643,6.860
1644,6.845
1645,6.860
1646,6.855
1647,6.860
1648,6.860
1649,6.855
1650,6.860
1651,6.860
1652,6.855
1653,6.860
1654,6.860
1655,6.855
1656,6.855
1657,6.860
1658,6.855
1659,6.870
1660,6.835
1661,6.860
1662,6.860
1663,6.860
1664,6.860
1665,6.855
1666,6.860
1667,6.855
1668,6.855
1669,6.860
1670,6.855
1671,6.885
1672,6.860
1673,6.870
1674,6.860
1675,6.860
1676,6.820
1677,6.860
1678,6.860
1679,6.870
1680,6.860
1681,6.860
1682,6.860
1683,6.870
1684,6.860
1685,6.860
1686,6.860
1687,6.855
1688,6.845
1689,6.860
1690,6.855
1691,6.870
1692,6.835
1693,6.855
1694,6.860
1695,6.860
1696,6.860
1697,6.860
1698,6.855
1699,6.870
1700,6.860
1701,6.870
1702,6.880
1703,6.870
1704,6.860
1705,6.860
1706,6.860
1707,6.860
1708,6.860
1709,6.860
1710,6.880
1711,6.870
1712,6.870
1713,6.870
1714,6.870
1715,6.870
1716,6.870
1717,6.880
1718,6.880
1719,6.845
1720,6.880
1721,6.880
1722,6.885
1723,6.880
1724,6.880
1725,6.880
1726,6.885
1727,6.885
1728,6.880
1729,6.885
1730,6.895
1731,6.885
1732,6.885
1733,6.885
1734,6.895
1735,6.870
1736,6.885
1737,6.905
1738,6.915
1739,6.915
1740,6.905
1741,6.915
1742,6.930
1743,6.930
1744,6.915
1745,6.930
1746,6.945
1747,6.955
1748,6.955
1749,6.955
1750,6.955
1751,6.930
1752,6.965
1753,6.970
1754,6.955
1755,6.955
1756,6.940
1757,6.930
1758,6.920
1759,6.915
1760,6.915
1761,6.905
1762,6.905
1763,6.915
1764,6.905
1765,6.895
1766,6.905
1767,6.915
1768,6.905
1769,6.905
1770,6.915
1771,6.915
1772,6.920
1773,6.930
1774,6.930
1775,6.940
1776,6.930
1777,6.955
1778,6.915
1779,6.955
1780,6.970
1781,6.995
1782,7.075
1783,7.190
1784,7.355
1785,7.525
1786,7.710
1787,7.845
1788,7.845
1789,7.800
1790,7.735
1791,7.580
1792,7.185
1793,6.750
1794,6.600
1795,6.700
1796,6.750
1797,6.800
1798,6.845
1799,6.870
1800,6.915
1801,6.930
1802,6.955
1803,6.955
1804,6.970
1805,6.970
1806,6.970
1807,6.970
1808,6.980
1809,6.970
1810,6.970
1811,6.980
1812,6.995
1813,6.990
1814,6.990
1815,6.990
1816,6.990
1817,6.990
1818,6.995
1819,6.995
1820,6.990
1821,7.030
1822,6.995
1823,7.005
1824,7.005
1825,6.995
1826,7.015
1827,7.025
1828,7.025
1829,7.030
1830,7.025
1831,7.015
1832,7.025
1833,7.040
1834,7.030
1835,7.040
1836,7.040
1837,7.080
1838,7.055
1839,7.075
1840,7.065
1841,7.065
1842,7.080
1843,7.080
1844,7.080
1845,7.090
1846,7.100
1847,7.100
1848,7.115
1849,7.115
1850,7.115
1851,7.125
1852,7.115
1853,7.165
1854,7.135
1855,7.150
1856,7.150
1857,7.160
1858,7.165
1859,7.175
1860,7.175
1861,7.175
1862,7.165
1863,7.165
1864,7.165
1865,7.160
1866,7.165
1867,7.160
1868,7.125
1869,7.135
1870,7.135
1871,7.100
1872,7.090
1873,7.065
1874,7.040
1875,7.030
1876,7.015
1877,6.980
1878,6.970
1879,6.945
1880,6.885
1881,6.915
1882,6.895
1883,6.885
1884,6.880
1885,6.860
1886,6.860
1887,6.880
1888,6.880
1889,6.880
1890,6.895
1891,6.895
1892,6.895
1893,6.915
1894,6.920
1895,6.930
1896,6.895
1897,6.930
1898,6.930
1899,6.945
1900,6.955
1901,6.965
1902,6.965
1903,6.970
1904,6.965
1905,6.965
1906,6.965
1907,6.955
1908,6.970
1909,6.970
1910,6.965
1911,6.970
1912,6.955
1913,6.970
1914,6.965
1915,6.970
1916,6.990
1917,6.970
1918,6.965
1919,6.970
1920,6.970
1921,6.970
1922,6.970
1923,6.970
1924,6.965
1925,6.965
1926,6.965
1927,6.955
1928,6.940
1929,6.965
1930,6.965
1931,6.945
1932,6.955
1933,6.945
1934,6.945
1935,6.930
1936,6.930
1937,6.945
1938,6.930
1939,6.915
1940,6.930
1941,6.940
1942,6.930
1943,6.920
1944,6.905
1945,6.915
1946,6.915
1947,6.915
1948,6.905
1949,6.905
1950,6.895
1951,6.915
1952,6.895
1953,6.895
1954,6.915
1955,6.870
1956,6.885
1957,6.895
1958,6.895
1959,6.885
1960,6.885
1961,6.885
1962,6.880
1963,6.880
1964,6.880
1965,6.885
1966,6.880
1967,6.885
1968,6.895
1969,6.885
1970,6.880
1971,6.870
1972,6.880
1973,6.880
1974,6.880
1975,6.885
1976,6.860
1977,6.870
1978,6.860
1979,6.870
1980,6.870
1981,6.880
1982,6.845
1983,6.870
1984,6.860
1985,6.880
1986,6.880
1987,6.860
1988,6.870
1989,6.880
1990,6.870
1991,6.870
1992,6.880
1993,6.915
1994,6.860
1995,6.870
1996,6.860
1997,6.880
1998,6.835
1999,6.870
2000,6.855
2001,6.860
2002,6.860
2003,6.860
2004,6.855
2005,6.860
2006,6.860
2007,6.860
2008,6.855
2009,6.855
2010,6.860
2011,6.855
2012,6.855
2013,6.860
2014,6.835
2015,6.855
2016,6.845
2017,6.855
2018,6.855
2019,6.855
2020,6.845
2021,6.845
2022,6.855
2023,6.855
2024,6.855
2025,6.845
2026,6.855
2027,6.855
2028,6.835
2029,6.845
2030,6.845
2031,6.855
2032,6.855
2033,6.855
2034,6.855
2035,6.855
2036,6.845
2037,6.855
2038,6.845
2039,6.845
2040,6.860
2041,6.820
2042,6.835
2043,6.855
2044,6.855
2045,6.855
2046,6.845
2047,6.845
2048,6.845
2049,6.855
2050,6.855
2051,6.855
2052,6.860
2053,6.855
2054,6.855
2055,6.845
2056,6.855
2057,6.830
2058,6.860
2059,6.860
2060,6.860
2061,6.860
2062,6.855
2063,6.860
2064,6.855
2065,6.860
2066,6.870
2067,6.870
2068,6.855
2069,6.860
2070,6.870
2071,6.860
2072,6.855
2073,6.855
2074,6.870
2075,6.870
2076,6.870
2077,6.860
2078,6.860
2079,6.870
2080,6.855
2081,6.870
2082,6.860
2083,6.870
2084,6.860
2085,6.860
2086,6.860
2087,6.870
2088,6.870
2089,6.870
2090,6.860
2091,6.870
2092,6.860
2093,6.870
2094,6.885
2095,6.880
2096,6.885
2097,6.880
2098,6.880
2099,6.870
2100,6.835
2101,6.870
2102,6.880
2103,6.880
2104,6.885
2105,6.880
2106,6.880
2107,6.880
2108,6.880
2109,6.880
2110,6.885
2111,6.880
2112,6.880
2113,6.885
2114,6.885
2115,6.895
2116,6.855
2117,6.885
2118,6.880
2119,6.885
2120,6.885
2121,6.885
2122,6.885
2123,6.895
2124,6.885
2125,6.895
2126,6.915
2127,6.905
2128,6.885
2129,6.905
2130,6.915
2131,6.915
2132,6.905
2133,6.930
2134,6.945
2135,6.930
2136,6.940
2137,6.945
2138,6.930
2139,6.930
2140,6.945
2141,6.945
2142,6.940
2143,6.895
2144,6.920
2145,6.915
2146,6.920
2147,6.930
2148,6.915
2149,6.915
2150,6.915
2151,6.915
2152,6.885
2153,6.895
2154,6.920
2155,6.885
2156,6.885
2157,6.885
2158,6.905
2159,6.870
2160,6.895
2161,6.915
2162,6.915
2163,6.915
2164,6.905
2165,6.905
2166,6.915
2167,6.920
2168,6.930
2169,6.920
2170,6.920
2171,6.930
2172,6.920
2173,6.965
2174,7.050
2175,7.250
2176,7.415
2177,7.605
2178,7.775
2179,7.845
2180,7.830
2181,7.810
2182,7.745
2183,7.550
2184,7.075
2185,6.635
2186,6.625
2187,6.720
2188,6.775
2189,6.795
2190,6.845
2191,6.860
2192,6.895
2193,6.915
2194,6.920
2195,6.940
2196,6.955
2197,6.955
2198,6.955
2199,6.955
2200,6.965
2201,6.965
2202,6.920
2203,6.955
2204,6.965
2205,6.955
2206,6.965
2207,6.955
2208,6.955
2209,6.965
2210,6.955
2211,6.965
2212,6.965
2213,6.965
2214,6.965
2215,6.970
2216,6.965
2217,6.970
2218,6.945
2219,6.970
2220,6.970
2221,6.970
2222,6.970
2223,6.990
2224,6.980
2225,6.990
2226,6.995
2227,7.005
2228,6.990
2229,6.995
2230,7.015
2231,7.015
2232,7.015
2233,7.015
2234,7.025
2235,7.030
2236,7.030
2237,7.030
2238,7.040
2239,7.050
2240,7.050
2241,7.050
2242,7.055
2243,7.075
2244,7.065
2245,7.100
2246,7.090
2247,7.090
2248,7.100
2249,7.090
2250,7.105
2251,7.115
2252,7.115
2253,7.125
2254,7.125
2255,7.125
2256,7.125
2257,7.115
2258,7.125
2259,7.115
2260,7.100
2261,7.125
2262,7.090
2263,7.080
2264,7.065
2265,7.050
2266,7.040
2267,7.025
2268,6.995
2269,6.980
2270,6.965
2271,6.945
2272,6.920
2273,6.915
2274,6.895
2275,6.885
2276,6.880
2277,6.845
2278,6.870
2279,6.870
2280,6.860
2281,6.860
2282,6.860
2283,6.885
2284,6.880
2285,6.885
2286,6.915
2287,6.915
2288,6.915
2289,6.920
2290,6.930
2291,6.945
2292,6.940
2293,6.940
2294,6.955
2295,6.955
2296,6.965
2297,6.955
2298,6.955
2299,6.965
2300,6.965
2301,6.970
2302,6.965
2303,6.970
2304,6.930
2305,6.970
2306,6.965
2307,6.970
2308,6.970
2309,6.945
2310,6.965
2311,6.970
2312,6.965
2313,6.965
2314,6.965
2315,6.995
2316,6.965
2317,6.965
2318,6.965
2319,6.955
2320,6.930
2321,6.945
2322,6.945
2323,6.945
2324,6.945
2325,6.945
2326,6.945
2327,6.930
2328,6.930
2329,6.940
2330,6.940
2331,6.920
2332,6.920
2333,6.915
2334,6.920
2335,6.920
2336,6.885
2337,6.915
2338,6.905
2339,6.920
2340,6.895
2341,6.915
2342,6.895
2343,6.915
2344,6.885
2345,6.895
2346,6.915
2347,6.885
2348,6.880
2349,6.885
2350,6.885
2351,6.885
2352,6.880
2353,6.885
2354,6.885
2355,6.885
2356,6.880
2357,6.880
2358,6.880
2359,6.880
2360,6.880
2361,6.880
2362,6.885
2363,6.835
2364,6.870
2365,6.880
2366,6.880
2367,6.880
2368,6.860
2369,6.880
2370,6.870
2371,6.870
2372,6.870
2373,6.885
2374,6.880
2375,6.880
2376,6.880
2377,6.880
2378,6.880
2379,6.855
2380,6.870
2381,6.880
2382,6.880
2383,6.880
2384,6.880
2385,6.870
2386,6.880
2387,6.880
2388,6.880
2389,6.870
2390,6.860
2391,6.860
2392,6.860
2393,6.860
2394,6.880
2395,6.870
2396,6.870
2397,6.870
2398,6.860
2399,6.870
2400,6.880
2401,6.860
2402,6.860
2403,6.860
2404,6.860
2405,6.880
2406,6.860
2407,6.870
2408,6.880
2409,6.880
2410,6.860
2411,6.855
2412,6.860
2413,6.860
2414,6.870
2415,6.870
2416,6.860
2417,6.860
2418,6.855
2419,6.870
2420,6.855
2421,6.880
2422,6.830
2423,6.870
2424,6.855
2425,6.870
2426,6.860
2427,6.855
2428,6.855
2429,6.870
2430,6.870
2431,6.870
2432,6.880
2433,6.870
2434,6.860
2435,6.870
2436,6.860
2437,6.870
2438,6.845
2439,6.880
2440,6.880
2441,6.880
2442,6.880
2443,6.885
2444,6.870
2445,6.880
2446,6.870
2447,6.885
2448,6.880
2449,6.870
2450,6.880
2451,6.870
2452,6.855
2453,6.880
2454,6.860
2455,6.870
2456,6.870
2457,6.880
2458,6.880
2459,6.880
2460,6.870
2461,6.880
2462,6.870
2463,6.870
2464,6.870
2465,6.845
2466,6.870
2467,6.880
2468,6.880
2469,6.870
2470,6.860
2471,6.870
2472,6.880
2473,6.880
2474,6.880
2475,6.885
2476,6.915
2477,6.885
2478,6.880
2479,6.870
2480,6.880
2481,6.835
2482,6.885
2483,6.885
2484,6.885
2485,6.885
2486,6.885
2487,6.885
2488,6.885
2489,6.885
2490,6.885
2491,6.895
2492,6.885
2493,6.885
2494,6.895
2495,6.895
2496,6.885
2497,6.870
2498,6.895
2499,6.905
2500,6.895
2501,6.895
2502,6.915
2503,6.915
2504,6.905
2505,6.920
2506,6.930
2507,6.920
2508,6.905
2509,6.920
2510,6.930
2511,6.940
2512,6.965
2513,6.945
2514,6.945
2515,6.940
2516,6.920
2517,6.930
2518,6.945
2519,6.940
2520,6.945
2521,6.945
2522,6.940
2523,6.945
2524,6.895
2525,6.920
2526,6.915
2527,6.915
2528,6.915
2529,6.905
2530,6.920
2531,6.920
2532,6.930
2533,6.920
2534,6.920
2535,6.915
2536,6.930
2537,6.940
2538,6.930
2539,6.940
2540,6.905
2541,6.945
2542,6.945
2543,6.945
2544,6.965
2545,6.970
2546,6.995
2547,7.050
2548,7.165
2549,7.335
2550,7.515
2551,7.700
2552,7.835
2553,7.845
2554,7.830
2555,7.745
2556,7.590
2557,7.220
2558,6.745
2559,6.640
2560,6.710
2561,6.775
2562,6.810
2563,6.845
2564,6.880
2565,6.920
2566,6.945
2567,6.945
2568,6.970
2569,6.970
2570,6.980
2571,6.990
2572,6.965
2573,6.980
2574,6.990
2575,6.990
2576,6.990
2577,6.990
2578,6.995
2579,6.995
2580,6.990
2581,7.005
2582,6.995
2583,7.030
2584,6.995
2585,6.995
2586,6.995
2587,7.015
2588,7.030
2589,7.015
2590,7.015
2591,7.025
2592,7.015
2593,7.015
2594,7.030
2595,7.030
2596,7.050
2597,7.050
2598,7.050
2599,7.075
2600,7.040
2601,7.050
2602,7.055
2603,7.055
2604,7.065
2605,7.080
2606,7.080
2607,7.075
2608,7.075
2609,7.080
2610,7.090
2611,7.090
2612,7.105
2613,7.115
2614,7.125
2615,7.140
2616,7.135
2617,7.150
2618,7.150
2619,7.150
2620,7.150
2621,7.165
2622,7.175
2623,7.185
2624,7.185
2625,7.185
2626,7.225
2627,7.190
2628,7.190
2629,7.190
2630,7.185
2631,7.185
2632,7.165
2633,7.185
2634,7.160
2635,7.140
2636,7.125
2637,7.115
2638,7.100
2639,7.080
2640,7.065
2641,7.050
2642,7.055
2643,6.995
2644,6.980
2645,6.955
2646,6.945
2647,6.930
2648,6.920
2649,6.915
2650,6.915
2651,6.905
2652,6.885
2653,6.885
2654,6.895
2655,6.915
2656,6.915
2657,6.930
2658,6.915
2659,6.940
2660,6.945
2661,6.955
2662,6.965
2663,6.970
2664,6.965
2665,6.965
2666,6.970
2667,6.990
2668,6.990
2669,6.990
2670,6.990
2671,6.990
2672,6.990
2673,6.980
2674,6.995
2675,6.995
2676,6.990
2677,6.990
2678,6.990
2679,7.005
2680,6.995
2681,6.990
2682,6.990
2683,6.990
2684,6.980
2685,7.025
2686,6.995
2687,6.995
2688,6.995
2689,6.970
2690,6.995
2691,6.970
2692,6.980
2693,6.980
2694,6.990
2695,6.965
2696,6.970
2697,6.965
2698,6.965
2699,6.965
2700,6.970
2701,6.930
2702,6.945
2703,6.945
2704,6.945
2705,6.955
2706,6.955
2707,6.945
2708,6.945
2709,6.945
2710,6.940
2711,6.940
2712,6.930
2713,6.930
2714,6.945
2715,6.940
2716,6.945
2717,6.930
2718,6.940
2719,6.930
2720,6.930
2721,6.940
2722,6.920
2723,6.920
2724,6.920
2725,6.920
2726,6.930
2727,6.930
2728,6.915
2729,6.905
2730,6.920
2731,6.920
2732,6.930
2733,6.920
2734,6.920
2735,6.920
2736,6.915
2737,6.920
2738,6.930
2739,6.920
2740,6.905
2741,6.915
2742,6.915
2743,6.920
2744,6.885
2745,6.930
2746,6.915
2747,6.915
2748,6.915
2749,6.895
2750,6.905
2751,6.920
2752,6.930
2753,6.915
2754,6.920
2755,6.915
2756,6.915
2757,6.915
2758,6.915
2759,6.915
2760,6.880
2761,6.915
2762,6.915
2763,6.905
2764,6.905
2765,6.905
2766,6.915
2767,6.915
2768,6.915
2769,6.920
2770,6.905
2771,6.915
2772,6.915
2773,6.915
2774,6.915
2775,6.915
2776,6.905
2777,6.915
2778,6.920
2779,6.940
2780,6.930
2781,6.930
2782,6.930
2783,6.930
2784,6.945
2785,6.955
2786,6.965
2787,6.940
2788,6.970
2789,6.965
2790,6.970
2791,6.965
2792,6.965
2793,6.965
2794,6.955
2795,6.940
2796,6.930
2797,6.930
2798,6.945
2799,6.915
2800,6.905
2801,6.895
2802,6.915
2803,6.870
2804,6.885
2805,6.895
2806,6.895
2807,6.905
2808,6.895
2809,6.895
2810,6.885
2811,6.905
2812,6.905
2813,6.915
2814,6.920
2815,6.920
2816,6.930
2817,6.930
2818,6.940
2819,6.920
2820,6.965
2821,6.970
2822,7.025
2823,7.160
2824,7.310
2825,7.505
2826,7.725
2827,7.830
2828,7.830
2829,7.800
2830,7.745
2831,7.565
2832,7.150
2833,6.720
2834,6.615
2835,6.700
2836,6.750
2837,6.795
2838,6.830
2839,6.860
2840,6.915
2841,6.930
2842,6.945
2843,6.955
2844,6.965
2845,6.970
2846,6.940
2847,6.970
2848,6.970
2849,6.970
2850,6.965
2851,6.970
2852,6.980
2853,6.980
2854,6.990
2855,6.970
2856,6.970
2857,6.990
2858,6.990
2859,6.990
2860,6.990
2861,6.995
2862,7.030
2863,6.995
2864,7.015
2865,7.015
2866,7.015
2867,7.015
2868,7.030
2869,7.025
2870,7.030
2871,7.050
2872,7.030
2873,7.050
2874,7.050
2875,7.050
2876,7.050
2877,7.040
2878,7.055
2879,7.065
2880,7.055
2881,7.065
2882,7.055
2883,7.065
2884,7.080
2885,7.080
2886,7.090
2887,7.100
2888,7.100
2889,7.135
2890,7.115
2891,7.125
2892,7.125
2893,7.135
2894,7.160
2895,7.150
2896,7.150
2897,7.160
2898,7.160
2899,7.160
2900,7.185
2901,7.165
2902,7.165
2903,7.175
2904,7.165
2905,7.185
2906,7.160
2907,7.160
2908,7.150
2909,7.125
2910,7.125
2911,7.100
2912,7.100
2913,7.075
2914,7.065
2915,7.050
2916,7.025
2917,7.015
2918,6.990
2919,6.970
2920,6.970
2921,6.920
2922,6.940
2923,6.930
2924,6.945
2925,6.930
2926,6.940
2927,6.940
2928,6.940
2929,6.945
2930,6.945
2931,6.965
2932,6.965
2933,6.965
2934,6.965
2935,6.970
2936,6.980
2937,6.970
2938,6.980
2939,6.990
2940,6.995
2941,6.980
2942,6.980
2943,6.995
2944,6.995
2945,6.995
2946,6.995
2947,6.990
2948,7.030
2949,6.995
2950,7.005
2951,6.995
2952,6.995
2953,6.995
2954,6.990
2955,7.005
2956,6.995
2957,7.005
2958,6.990
2959,7.005
2960,6.995
2961,6.995
2962,6.995
2963,6.990
2964,7.015
2965,6.980
2966,6.990
2967,6.990
2968,6.970
2969,6.980
2970,6.970
2971,6.970
2972,6.970
2973,6.965
2974,6.965
2975,6.965
2976,6.955
2977,6.955
2978,6.955
2979,6.965
2980,6.945
2981,6.965
2982,6.955
2983,6.955
2984,6.965
2985,6.945
2986,6.945
2987,6.945
2988,6.945
2989,6.945
2990,6.955
2991,6.955
2992,6.945
2993,6.940
2994,6.940
2995,6.945
2996,6.940
2997,6.930
2998,6.955
2999,6.955
3000,6.965
3001,6.965
3002,6.970
3003,6.970
3004,6.970
3005,6.965
3006,6.970
3007,6.940
3008,6.970
3009,6.965
3010,6.965
3011,6.965
3012,6.945
3013,6.955
3014,6.965
3015,6.965
3016,6.965
3017,6.945
3018,6.930
3019,6.940
3020,6.930
3021,6.920
3022,6.930
3023,6.880
3024,6.915
3025,6.920
3026,6.920
3027,6.920
3028,6.920
3029,6.930
3030,6.920
3031,6.930
3032,6.945
3033,6.940
3034,6.940
3035,6.940
3036,6.965
3037,6.945
3038,6.955
3039,6.945
3040,6.955
3041,6.955
3042,6.965
3043,7.005
3044,7.080
3045,7.260
3046,7.465
3047,7.665
3048,7.845
3049,7.870
3050,7.885
3051,7.810
3052,7.700
3053,7.355
3054,6.820
3055,6.600
3056,6.675
3057,6.750
3058,6.795
3059,6.835
3060,6.880
3061,6.930
3062,6.945
3063,6.955
3064,6.965
3065,6.990
3066,6.955
3067,6.990
3068,6.980
3069,6.990
3070,6.970
3071,6.990
3072,6.990
3073,6.995
3074,6.990
3075,6.990
3076,6.990
3077,7.005
3078,7.005
3079,7.005
3080,7.015
3081,6.995
3082,7.050
3083,6.995
3084,7.005
3085,7.015
3086,7.005
3087,7.015
3088,7.015
3089,7.025
3090,7.025
3091,7.025
3092,7.015
3093,7.030
3094,7.025
3095,7.050
3096,7.030
3097,7.040
3098,7.055
3099,7.050
3100,7.055
3101,7.055
3102,7.050
3103,7.055
3104,7.065
3105,7.075
3106,7.080
3107,7.090
3108,7.080
3109,7.125
3110,7.100
3111,7.105
3112,7.105
3113,7.105
3114,7.125
3115,7.125
3116,7.135
3117,7.135
3118,7.140
3119,7.140
3120,7.135
3121,7.135
3122,7.135
3123,7.140
3124,7.125
3125,7.165
3126,7.135
3127,7.125
3128,7.115
3129,7.115
3130,7.100
3131,7.090
3132,7.080
3133,7.055
3134,7.040
3135,7.015
3136,7.015
3137,6.995
3138,6.970
3139,6.955
3140,6.955
3141,6.930
3142,6.940
3143,6.920
3144,6.930
3145,6.920
3146,6.930
3147,6.930
3148,6.930
3149,6.920
3150,6.940
3151,6.940
3152,6.940
3153,6.945
3154,6.955
3155,6.965
3156,6.965
3157,6.955
3158,6.965
3159,6.955
3160,6.965
3161,6.970
3162,6.965
3163,6.965
3164,6.955
3165,6.965
3166,6.955
3167,6.970
3168,6.930
3169,6.965
3170,6.965
3171,6.965
3172,6.955
3173,6.955
3174,6.965
3175,6.970
3176,6.965
3177,6.955
3178,6.955
3179,6.945
3180,6.945
3181,6.955
3182,6.965
3183,6.955
3184,6.920
3185,6.945
3186,6.940
3187,6.940
3188,6.930
3189,6.920
3190,6.930
3191,6.920
3192,6.930
3193,6.915
3194,6.905
3195,6.915
3196,6.905
3197,6.915
3198,6.915
3199,6.915
3200,6.885
3201,6.905
3202,6.895
3203,6.915
3204,6.895
3205,6.895
3206,6.895
3207,6.895
3208,6.885
3209,6.885
3210,6.915
3211,6.880
3212,6.885
3213,6.885
3214,6.885
3215,6.885
3216,6.880
3217,6.880
3218,6.880
3219,6.885
3220,6.895
3221,6.885
3222,6.905
3223,6.885
3224,6.880
3225,6.880
3226,6.895
3227,6.860
3228,6.885
3229,6.895
3230,6.885
3231,6.880
3232,6.880
3233,6.880
3234,6.885
3235,6.885
3236,6.885
3237,6.885
3238,6.885
3239,6.885
3240,6.885
3241,6.885
3242,6.885
3243,6.860
3244,6.885
3245,6.880
3246,6.880
3247,6.885
3248,6.880
3249,6.880
3250,6.880
3251,6.885
3252,6.880
3253,6.885
3254,6.880
3255,6.885
3256,6.880
3257,6.880
3258,6.895
3259,6.870
3260,6.880
3261,6.880
3262,6.880
3263,6.880
3264,6.880
3265,6.885
3266,6.880
3267,6.885
3268,6.880
3269,6.885
3270,6.845
3271,6.870
3272,6.885
3273,6.880
3274,6.885
3275,6.870
3276,6.880
3277,6.880
3278,6.880
3279,6.885
3280,6.895
3281,6.905
3282,6.895
3283,6.885
3284,6.885
3285,6.885
3286,6.855
3287,6.880
3288,6.880
3289,6.885
3290,6.880
3291,6.885
3292,6.880
3293,6.885
3294,6.880
3295,6.885
3296,6.880
3297,6.870
3298,6.880
3299,6.885
3300,6.880
3301,6.885
3302,6.880
3303,6.885
3304,6.880
3305,6.880
3306,6.885
3307,6.880
3308,6.880
3309,6.885
3310,6.885
3311,6.885
3312,6.885
3313,6.895
3314,6.880
3315,6.885
3316,6.880
3317,6.880
3318,6.880
3319,6.885
3320,6.885
3321,6.885
3322,6.885
3323,6.885
3324,6.895
3325,6.885
3326,6.895
3327,6.915
3328,6.895
3329,6.860
3330,6.895
3331,6.895
3332,6.885
3333,6.885
3334,6.885
3335,6.885
3336,6.895
3337,6.895
3338,6.895
3339,6.905
3340,6.880
3341,6.885
3342,6.885
3343,6.895
3344,6.885
3345,6.860
3346,6.895
3347,6.895
3348,6.905
3349,6.895
3350,6.895
3351,6.905
3352,6.895
3353,6.895
3354,6.905
3355,6.915
3356,6.905
3357,6.905
3358,6.905
3359,6.915
3360,6.915
3361,6.895
3362,6.915
3363,6.915
3364,6.915
3365,6.920
3366,6.915
3367,6.915
3368,6.915
3369,6.905
3370,6.915
3371,6.920
3372,6.885
3373,6.915
3374,6.920
3375,6.915
3376,6.930
3377,6.915
3378,6.915
3379,6.915
3380,6.920
3381,6.920
3382,6.930
3383,6.945
3384,6.930
3385,6.920
3386,6.920
3387,6.920
3388,6.885
3389,6.930
3390,6.930
3391,6.930
3392,6.920
3393,6.930
3394,6.940
3395,6.940
3396,6.940
3397,6.930
3398,6.930
3399,6.940
3400,6.945
3401,6.945
3402,6.945
3403,6.955
3404,6.920
3405,6.945
3406,6.945
3407,6.955
3408,6.945
3409,6.965
3410,6.965
3411,6.965
3412,6.970
3413,6.965
3414,6.990
3415,6.970
3416,6.970
3417,6.970
3418,6.990
3419,7.005
3420,7.030
3421,7.030
3422,7.015
3423,7.015
3424,7.015
3425,7.015
3426,7.025
3427,7.015
3428,7.015
3429,6.995
3430,6.990
3431,7.015
3432,6.970
3433,6.965
3434,6.965
3435,6.970
3436,6.965
3437,6.970
3438,6.955
3439,6.965
3440,6.955
3441,6.970
3442,6.995
3443,6.970
3444,6.970
3445,6.970
3446,6.970
3447,7.015
3448,6.995
3449,6.995
3450,6.995
3451,6.990
3452,6.990
3453,7.005
3454,7.030
3455,7.105
3456,7.260
3457,7.445
3458,7.650
3459,7.855
3460,7.920
3461,7.915
3462,7.895
3463,7.820
3464,7.525
3465,7.015
3466,6.675
3467,6.745
3468,6.820
3469,6.860
3470,6.895
3471,6.940
3472,6.970
3473,7.005
3474,6.995
3475,7.005
3476,7.025
3477,7.015
3478,7.015
3479,7.030
3480,7.015
3481,7.015
3482,7.025
3483,7.025
3484,7.030
3485,7.030
3486,7.030
3487,7.025
3488,7.030
3489,7.025
3490,7.065
3491,7.040
3492,7.040
3493,7.050
3494,7.050
3495,7.040
3496,7.050
3497,7.050
3498,7.050
3499,7.050
3500,7.040
3501,7.055
3502,7.055
3503,7.055
3504,7.065
3505,7.055
3506,7.100
3507,7.065
3508,7.075
3509,7.075
3510,7.075
3511,7.080
3512,7.100
3513,7.090
3514,7.090
3515,7.090
3516,7.090
3517,7.100
3518,7.105
3519,7.115
3520,7.115
3521,7.125
3522,7.135
3523,7.150
3524,7.150
3525,7.150
3526,7.150
3527,7.160
3528,7.165
3529,7.185
3530,7.175
3531,7.185
3532,7.165
3533,7.210
3534,7.185
3535,7.190
3536,7.185
3537,7.185
3538,7.190
3539,7.190
3540,7.165
3541,7.160
3542,7.140
3543,7.135
3544,7.125
3545,7.115
3546,7.100
3547,7.075
3548,7.055
3549,7.080
3550,7.025
3551,7.005
3552,6.995
3553,6.980
3554,6.980
3555,6.970
3556,6.970
3557,6.965
3558,6.970
3559,6.965
3560,6.970
3561,6.980
3562,6.990
3563,6.995
3564,7.015
3565,7.040
3566,7.030
3567,7.040
3568,7.050
3569,7.050
3570,7.050
3571,7.055
3572,7.065
3573,7.055
3574,7.050
3575,7.055
3576,7.055
3577,7.065
3578,7.065
3579,7.065
3580,7.065
3581,7.075
3582,7.065
3583,7.075
3584,7.065
3585,7.065
3586,7.065
3587,7.075
3588,7.065
3589,7.055
3590,7.055
3591,7.040
3592,7.080
3593,7.055
3594,7.040
3595,7.050
3596,7.030
3597,7.050
3598,7.030
3599,7.050
3600,7.025
3601,7.030
3602,7.025
3603,7.025
3604,7.015
3605,7.025
3606,7.015
3607,7.005
3608,7.025
3609,6.995
3610,6.995
3611,6.995
3612,6.995
3613,6.995
3614,6.990
3615,6.980
3616,6.980
3617,6.980
3618,6.980
3619,6.990
3620,6.980
3621,6.980
3622,6.980
3623,6.965
3624,6.965
3625,6.970
3626,6.970
3627,6.965
3628,6.970
3629,6.970
3630,6.970
3631,6.970
3632,6.965
3633,6.965
3634,6.970
3635,6.955
3636,6.965
3637,6.965
3638,6.955
3639,6.965
3640,6.945
3641,6.955
3642,6.955
3643,6.955
3644,6.945
3645,6.955
3646,6.955
3647,6.955
3648,6.965
3649,6.955
3650,6.965
3651,6.920
3652,6.965
3653,6.965
3654,6.955
3655,6.970
3656,6.965
3657,6.955
3658,6.955
3659,6.955
3660,6.965
3661,6.955
3662,6.945
3663,6.945
3664,6.945
3665,6.945
3666,6.945
3667,6.920
3668,6.945
3669,6.930
3670,6.940
3671,6.940
3672,6.940
3673,6.930
3674,6.940
3675,6.930
3676,6.945
3677,6.945
3678,6.940
3679,6.940
3680,6.945
3681,6.940
3682,6.930
3683,6.940
3684,6.940
3685,6.940
3686,6.945
3687,6.945
3688,6.940
3689,6.940
3690,6.930
3691,6.940
3692,6.945
3693,6.930
3694,6.915
3695,6.940
3696,6.930
3697,6.930
3698,6.940
3699,6.920
3700,6.930
3701,6.920
3702,6.940
3703,6.940
3704,6.945
3705,6.970
3706,6.930
3707,6.920
3708,6.920
3709,6.930
3710,6.895
3711,6.940
3712,6.930
3713,6.930
3714,6.940
3715,6.940
3716,6.930
3717,6.920
3718,6.940
3719,6.940
3720,6.920
3721,6.930
3722,6.930
3723,6.940
3724,6.940
3725,6.940
3726,6.915
3727,6.930
3728,6.930
3729,6.930
3730,6.930
3731,6.940
3732,6.930
3733,6.930
3734,6.920
3735,6.920
3736,6.930
3737,6.920
3738,6.930
3739,6.930
3740,6.945
3741,6.920
3742,6.920
3743,6.920
3744,6.920
3745,6.930
3746,6.940
3747,6.945
3748,6.945
3749,6.940
3750,6.940
3751,6.940
3752,6.940
3753,6.905
3754,6.930
3755,6.930
3756,6.945
3757,6.945
3758,6.940
3759,6.940
3760,6.930
3761,6.930
3762,6.930
3763,6.940
3764,6.965
3765,6.940
3766,6.930
3767,6.940
3768,6.940
3769,6.905
3770,6.945
3771,6.945
3772,6.945
3773,6.940
3774,6.945
3775,6.945
3776,6.955
3777,6.945
3778,6.945
3779,6.945
3780,6.945
3781,6.945
3782,6.945
3783,6.945
3784,6.965
3785,6.945
3786,6.955
3787,6.945
3788,6.965
3789,6.945
3790,6.955
3791,6.945
3792,6.965
3793,6.955
3794,6.965
3795,6.970
3796,6.965
3797,6.945
3798,6.955
3799,6.955
3800,6.955
3801,6.955
3802,6.965
3803,6.965
3804,6.965
3805,6.970
3806,6.965
3807,6.965
3808,6.970
3809,6.970
3810,6.970
3811,6.980
3812,6.945
3813,6.990
3814,6.990
3815,6.995
3816,6.995
3817,7.015
3818,7.015
3819,7.025
3820,7.015
3821,7.005
3822,6.995
3823,7.005
3824,7.015
3825,7.005
3826,6.995
3827,6.995
3828,7.040
3829,7.015
3830,7.015
3831,7.005
3832,6.990
3833,6.980
3834,6.970
3835,6.970
3836,6.970
3837,6.970
3838,6.965
3839,6.970
3840,6.990
3841,6.970
3842,6.970
3843,6.970
3844,6.990
3845,6.980
3846,6.990
3847,6.990
3848,6.995
3849,6.995
3850,6.995
3851,7.015
3852,7.015
3853,7.025
3854,7.050
3855,7.160
3856,7.285
3857,7.470
3858,7.675
3859,7.845
3860,7.895
3861,7.880
3862,7.830
3863,7.725
3864,7.395
3865,6.895
3866,6.690
3867,6.775
3868,6.830
3869,6.880
3870,6.915
3871,6.905
3872,6.970
3873,6.995
3874,7.015
3875,7.015
3876,7.030
3877,7.040
3878,7.030
3879,7.030
3880,7.025
3881,7.025
3882,7.040
3883,7.040
3884,7.040
3885,7.050
3886,7.050
3887,7.065
3888,7.050
3889,7.050
3890,7.040
3891,7.050
3892,7.055
3893,7.055
3894,7.055
3895,7.055
3896,7.065
3897,7.055
3898,7.075
3899,7.075
3900,7.075
3901,7.080
3902,7.080
3903,7.090
3904,7.080
3905,7.090
3906,7.090
3907,7.080
3908,7.090
3909,7.100
3910,7.105
3911,7.105
3912,7.115
3913,7.115
3914,7.150
3915,7.125
3916,7.125
3917,7.150
3918,7.135
3919,7.150
3920,7.160
3921,7.165
3922,7.165
3923,7.175
3924,7.165
3925,7.185
3926,7.185
3927,7.190
3928,7.185
3929,7.175
3930,7.225
3931,7.190
3932,7.190
3933,7.190
3934,7.175
3935,7.185
3936,7.190
3937,7.185
3938,7.165
3939,7.175
3940,7.150
3941,7.150
3942,7.135
3943,7.115
3944,7.105
3945,7.080
3946,7.080
3947,7.050
3948,7.040
3949,7.015
3950,6.995
3951,6.980
3952,6.970
3953,6.955
3954,6.955
3955,6.955
3956,6.945
3957,6.945
3958,6.930
3959,6.945
3960,6.945
3961,6.965
3962,6.965
3963,6.970
3964,6.995
3965,6.995
3966,7.015
3967,7.015
3968,7.025
3969,7.050
3970,7.050
3971,7.050
3972,7.030
3973,7.075
3974,7.040
3975,7.055
3976,7.065
3977,7.055
3978,7.055
3979,7.055
3980,7.065
3981,7.055
3982,7.055
3983,7.050
3984,7.065
3985,7.075
3986,7.065
3987,7.065
3988,7.065
3989,7.090
3990,7.065
3991,7.055
3992,7.055
3993,7.055
3994,7.065
3995,7.055
3996,7.065
3997,7.050
3998,7.040
3999,7.030
4000,7.040
4001,7.050
4002,7.030
4003,7.030
4004,7.015
4005,7.040
4006,7.025
4007,7.025
4008,7.030
4009,7.025
4010,7.025
4011,7.015
4012,7.005
4013,7.015
4014,7.005
4015,6.995
4016,7.050
4017,6.995
4018,6.995
4019,7.005
4020,6.990
4021,7.005
4022,6.995
4023,7.005
4024,6.990
4025,6.990
4026,6.990
4027,6.990
4028,6.990
4029,6.995
4030,6.980
4031,6.970
4032,7.015
4033,6.970
4034,6.990
4035,6.970
4036,6.970
4037,6.980
4038,6.970
4039,6.970
4040,6.980
4041,6.980
4042,6.970
4043,6.970
4044,6.980
4045,6.990
4046,6.980
4047,6.970
4048,7.015
4049,6.970
4050,6.965
4051,6.970
4052,6.970
4053,6.970
4054,6.980
4055,6.970
4056,6.970
4057,6.970
4058,6.965
4059,6.970
4060,6.970
4061,6.970
4062,6.970
4063,6.980
4064,6.955
4065,6.970
4066,6.990
4067,6.970
4068,6.970
4069,6.980
4070,6.965
4071,6.970
4072,6.980
4073,6.970
4074,6.990
4075,6.945
4076,6.980
4077,6.970
4078,6.970
4079,6.970
4080,6.965
4081,6.970
4082,6.970
4083,6.970
4084,6.980
4085,6.970
4086,6.965
4087,6.990
4088,6.970
4089,6.970
4090,6.990
4091,6.955
4092,6.980
4093,6.980
4094,6.970
4095,6.970
4096,6.970
4097,6.980
4098,6.970
4099,6.970
4100,6.980
4101,6.970
4102,6.980
4103,6.970
4104,6.970
4105,6.970
4106,6.970
4107,6.970
4108,6.970
4109,6.970
4110,6.970
4111,6.990
4112,6.970
4113,6.970
4114,6.970
4115,6.970
4116,6.970
4117,6.980
4118,6.970
4119,6.970
4120,6.980
4121,6.980
4122,6.990
4123,6.970
4124,6.980
4125,6.980
4126,6.980
4127,6.980
4128,6.980
4129,6.990
4130,6.990
4131,6.990
4132,6.990
4133,6.970
4134,7.015
4135,6.990
4136,6.995
4137,6.995
4138,6.990
4139,7.005
4140,6.990
4141,6.995
4142,6.990
4143,6.995
4144,6.990
4145,6.995
4146,6.995
4147,7.005
4148,7.015
4149,7.005
4150,7.050
4151,7.025
4152,7.025
4153,7.025
4154,7.025
4155,7.025
4156,7.050
4157,7.050
4158,7.065
4159,7.065
4160,7.065
4161,7.055
4162,7.055
4163,7.065
4164,7.065
4165,7.050
4166,7.055
4167,7.050
4168,7.030
4169,7.015
4170,7.015
4171,7.005
4172,6.990
4173,7.005
4174,7.005
4175,7.005
4176,6.990
4177,7.025
4178,6.995
4179,6.995
4180,7.005
4181,6.995
4182,7.015
4183,7.005
4184,7.015
4185,7.005
4186,7.015
4187,7.015
4188,7.025
4189,7.030
4190,7.030
4191,7.030
4192,7.030
4193,7.115
4194,7.220
4195,7.395
4196,7.590
4197,7.810
4198,7.930
4199,7.920
4200,7.895
4201,7.830
4202,7.590
4203,7.080
4204,6.700
4205,6.735
4206,6.820
4207,6.870
4208,6.905
4209,6.930
4210,6.970
4211,7.005
4212,7.015
4213,7.015
4214,7.025
4215,7.050
4216,7.040
4217,7.050
4218,7.050
4219,7.050
4220,7.065
4221,7.050
4222,7.050
4223,7.055
4224,7.040
4225,7.055
4226,7.065
4227,7.055
4228,7.065
4229,7.065
4230,7.055
4231,7.065
4232,7.055
4233,7.065
4234,7.055
4235,7.065
4236,7.100
4237,7.075
4238,7.080
4239,7.080
4240,7.080
4241,7.090
4242,7.080
4243,7.090
4244,7.090
4245,7.100
4246,7.090
4247,7.105
4248,7.105
4249,7.105
4250,7.105
4251,7.115
4252,7.150
4253,7.135
4254,7.125
4255,7.135
4256,7.135
4257,7.135
4258,7.150
4259,7.150
4260,7.160
4261,7.150
4262,7.150
4263,7.185
4264,7.185
4265,7.190
4266,7.190
4267,7.190
4268,7.200
4269,7.190
4270,7.200
4271,7.200
4272,7.190
4273,7.190
4274,7.200
4275,7.190
4276,7.185
4277,7.165
4278,7.160
4279,7.175
4280,7.150
4281,7.135
4282,7.125
4283,7.105
4284,7.100
4285,7.075
4286,7.050
4287,7.030
4288,7.015
4289,6.995
4290,6.990
4291,6.970
4292,6.970
4293,6.955
4294,6.965
4295,6.930
4296,6.965
4297,6.970
4298,6.965
4299,6.970
4300,6.970
4301,6.995
4302,7.005
4303,6.995
4304,6.995
4305,6.995
4306,7.015
4307,7.015
4308,7.025
4309,7.025
4310,7.025
4311,7.055
4312,7.030
4313,7.025
4314,7.030
4315,7.025
4316,7.030
4317,7.030
4318,7.030
4319,7.040
4320,7.030
4321,7.025
4322,7.030
4323,7.030
4324,7.040
4325,7.030
4326,7.040
4327,7.050
4328,7.050
4329,7.050
4330,7.030
4331,7.030
4332,7.030
4333,7.025
4334,7.025
4335,7.025
4336,7.015
4337,7.015
4338,7.050
4339,7.005
4340,6.990
4341,6.990
4342,6.990
4343,6.990
4344,6.980
4345,6.990
4346,6.970
4347,6.970
4348,6.970
4349,6.970
4350,6.965
4351,6.970
4352,6.965
4353,6.965
4354,6.940
4355,6.965
4356,6.965
4357,6.965
4358,6.955
4359,6.965
4360,6.955
4361,6.955
4362,6.955
4363,6.945
4364,6.965
4365,6.945
4366,6.945
4367,6.945
4368,6.965
4369,6.945
4370,6.920
4371,6.945
4372,6.940
4373,6.945
4374,6.945
4375,6.945
4376,6.940
4377,6.945
4378,6.940
4379,6.940
4380,6.940
4381,6.940
4382,6.945
4383,6.940
4384,6.945
4385,6.945
4386,6.930
4387,6.940
4388,6.930
4389,6.940
4390,6.940
4391,6.945
4392,6.945
4393,6.940
4394,6.930
4395,6.940
4396,6.945
4397,6.895
4398,6.940
4399,6.940
4400,6.945
4401,6.945
4402,6.930
4403,6.940
4404,6.940
4405,6.930
4406,6.940
4407,6.940
4408,6.930
4409,6.930
4410,6.945
4411,6.940
4412,6.930
4413,6.895
4414,6.930
4415,6.930
4416,6.930
4417,6.940
4418,6.940
4419,6.930
4420,6.940
4421,6.930
4422,6.930
4423,6.940
4424,6.930
4425,6.930
4426,6.940
4427,6.930
4428,6.945
4429,6.920
4430,6.930
4431,6.940
4432,6.930
4433,6.930
4434,6.940
4435,6.940
4436,6.945
4437,6.930
4438,6.930
4439,6.940
4440,6.920
4441,6.930
4442,6.940
4443,6.930
4444,6.945
4445,6.920
4446,6.930
4447,6.930
4448,6.945
4449,6.940
4450,6.940
4451,6.930
4452,6.945
4453,6.930
4454,6.940
4455,6.930
4456,6.905
4457,6.940
4458,6.930
4459,6.920
4460,6.930
4461,6.930
4462,6.940
4463,6.930
4464,6.940
4465,6.945
4466,6.930
4467,6.920
4468,6.930
4469,6.940
4470,6.940
4471,6.940
4472,6.905
4473,6.930
4474,6.940
4475,6.940
4476,6.945
4477,6.930
4478,6.930
4479,6.930
4480,6.945
4481,6.940
4482,6.945
4483,6.930
4484,6.930
4485,6.930
4486,6.945
4487,6.930
4488,6.930
4489,6.940
4490,6.940
4491,6.945
4492,6.945
4493,6.945
4494,6.945
4495,6.940
4496,6.955
4497,6.945
4498,6.955
4499,6.915
4500,6.945
4501,6.955
4502,6.945
4503,6.955
4504,6.930
4505,6.945
4506,6.955
4507,6.945
4508,6.945
4509,6.955
4510,6.995
4511,6.945
4512,6.965
4513,6.955
4514,6.965
4515,6.940
4516,6.970
4517,6.965
4518,6.970
4519,6.970
4520,6.965
4521,6.965
4522,6.965
4523,6.965
4524,6.965
4525,6.990
4526,6.965
4527,6.970
4528,6.970
4529,6.965
4530,6.970
4531,6.955
4532,6.965
4533,6.970
4534,6.990
4535,6.970
4536,6.980
4537,6.980
4538,6.970
4539,6.970
4540,6.970
4541,6.970
4542,6.970
4543,6.980
4544,6.980
4545,6.990
4546,6.970
4547,6.990
4548,6.970
4549,6.990
4550,6.990
4551,6.980
4552,6.990
4553,7.005
4554,6.990
4555,6.995
4556,6.995
4557,6.990
4558,7.025
4559,6.980
4560,6.995
4561,6.990
4562,6.995
4563,6.995
4564,7.015
4565,6.995
4566,6.995
4567,6.995
4568,7.015
4569,7.015
4570,7.015
4571,7.015
4572,7.030
4573,7.040
4574,7.055
4575,7.030
4576,7.040
4577,7.055
4578,7.055
4579,7.055
4580,7.055
4581,7.050
4582,7.065
4583,7.065
4584,7.065
4585,7.050
4586,7.030
4587,7.030
4588,7.025
4589,6.995
4590,7.025
4591,7.005
4592,7.015
4593,6.995
4594,6.995
4595,6.990
4596,6.995
4597,6.995
4598,6.995
4599,6.995
4600,6.995
4601,7.030
4602,7.005
4603,7.015
4604,7.015
4605,7.015
4606,7.040
4607,7.025
4608,7.030
4609,7.050
4610,7.050
4611,7.065
4612,7.125
4613,7.250
4614,7.415
4615,7.590
4616,7.785
4617,7.920
4618,7.895
4619,7.860
4620,7.770
4621,7.580
4622,7.175
4623,6.785
4624,6.725
4625,6.810
4626,6.870
4627,6.920
4628,6.945
4629,6.965
4630,7.005
4631,7.005
4632,7.025
4633,7.055
4634,7.055
4635,7.055
4636,7.065
4637,7.055
4638,7.055
4639,7.050
4640,7.055
4641,7.055
4642,7.065
4643,7.065
4644,7.065
4645,7.075
4646,7.080
4647,7.075
4648,7.075
4649,7.080
4650,7.080
4651,7.080
4652,7.080
4653,7.080
4654,7.080
4655,7.090
4656,7.090
4657,7.100
4658,7.090
4659,7.090
4660,7.125
4661,7.105
4662,7.100
4663,7.115
4664,7.115
4665,7.125
4666,7.125
4667,7.125
4668,7.125
4669,7.125
4670,7.125
4671,7.150
4672,7.150
4673,7.160
4674,7.175
4675,7.160
4676,7.190
4677,7.175
4678,7.185
4679,7.190
4680,7.200
4681,7.200
4682,7.220
4683,7.220
4684,7.225
4685,7.245
4686,7.235
4687,7.250
4688,7.250
4689,7.250
4690,7.260
4691,7.245
4692,7.285
4693,7.260
4694,7.260
4695,7.245
4696,7.235
4697,7.225
4698,7.225
4699,7.220
4700,7.200
4701,7.185
4702,7.160
4703,7.140
4704,7.125
4705,7.105
4706,7.080
4707,7.055
4708,7.040
4709,7.015
4710,6.990
4711,6.970
4712,6.965
4713,6.955
4714,6.955
4715,6.955
4716,6.940
4717,6.955
4718,6.965
4719,6.920
4720,6.965
4721,6.980
4722,6.980
4723,7.005
4724,7.005
4725,7.015
4726,7.015
4727,7.025
4728,7.030
4729,7.015
4730,7.030
4731,7.050
4732,7.050
4733,7.050
4734,7.030
4735,7.065
4736,7.040
4737,7.050
4738,7.050
4739,7.050
4740,7.050
4741,7.050
4742,7.055
4743,7.050
4744,7.055
4745,7.050
4746,7.050
4747,7.055
4748,7.040
4749,7.050
4750,7.030
4751,7.050
4752,7.040
4753,7.050
4754,7.050
4755,7.030
4756,7.030
4757,7.050
4758,7.030
4759,7.030
4760,7.025
4761,7.015
4762,7.050
4763,7.025
4764,7.030
4765,7.015
4766,7.015
4767,7.005
4768,7.015
4769,6.995
4770,6.995
4771,6.995
4772,6.990
4773,7.005
4774,6.995
4775,6.990
4776,6.980
4777,6.990
4778,6.940
4779,6.970
4780,6.980
4781,6.970
4782,6.980
4783,6.965
4784,6.970
4785,6.965
4786,6.965
4787,6.970
4788,6.965
4789,6.965
4790,6.965
4791,6.970
4792,6.955
4793,6.970
4794,6.940
4795,6.955
4796,6.965
4797,6.955
4798,6.965
4799,6.945
4800,6.945
4801,6.955
4802,6.955
4803,6.945
4804,6.955
4805,6.940
4806,6.945
4807,6.945
4808,6.955
4809,6.955
4810,6.940
4811,6.940
4812,6.945
4813,6.930
4814,6.930
4815,6.930
4816,6.930
4817,6.930
4818,6.930
4819,6.930
4820,6.945
4821,6.895
4822,6.945
4823,6.940
4824,6.920
4825,6.930
4826,6.915
4827,6.940
4828,6.930
4829,6.930
4830,6.920
4831,6.930
4832,6.955
4833,6.930
4834,6.930
4835,6.930
4836,6.930
4837,6.895
4838,6.930
4839,6.940
4840,6.920
4841,6.920
4842,6.920
4843,6.920
4844,6.930
4845,6.920
4846,6.930
4847,6.930
4848,6.915
4849,6.920
4850,6.920
4851,6.920
4852,6.930
4853,6.915
4854,6.920
4855,6.920
4856,6.920
4857,6.905
4858,6.920
4859,6.915
4860,6.905
4861,6.915
4862,6.905
4863,6.920
4864,6.915
4865,6.920
4866,6.905
4867,6.915
4868,6.905
4869,6.895
4870,6.915
4871,6.915
4872,6.905
4873,6.915
4874,6.920
4875,6.915
4876,6.905
4877,6.915
4878,6.905
4879,6.920
4880,6.880
4881,6.920
4882,6.920
4883,6.920
4884,6.920
4885,6.915
4886,6.905
4887,6.915
4888,6.915
4889,6.915
4890,6.930
4891,6.915
4892,6.930
4893,6.920
4894,6.930
4895,6.920
4896,6.885
4897,6.915
4898,6.920
4899,6.920
4900,6.915
4901,6.920
4902,6.930
4903,6.920
4904,6.920
4905,6.920
4906,6.905
4907,6.915
4908,6.930
4909,6.915
4910,6.920
4911,6.930
4912,6.915
4913,6.920
4914,6.920
4915,6.920
4916,6.930
4917,6.920
4918,6.920
4919,6.920
4920,6.930
4921,6.920
4922,6.930
4923,6.920
4924,6.930
4925,6.920
4926,6.920
4927,6.920
4928,6.920
4929,6.920
4930,6.920
4931,6.920
4932,6.930
4933,6.930
4934,6.940
4935,6.920
4936,6.930
4937,6.920
4938,6.930
4939,6.895
4940,6.930
4941,6.920
4942,6.930
4943,6.940
4944,6.920
4945,6.920
4946,6.930
4947,6.940
4948,6.920
4949,6.930
4950,6.920
4951,6.940
4952,6.930
4953,6.940
4954,6.940
4955,6.905
4956,6.930
4957,6.930
4958,6.930
4959,6.930
4960,6.930
4961,6.930
4962,6.930
4963,6.940
4964,6.940
4965,6.945
4966,6.940
4967,6.940
4968,6.940
4969,6.940
4970,6.945
4971,6.940
4972,6.945
4973,6.940
4974,6.955
4975,6.955
4976,6.955
4977,6.955
4978,6.965
4979,6.970
4980,6.970
4981,6.980
4982,6.955
4983,6.990
4984,6.980
4985,6.990
4986,6.995
4987,7.025
4988,7.025
4989,7.015
4990,6.995
4991,6.995
4992,6.995
4993,7.015
4994,7.005
4995,6.995
4996,6.980
4997,6.970
4998,6.940
4999,6.965
5000,6.965
5001,6.955
5002,6.965
5003,6.955
5004,6.945
5005,6.945
5006,6.955
5007,6.955
5008,6.955
5009,6.955
5010,6.955
5011,6.955
5012,6.955
5013,6.965
5014,6.945
5015,6.965
5016,6.970
5017,6.980
5018,6.980
5019,6.970
5020,6.990
5021,6.995
5022,7.075
5023,7.210
5024,7.370
5025,7.580
5026,7.770
5027,7.855
5028,7.845
5029,7.830
5030,7.745
5031,7.530
5032,7.065
5033,6.690
5034,6.720
5035,6.800
5036,6.830
5037,6.870
5038,6.915
5039,6.930
5040,6.955
5041,6.920
5042,6.965
5043,6.970
5044,6.995
5045,6.995
5046,6.980
5047,6.995
5048,6.995
5049,7.005
5050,6.990
5051,6.995
5052,7.015
5053,7.005
5054,7.015
5055,7.005
5056,6.995
5057,7.050
5058,7.015
5059,7.015
5060,7.015
5061,7.015
5062,7.015
5063,7.015
5064,7.030
5065,7.030
5066,7.025
5067,7.025
5068,7.030
5069,7.030
5070,7.030
5071,7.040
5072,7.050
5073,7.050
5074,7.050
5075,7.050
5076,7.050
5077,7.055
5078,7.050
5079,7.065
5080,7.065
5081,7.075
5082,7.080
5083,7.075
5084,7.105
5085,7.090
5086,7.100
5087,7.100
5088,7.100
5089,7.115
5090,7.115
5091,7.125
5092,7.125
5093,7.135
5094,7.135
5095,7.150
5096,7.150
5097,7.150
5098,7.160
5099,7.160
5100,7.190
5101,7.165
5102,7.165
5103,7.160
5104,7.160
5105,7.150
5106,7.140
5107,7.140
5108,7.125
5109,7.115
5110,7.100
5111,7.090
5112,7.065
5113,7.055
5114,7.050
5115,7.025
5116,7.040
5117,6.990
5118,6.965
5119,6.955
5120,6.945
5121,6.920
5122,6.915
5123,6.915
5124,6.915
5125,6.915
5126,6.905
5127,6.915
5128,6.930
5129,6.920
5130,6.930
5131,6.930
5132,6.930
5133,6.945
5134,6.955
5135,6.965
5136,6.970
5137,6.970
5138,6.980
5139,6.990
5140,6.995
5141,6.980
5142,6.980
5143,7.030
5144,6.990
5145,6.995
5146,6.995
5147,7.005
5148,7.005
5149,7.005
5150,7.005
5151,6.995
5152,6.995
5153,6.995
5154,7.005
5155,7.005
5156,6.995
5157,7.005
5158,6.990
5159,7.025
5160,6.990
5161,7.005
5162,6.990
5163,6.990
5164,6.980
5165,6.995
5166,6.980
5167,6.970
5168,6.980
5169,6.970
5170,6.965
5171,6.970
5172,6.965
5173,6.965
5174,6.965
5175,6.955
5176,6.965
5177,6.955
5178,6.945
5179,6.945
5180,6.965
5181,6.955
5182,6.945
5183,6.955
5184,6.945
5185,6.945
5186,6.940
5187,6.940
5188,6.945
5189,6.930
5190,6.930
5191,6.930
5192,6.930
5193,6.940
5194,6.920
5195,6.930
5196,6.920
5197,6.920
5198,6.920
5199,6.920
5200,6.930
5201,6.920
5202,6.880
5203,6.920
5204,6.915
5205,6.915
5206,6.920
5207,6.915
5208,6.915
5209,6.915
5210,6.905
5211,6.920
5212,6.915
5213,6.915
5214,6.915
5215,6.915
5216,6.915
5217,6.915
5218,6.880
5219,6.915
5220,6.915
5221,6.905
5222,6.915
5223,6.915
5224,6.915
5225,6.915
5226,6.905
5227,6.915
5228,6.905
5229,6.915
5230,6.905
5231,6.915
5232,6.905
5233,6.905
5234,6.895
5235,6.905
5236,6.905
5237,6.915
5238,6.915
5239,6.920
5240,6.905
5241,6.915
5242,6.915
5243,6.915
5244,6.930
5245,6.905
5246,6.915
5247,6.920
5248,6.930
5249,6.915
5250,6.915
5251,6.915
5252,6.905
5253,6.905
5254,6.915
5255,6.920
5256,6.915
5257,6.915
5258,6.915
5259,6.905
5260,6.915
5261,6.860
5262,6.915
5263,6.915
5264,6.905
5265,6.905
5266,6.915
5267,6.915
5268,6.905
5269,6.905
5270,6.895
5271,6.915
5272,6.915
5273,6.915
5274,6.905
5275,6.920
5276,6.920
5277,6.885
5278,6.920
5279,6.920
5280,6.915
5281,6.915
5282,6.920
5283,6.920
5284,6.930
5285,6.930
5286,6.920
5287,6.920
5288,6.920
5289,6.930
5290,6.920
5291,6.920
5292,6.920
5293,6.920
5294,6.920
5295,6.920
5296,6.915
5297,6.915
5298,6.920
5299,6.920
5300,6.920
5301,6.920
5302,6.930
5303,6.930
5304,6.895
5305,6.930
5306,6.930
5307,6.930
5308,6.945
5309,6.930
5310,6.940
5311,6.940
5312,6.930
5313,6.930
5314,6.940
5315,6.945
5316,6.930
5317,6.930
5318,6.940
5319,6.930
5320,6.905
5321,6.945
5322,6.940
5323,6.930
5324,6.930
5325,6.930
5326,6.940
5327,6.940
5328,6.945
5329,6.940
5330,6.945
5331,6.940
5332,6.945
5333,6.940
5334,6.945
5335,6.945
5336,6.930
5337,6.940
5338,6.945
5339,6.940
5340,6.945
5341,6.945
5342,6.940
5343,6.940
5344,6.945
5345,6.940
5346,6.945
5347,6.945
5348,6.940
5349,6.945
5350,6.945
5351,6.955
5352,6.930
5353,6.945
5354,6.945
5355,6.945
5356,6.965
5357,6.955
5358,6.955
5359,6.945
5360,6.940
5361,6.945
5362,6.955
5363,6.920
5364,6.965
5365,6.955
5366,6.955
5367,6.965
5368,6.945
5369,6.955
5370,6.965
5371,6.955
5372,6.965
5373,6.965
5374,6.955
5375,6.970
5376,6.970
5377,6.970
5378,6.970
5379,6.945
5380,6.980
5381,6.970
5382,6.970
5383,6.980
5384,7.015
5385,7.015
5386,7.015
5387,6.990
5388,6.970
5389,6.970
5390,6.990
5391,6.990
5392,6.995
5393,6.980
5394,6.970
5395,6.990
5396,6.965
5397,6.965
5398,6.955
5399,6.955
5400,6.965
5401,6.945
5402,6.955
5403,6.955
5404,6.965
5405,6.955
5406,6.940
5407,6.965
5408,6.970
5409,6.965
5410,6.970
5411,6.965
5412,6.980
5413,6.980
5414,6.990
5415,6.970
5416,6.990
5417,6.995
5418,7.015
5419,7.050
5420,7.135
5421,7.275
5422,7.495
5423,7.650
5424,7.830
5425,7.880
5426,7.860
5427,7.810
5428,7.690
5429,7.380
5430,6.895
5431,6.675
5432,6.735
5433,6.795
5434,6.855
5435,6.885
5436,6.920
5437,6.965
5438,6.955
5439,6.995
5440,7.015
5441,7.015
5442,7.015
5443,7.025
5444,7.030
5445,7.025
5446,7.040
5447,7.030
5448,7.030
5449,7.050
5450,7.050
5451,7.030
5452,7.030
5453,7.040
5454,7.050
5455,7.050
5456,7.050
5457,7.050
5458,7.050
5459,7.055
5460,7.050
5461,7.065
5462,7.065
5463,7.065
5464,7.065
5465,7.100
5466,7.075
5467,7.080
5468,7.075
5469,7.080
5470,7.100
5471,7.090
5472,7.100
5473,7.100
5474,7.100
5475,7.105
5476,7.115
5477,7.125
5478,7.125
5479,7.125
5480,7.125
5481,7.160
5482,7.150
5483,7.150
5484,7.160
5485,7.160
5486,7.165
5487,7.185
5488,7.190
5489,7.190
5490,7.200
5491,7.210
5492,7.225
5493,7.225
5494,7.225
5495,7.225
5496,7.225
5497,7.245
5498,7.235
5499,7.250
5500,7.245
5501,7.235
5502,7.225
5503,7.225
5504,7.225
5505,7.220
5506,7.200
5507,7.185
5508,7.175
5509,7.160
5510,7.140
5511,7.115
5512,7.100
5513,7.075
5514,7.050
5515,7.030
5516,7.005
5517,6.990
5518,6.965
5519,6.965
5520,6.940
5521,6.940
5522,6.930
5523,6.930
5524,6.885
5525,6.930
5526,6.930
5527,6.940
5528,6.940
5529,6.945
5530,6.965
5531,6.970
5532,6.980
5533,6.980
5534,6.995
5535,6.995
5536,7.005
5537,7.005
5538,7.015
5539,7.015
5540,7.040
5541,7.025
5542,7.015
5543,7.015
5544,7.015
5545,7.015
5546,7.025
5547,7.030
5548,7.025
5549,7.025
5550,7.025
5551,7.025
5552,7.030
5553,7.025
5554,7.025
5555,7.015
5556,7.030
5557,7.025
5558,7.030
5559,7.025
5560,7.015
5561,7.015
5562,7.015
5563,7.005
5564,7.015
5565,7.005
5566,6.995
5567,7.040
5568,6.995
5569,7.005
5570,6.980
5571,6.990
5572,6.990
5573,6.990
5574,6.970
5575,6.965
5576,6.970
5577,6.980
5578,6.990
5579,6.970
5580,6.955
5581,6.955
5582,6.965
5583,6.915
5584,6.955
5585,6.945
5586,6.955
5587,6.945
5588,6.940
5589,6.945
5590,6.945
5591,6.945
5592,6.940
5593,6.940
5594,6.940
5595,6.940
5596,6.940
5597,6.945
5598,6.945
5599,6.915
5600,6.930
5601,6.940
5602,6.930
5603,6.940
5604,6.945
5605,6.930
5606,6.930
5607,6.930
5608,6.930
5609,6.945
5610,6.930
5611,6.940
5612,6.930
5613,6.930
5614,6.930
5615,6.930
5616,6.945
5617,6.930
5618,6.930
5619,6.945
5620,6.930
5621,6.930
5622,6.930
5623,6.940
5624,6.920
5625,6.930
5626,6.885
5627,6.920
5628,6.920
5629,6.930
5630,6.940
5631,6.920
5632,6.930
5633,6.930
5634,6.920
5635,6.930
5636,6.920
5637,6.955
5638,6.920
5639,6.920
5640,6.930
5641,6.920
5642,6.895
5643,6.930
5644,6.930
5645,6.920
5646,6.930
5647,6.930
5648,6.930
5649,6.930
5650,6.930
5651,6.930
5652,6.930
5653,6.920
5654,6.920
5655,6.920
5656,6.930
5657,6.920
5658,6.915
5659,6.920
5660,6.930
5661,6.930
5662,6.920
5663,6.940
5664,6.920
5665,6.920
5666,6.920
5667,6.930
5668,6.945
5669,6.930
5670,6.930
5671,6.920
5672,6.930
5673,6.940
5674,6.930
5675,6.940
5676,6.940
5677,6.945
5678,6.945
5679,6.940
5680,6.945
5681,6.930
5682,6.945
5683,6.930
5684,6.940
5685,6.915
5686,6.945
5687,6.940
5688,6.945
5689,6.930
5690,6.930
5691,6.940
5692,6.940
5693,6.930
5694,6.945
5695,6.955
5696,6.945
5697,6.965
5698,6.955
5699,6.970
5700,6.965
5701,6.930
5702,6.970
5703,6.980
5704,7.015
5705,7.015
5706,6.995
5707,6.995
5708,7.015
5709,6.995
5710,6.995
5711,6.990
5712,6.980
5713,6.970
5714,6.965
5715,6.955
5716,6.965
5717,6.940
5718,6.945
5719,6.940
5720,6.945
5721,6.930
5722,6.940
5723,6.930
5724,6.940
5725,6.940
5726,6.945
5727,6.940
5728,6.905
5729,6.940
5730,6.955
5731,6.955
5732,6.965
5733,6.955
5734,6.965
5735,6.965
5736,6.970
5737,6.980
5738,6.995
5739,7.075
5740,7.160
5741,7.345
5742,7.530
5743,7.735
5744,7.885
5745,7.870
5746,7.855
5747,7.800
5748,7.615
5749,7.220
5750,6.735
5751,6.640
5752,6.745
5753,6.810
5754,6.855
5755,6.870
5756,6.905
5757,6.940
5758,6.955
5759,6.970
5760,6.965
5761,6.995
5762,6.995
5763,7.005
5764,6.995
5765,7.005
5766,7.005
5767,7.005
5768,7.015
5769,7.015
5770,7.015
5771,7.025
5772,7.015
5773,7.025
5774,7.015
5775,7.015
5776,7.030
5777,7.030
5778,7.025
5779,7.040
5780,7.025
5781,7.030
5782,7.030
5783,7.030
5784,7.030
5785,7.030
5786,7.050
5787,7.080
5788,7.055
5789,7.065
5790,7.055
5791,7.055
5792,7.065
5793,7.065
5794,7.075
5795,7.075
5796,7.080
5797,7.080
5798,7.090
5799,7.090
5800,7.090
5801,7.100
5802,7.105
5803,7.140
5804,7.115
5805,7.125
5806,7.125
5807,7.135
5808,7.135
5809,7.150
5810,7.160
5811,7.160
5812,7.160
5813,7.160
5814,7.165
5815,7.185
5816,7.175
5817,7.175
5818,7.165
5819,7.200
5820,7.175
5821,7.185
5822,7.185
5823,7.185
5824,7.160
5825,7.150
5826,7.140
5827,7.140
5828,7.115
5829,7.100
5830,7.115
5831,7.080
5832,7.055
5833,7.050
5834,7.015
5835,7.015
5836,6.990
5837,6.970
5838,6.955
5839,6.955
5840,6.945
5841,6.930
5842,6.930
5843,6.930
5844,6.945
5845,6.945
5846,6.905
5847,6.945
5848,6.955
5849,6.955
5850,6.965
5851,6.970
5852,6.995
5853,6.995
5854,6.995
5855,6.995
5856,6.990
5857,6.995
5858,6.995
5859,7.005
5860,7.005
5861,6.995
5862,7.030
5863,7.005
5864,7.005
5865,7.015
5866,7.005
5867,7.005
5868,7.015
5869,7.015
5870,7.015
5871,7.005
5872,7.015
5873,7.015
5874,7.005
5875,7.005
5876,6.995
5877,6.990
5878,7.005
5879,6.995
5880,6.995
5881,6.990
5882,6.980
5883,6.990
5884,6.990
5885,6.990
5886,6.970
5887,6.965
5888,6.970
5889,6.940
5890,6.970
5891,6.965
5892,6.965
5893,6.965
5894,6.945
5895,6.955
5896,6.955
5897,6.955
5898,6.945
5899,6.955
5900,6.970
5901,6.955
5902,6.945
5903,6.940
5904,6.940
5905,6.905
5906,6.945
5907,6.940
5908,6.945
5909,6.940
5910,6.940
5911,6.930
5912,6.930
5913,6.930
5914,6.930
5915,6.920
5916,6.930
5917,6.920
5918,6.930
5919,6.920
5920,6.920
5921,6.895
5922,6.915
5923,6.920
5924,6.920
5925,6.930
5926,6.920
5927,6.915
5928,6.915
5929,6.915
5930,6.915
5931,6.915
5932,6.905
5933,6.905
5934,6.905
5935,6.915
5936,6.905
5937,6.915
5938,6.915
5939,6.915
5940,6.905
5941,6.895
5942,6.895
5943,6.915
5944,6.895
5945,6.905
5946,6.895
5947,6.895
5948,6.855
5949,6.895
5950,6.895
5951,6.895
5952,6.905
5953,6.885
5954,6.895
5955,6.895
5956,6.895
5957,6.885
5958,6.895
5959,6.895
5960,6.885
5961,6.885
5962,6.895
5963,6.915
5964,6.860
5965,6.895
5966,6.885
5967,6.880
5968,6.885
5969,6.895
5970,6.895
5971,6.895
5972,6.895
5973,6.895
5974,6.895
5975,6.885
5976,6.895
5977,6.895
5978,6.885
5979,6.905
5980,6.880
5981,6.895
5982,6.895
5983,6.915
5984,6.895
5985,6.885
5986,6.895
5987,6.915
5988,6.885
5989,6.895
5990,6.895
5991,6.905
5992,6.885
5993,6.885
5994,6.895
5995,6.895
5996,6.885
5997,6.895
5998,6.895
5999,6.885
6000,6.895
6001,6.895
6002,6.905
6003,6.905
6004,6.905
6005,6.905
6006,6.895
6007,6.860
6008,6.905
6009,6.915
6010,6.915
6011,6.905
6012,6.885
6013,6.895
6014,6.905
6015,6.915
6016,6.895
6017,6.915
6018,6.895
6019,6.915
6020,6.905
6021,6.915
6022,6.915
6023,6.860
6024,6.895
6025,6.915
6026,6.895
6027,6.915
6028,6.915
6029,6.905
6030,6.915
6031,6.915
6032,6.915
6033,6.915
6034,6.915
6035,6.915
6036,6.930
6037,6.915
6038,6.930
6039,6.915
6040,6.915
6041,6.915
6042,6.915
6043,6.915
6044,6.915
6045,6.915
6046,6.915
6047,6.915
6048,6.915
6049,6.915
6050,6.880
6051,6.915
6052,6.915
6053,6.915
6054,6.920
6055,6.915
6056,6.915
6057,6.905
6058,6.915
6059,6.915
6060,6.930
6061,6.945
6062,6.915
6063,6.920
6064,6.920
6065,6.920
6066,6.885
6067,6.920
6068,6.915
6069,6.930
6070,6.930
6071,6.930
6072,6.930
6073,6.940
6074,6.945
6075,6.930
6076,6.940
6077,6.930
6078,6.930
6079,6.930
6080,6.930
6081,6.945
6082,6.895
6083,6.930
6084,6.940
6085,6.930
6086,6.940
6087,6.940
6088,6.945
6089,6.930
6090,6.930
6091,6.940
6092,6.945
6093,6.930
6094,6.940
6095,6.945
6096,6.930
6097,6.930
6098,6.930
6099,6.940
6100,6.945
6101,6.945
6102,6.955
6103,6.945
6104,6.965
6105,6.955
6106,6.965
6107,6.970
6108,6.980
6109,6.945
6110,6.970
6111,6.970
6112,6.990
6113,6.995
6114,7.015
6115,7.005
6116,6.995
6117,6.995
6118,6.995
6119,6.995
6120,6.990
6121,6.990
6122,6.970
6123,6.970
6124,6.970
6125,6.920
6126,6.945
6127,6.945
6128,6.945
6129,6.940
6130,6.945
6131,6.940
6132,6.945
6133,6.930
6134,6.940
6135,6.945
6136,6.945
6137,6.945
6138,6.945
6139,6.945
6140,6.965
6141,6.945
6142,6.955
6143,6.955
6144,6.955
6145,6.965
6146,6.965
6147,6.980
6148,7.015
6149,7.100
6150,7.270
6151,7.445
6152,7.660
6153,7.820
6154,7.845
6155,7.835
6156,7.785
6157,7.675
6158,7.355
6159,6.835
6160,6.640
6161,6.725
6162,6.795
6163,6.835
6164,6.855
6165,6.895
6166,6.930
6167,6.955
6168,6.930
6169,6.970
6170,6.970
6171,6.990
6172,6.980
6173,6.970
6174,6.980
6175,6.990
6176,6.995
6177,6.970
6178,6.970
6179,6.990
6180,6.995
6181,6.990
6182,6.995
6183,6.995
6184,7.025
6185,6.995
6186,6.995
6187,7.005
6188,6.990
6189,6.995
6190,7.015
6191,7.015
6192,7.025
6193,7.015
6194,7.015
6195,7.025
6196,7.030
6197,7.030
6198,7.025
6199,7.025
6200,7.040
6201,7.050
6202,7.050
6203,7.055
6204,7.050
6205,7.050
6206,7.065
6207,7.065
6208,7.065
6209,7.065
6210,7.065
6211,7.105
6212,7.080
6213,7.090
6214,7.100
6215,7.105
6216,7.115
6217,7.115
6218,7.115
6219,7.125
6220,7.125
6221,7.135
6222,7.150
6223,7.150
6224,7.150
6225,7.160
6226,7.160
6227,7.185
6228,7.165
6229,7.185
6230,7.165
6231,7.160
6232,7.160
6233,7.175
6234,7.160
6235,7.160
6236,7.135
6237,7.125
6238,7.115
6239,7.100
6240,7.100
6241,7.065
6242,7.050
6243,7.055
6244,7.015
6245,6.980
6246,6.970
6247,6.970
6248,6.945
6249,6.940
6250,6.930
6251,6.920
6252,6.915
6253,6.915
6254,6.930
6255,6.920
6256,6.930
6257,6.940
6258,6.945
6259,6.945
6260,6.955
6261,6.970
6262,6.970
6263,6.970
6264,6.995
6265,6.995
6266,6.995
6267,7.015
6268,6.995
6269,6.995
6270,7.040
6271,6.995
6272,7.015
6273,7.015
6274,7.015
6275,7.025
6276,7.030
6277,7.015
6278,7.015
6279,7.015
6280,7.015
6281,7.025
6282,7.015
6283,7.025
6284,7.015
6285,7.015
6286,7.050
6287,7.015
6288,7.015
6289,6.995
6290,6.995
6291,6.995
6292,6.995
6293,6.995
6294,6.995
6295,6.990
6296,6.995
6297,6.995
6298,6.990
6299,6.990
6300,6.970
6301,6.980
6302,6.965
6303,6.970
6304,6.970
6305,6.970
6306,6.965
6307,6.965
6308,6.965
6309,6.955
6310,6.965
6311,6.945
6312,6.955
6313,6.945
6314,6.945
6315,6.930
6316,6.945
6317,6.930
6318,6.930
6319,6.940
6320,6.945
6321,6.930
6322,6.945
6323,6.930
6324,6.930
6325,6.920
6326,6.920
6327,6.920
6328,6.920
6329,6.895
6330,6.930
6331,6.940
6332,6.930
6333,6.930
6334,6.920
6335,6.920
6336,6.930
6337,6.920
6338,6.930
6339,6.940
6340,6.930
6341,6.930
6342,6.920
6343,6.920
6344,6.920
6345,6.895
6346,6.920
6347,6.920
6348,6.930
6349,6.920
6350,6.930
6351,6.920
6352,6.930
6353,6.920
6354,6.920
6355,6.940
6356,6.930
6357,6.920
6358,6.920
6359,6.920
6360,6.930
6361,6.915
6362,6.920
6363,6.915
6364,6.915
6365,6.920
6366,6.905
6367,6.920
6368,6.915
6369,6.920
6370,6.915
6371,6.920
6372,6.870
6373,6.915
6374,6.905
6375,6.920
6376,6.915
6377,6.915
6378,6.915
6379,6.915
6380,6.905
6381,6.915
6382,6.915
6383,6.945
6384,6.905
6385,6.905
6386,6.915
6387,6.915
6388,6.880
6389,6.915
6390,6.920
6391,6.915
6392,6.915
6393,6.915
6394,6.905
6395,6.915
6396,6.915
6397,6.915
6398,6.915
6399,6.915
6400,6.915
6401,6.915
6402,6.915
6403,6.920
6404,6.895
6405,6.920
6406,6.920
6407,6.920
6408,6.915
6409,6.920
6410,6.915
6411,6.920
6412,6.905
6413,6.920
6414,6.930
6415,6.920
6416,6.915
6417,6.920
6418,6.920
6419,6.920
6420,6.905
6421,6.920
6422,6.920
6423,6.920
6424,6.920
6425,6.920
6426,6.920
6427,6.920
6428,6.940
6429,6.930
6430,6.930
6431,6.915
6432,6.920
6433,6.930
6434,6.920
6435,6.930
6436,6.930
6437,6.930
6438,6.945
6439,6.940
6440,6.945
6441,6.945
6442,6.940
6443,6.940
6444,6.930
6445,6.930
6446,6.930
6447,6.905
6448,6.930
6449,6.930
6450,6.920
6451,6.930
6452,6.930
6453,6.920
6454,6.930
6455,6.930
6456,6.930
6457,6.930
6458,6.920
6459,6.930
6460,6.930
6461,6.945
6462,6.945
6463,6.920
6464,6.920
6465,6.930
6466,6.930
6467,6.930
6468,6.930
6469,6.930
6470,6.930
6471,6.930
6472,6.930
6473,6.930
6474,6.930
6475,6.940
6476,6.940
6477,6.940
6478,6.945
6479,6.930
6480,6.945
6481,6.930
6482,6.940
6483,6.945
6484,6.945
6485,6.945
6486,6.955
6487,6.955
6488,6.955
6489,6.970
6490,6.930
6491,6.955
6492,6.955
6493,6.970
6494,6.995
6495,7.005
6496,7.015
6497,6.995
6498,6.995
6499,6.990
6500,6.990
6501,6.995
6502,6.990
6503,6.970
6504,6.965
6505,6.970
6506,6.930
6507,6.955
6508,6.940
6509,6.945
6510,6.945
6511,6.945
6512,6.940
6513,6.930
6514,6.945
6515,6.940
6516,6.945
6517,6.945
6518,6.955
6519,6.945
6520,6.965
6521,6.965
6522,6.945
6523,6.970
6524,6.970
6525,6.990
6526,6.995
6527,6.995
6528,7.030
6529,7.065
6530,7.165
6531,7.310
6532,7.465
6533,7.690
6534,7.845
6535,7.880
6536,7.835
6537,7.785
6538,7.635
6539,7.310
6540,6.845
6541,6.660
6542,6.725
6543,6.795
6544,6.895
6545,6.885
6546,6.915
6547,6.930
6548,6.970
6549,6.945
6550,6.990
6551,6.995
6552,7.005
6553,7.015
6554,7.015
6555,7.025
6556,7.030
6557,7.015
6558,7.015
6559,7.015
6560,7.030
6561,7.025
6562,7.040
6563,7.025
6564,7.030
6565,7.065
6566,7.030
6567,7.050
6568,7.030
6569,7.030
6570,7.030
6571,7.050
6572,7.050
6573,7.050
6574,7.050
6575,7.050
6576,7.055
6577,7.055
6578,7.065
6579,7.065
6580,7.065
6581,7.080
6582,7.080
6583,7.075
6584,7.080
6585,7.080
6586,7.080
6587,7.090
6588,7.090
6589,7.100
6590,7.100
6591,7.105
6592,7.150
6593,7.125
6594,7.125
6595,7.140
6596,7.140
6597,7.150
6598,7.160
6599,7.160
6600,7.160
6601,7.165
6602,7.165
6603,7.185
6604,7.185
6605,7.190
6606,7.200
6607,7.190
6608,7.225
6609,7.200
6610,7.200
6611,7.190
6612,7.190
6613,7.175
6614,7.175
6615,7.185
6616,7.165
6617,7.150
6618,7.125
6619,7.125
6620,7.105
6621,7.080
6622,7.075
6623,7.050
6624,7.030
6625,7.015
6626,6.990
6627,6.970
6628,6.955
6629,6.930
6630,6.915
6631,6.915
6632,6.885
6633,6.885
6634,6.895
6635,6.885
6636,6.895
6637,6.895
6638,6.895
6639,6.920
6640,6.930
6641,6.940
6642,6.945
6643,6.965
6644,6.965
6645,6.980
6646,6.990
6647,6.990
6648,6.995
6649,6.990
6650,6.990
6651,7.025
6652,6.995
6653,6.995
6654,6.995
6655,6.995
6656,7.015
6657,6.995
6658,6.995
6659,6.990
6660,6.990
6661,6.990
6662,7.005
6663,7.005
6664,6.995
6665,6.995
6666,6.990
6667,7.025
6668,6.995
6669,6.995
6670,6.995
6671,6.995
6672,6.990
6673,7.005
6674,6.995
6675,7.005
6676,6.990
6677,6.980
6678,6.980
6679,6.990
6680,6.980
6681,6.970
6682,6.980
6683,6.955
6684,6.970
6685,6.965
6686,6.965
6687,6.970
6688,6.965
6689,6.965
6690,6.965
6691,6.970
6692,6.955
6693,6.965
6694,6.915
6695,6.945
6696,6.955
6697,6.955
6698,6.965
6699,6.930
6700,6.945
6701,6.955
6702,6.940
6703,6.945
6704,6.945
6705,6.970
6706,6.940
6707,6.930
6708,6.945
6709,6.945
6710,6.915
6711,6.930
6712,6.940
6713,6.930
6714,6.940
6715,6.940
6716,6.930
6717,6.920
6718,6.930
6719,6.930
6720,6.930
6721,6.905
6722,6.930
6723,6.915
6724,6.915
6725,6.920
6726,6.895
6727,6.915
6728,6.930
6729,6.920
6730,6.915
6731,6.920
6732,6.905
6733,6.915
6734,6.915
6735,6.920
6736,6.915
6737,6.915
6738,6.915
6739,6.920
6740,6.915
6741,6.920
6742,6.915
6743,6.920
6744,6.915
6745,6.915
6746,6.920
6747,6.920
6748,6.915
6749,6.915
6750,6.920
6751,6.915
6752,6.915
6753,6.885
6754,6.915
6755,6.915
6756,6.915
6757,6.915
6758,6.915
6759,6.915
6760,6.905
6761,6.915
6762,6.930
6763,6.940
6764,6.930
6765,6.930
6766,6.920
6767,6.930
6768,6.920
6769,6.885
6770,6.930
6771,6.930
6772,6.930
6773,6.930
6774,6.940
6775,6.940
6776,6.930
6777,6.940
6778,6.945
6779,6.955
6780,6.940
6781,6.965
6782,6.955
6783,6.965
6784,6.955
6785,6.955
6786,6.970
6787,6.995
6788,7.015
6789,7.005
6790,6.990
6791,6.990
6792,7.015
6793,6.995
6794,6.990
6795,6.965
6796,6.965
6797,6.965
6798,6.955
6799,6.955
6800,6.945
6801,6.930
6802,6.945
6803,6.940
6804,6.945
6805,6.930
6806,6.930
6807,6.930
6808,6.930
6809,6.940
6810,6.940
6811,6.945
6812,6.895
6813,6.945
6814,6.930
6815,6.945
6816,6.965
6817,6.940
6818,6.965
6819,6.970
6820,6.965
6821,6.965
6822,6.970
6823,7.005
6824,7.090
6825,7.250
6826,7.440
6827,7.650
6828,7.835
6829,7.870
6830,7.860
6831,7.820
6832,7.725
6833,7.465
6834,6.955
6835,6.635
6836,6.665
6837,6.750
6838,6.800
6839,6.835
6840,6.855
6841,6.895
6842,6.920
6843,6.940
6844,6.945
6845,6.965
6846,6.965
6847,6.970
6848,6.970
6849,6.980
6850,6.980
6851,6.990
6852,6.970
6853,6.980
6854,6.970
6855,6.945
6856,6.995
6857,6.995
6858,6.990
6859,6.980
6860,6.995
6861,6.995
6862,6.995
6863,6.995
6864,6.990
6865,6.995
6866,7.015
6867,7.015
6868,7.005
6869,7.015
6870,7.015
6871,7.050
6872,7.025
6873,7.025
6874,7.030
6875,7.040
6876,7.040
6877,7.050
6878,7.050
6879,7.050
6880,7.040
6881,7.050
6882,7.055
6883,7.075
6884,7.065
6885,7.075
6886,7.065
6887,7.105
6888,7.100
6889,7.100
6890,7.100
6891,7.105
6892,7.115
6893,7.125
6894,7.140
6895,7.135
6896,7.140
6897,7.135
6898,7.150
6899,7.150
6900,7.160
6901,7.160
6902,7.160
6903,7.165
6904,7.165
6905,7.165
6906,7.165
6907,7.160
6908,7.150
6909,7.140
6910,7.150
6911,7.135
6912,7.115
6913,7.105
6914,7.125
6915,7.090
6916,7.055
6917,7.050
6918,7.015
6919,7.015
6920,6.990
6921,6.980
6922,6.965
6923,6.945
6924,6.940
6925,6.920
6926,6.930
6927,6.940
6928,6.920
6929,6.930
6930,6.915
6931,6.945
6932,6.940
6933,6.955
6934,6.955
6935,6.965
6936,6.965
6937,6.970
6938,6.965
6939,6.990
6940,6.995
6941,6.990
6942,6.990
6943,6.990
6944,6.995
6945,6.990
6946,7.005
6947,7.005
6948,7.015
6949,7.015
6950,7.005
6951,6.995
6952,6.995
6953,6.995
6954,6.995
6955,7.005
6956,6.995
6957,7.040
6958,7.005
6959,6.995
6960,6.990
6961,6.995
6962,7.005
6963,7.005
6964,6.990
6965,6.995
6966,7.005
6967,6.995
6968,6.995
6969,6.995
6970,6.995
6971,6.990
6972,6.980
6973,7.025
6974,6.980
6975,6.980
6976,6.980
6977,6.980
6978,6.980
6979,6.970
6980,6.970
6981,6.970
6982,6.965
6983,6.965
6984,6.970
6985,6.965
6986,6.970
6987,6.965
6988,6.970
6989,6.940
6990,6.965
6991,6.965
6992,6.965
6993,6.965
6994,6.965
6995,6.965
6996,6.965
6997,6.955
6998,6.955
6999,6.965
7000,6.945
7001,6.945
7002,6.955
7003,6.965
7004,6.955
7005,6.945
7006,6.945
7007,6.955
7008,6.940
7009,6.955
7010,6.955
7011,6.945
7012,6.945
7013,6.955
7014,6.945
7015,6.955
7016,6.915
7017,6.955
7018,6.945
7019,6.955
7020,6.945
7021,6.940
7022,6.945
7023,6.955
7024,6.965
7025,6.965
7026,6.970
7027,7.005
7028,6.990
7029,6.980
7030,6.980
7031,6.990
7032,7.015
7033,6.970
7034,6.970
7035,6.970
7036,6.970
7037,6.955
7038,6.970
7039,6.970
7040,6.970
7041,6.970
7042,6.970
7043,6.955
7044,6.945
7045,6.930
7046,6.930
7047,6.940
7048,6.905
7049,6.930
7050,6.920
7051,6.930
7052,6.920
7053,6.930
7054,6.920
7055,6.940
7056,6.930
7057,6.940
7058,6.945
7059,6.945
7060,6.940
7061,6.945
7062,6.955
7063,6.955
7064,6.945
7065,6.965
7066,6.965
7067,6.965
7068,6.970
7069,7.040
7070,7.150
7071,7.330
7072,7.515
7073,7.735
7074,7.860
7075,7.885
7076,7.845
7077,7.785
7078,7.590
7079,7.125
7080,6.675
7081,6.625
7082,6.710
7083,6.775
7084,6.810
7085,6.855
7086,6.885
7087,6.920
7088,6.945
7089,6.955
7090,6.970
7091,6.945
7092,6.980
7093,6.980
7094,6.980
7095,6.980
7096,6.995
7097,6.995
7098,6.990
7099,6.990
7100,6.990
7101,6.990
7102,7.005
7103,6.995
7104,6.995
7105,7.005
7106,7.005
7107,7.015
7108,7.005
7109,7.015
7110,7.025
7111,7.030
7112,7.025
7113,7.050
7114,7.040
7115,7.050
7116,7.040
7117,7.030
7118,7.065
7119,7.040
7120,7.040
7121,7.050
7122,7.050
7123,7.055
7124,7.050
7125,7.050
7126,7.050
7127,7.050
7128,7.050
7129,7.055
7130,7.075
7131,7.065
7132,7.075
7133,7.065
7134,7.105
7135,7.090
7136,7.100
7137,7.100
7138,7.100
7139,7.115
7140,7.115
7141,7.125
7142,7.140
7143,7.125
7144,7.125
7145,7.135
7146,7.135
7147,7.150
7148,7.150
7149,7.140
7150,7.175
7151,7.160
7152,7.150
7153,7.135
7154,7.125
7155,7.125
7156,7.115
7157,7.100
7158,7.090
7159,7.075
7160,7.050
7161,7.050
7162,7.025
7163,7.005
7164,6.995
7165,6.965
7166,6.955
7167,6.955
7168,6.945
7169,6.945
7170,6.930
7171,6.930
7172,6.930
7173,6.930
7174,6.930
7175,6.945
7176,6.945
7177,6.915
7178,6.955
7179,6.965
7180,6.970
7181,6.965
7182,6.965
7183,6.965
7184,6.970
7185,6.980
7186,6.970
7187,6.970
7188,6.995
7189,6.990
7190,6.990
7191,6.970
7192,6.970
7193,7.015
7194,6.990
7195,6.980
7196,6.990
7197,6.980
7198,6.990
7199,6.990
7200,6.995
7201,6.980
7202,6.970
7203,6.970
7204,6.980
7205,6.970
7206,6.970
7207,6.970
7208,6.970
7209,6.945
7210,6.965
7211,6.965
7212,6.965
7213,6.970
7214,6.965
7215,6.955
7216,6.945
7217,6.945
7218,6.945
7219,6.940
7220,6.945
7221,6.940
7222,6.945
7223,6.940
7224,6.940
7225,6.930
7226,6.930
7227,6.940
7228,6.945
7229,6.930
7230,6.940
7231,6.930
7232,6.930
7233,6.930
7234,6.940
7235,6.920
7236,6.885
7237,6.915
7238,6.915
7239,6.920
7240,6.930
7241,6.915
7242,6.930
7243,6.915
7244,6.915
7245,6.915
7246,6.905
7247,6.915
7248,6.905
7249,6.915
7250,6.915
7251,6.920
7252,6.880
7253,6.915
7254,6.915
7255,6.915
7256,6.920
7257,6.915
7258,6.915
7259,6.920
7260,6.915
7261,6.915
7262,6.920
7263,6.915
7264,6.905
7265,6.905
7266,6.915
7267,6.915
7268,6.895
7269,6.915
7270,6.905
7271,6.915
7272,6.895
7273,6.905
7274,6.895
7275,6.895
7276,6.895
7277,6.905
7278,6.905
7279,6.880
7280,6.895
7281,6.895
7282,6.895
7283,6.915
7284,6.885
7285,6.915
7286,6.915
7287,6.915
7288,6.905
7289,6.915
7290,6.930
7291,6.915
7292,6.895
7293,6.905
7294,6.915
7295,6.860
7296,6.895
7297,6.915
7298,6.915
7299,6.915
7300,6.895
7301,6.915
7302,6.915
7303,6.920
7304,6.905
7305,6.905
7306,6.915
7307,6.915
7308,6.905
7309,6.905
7310,6.905
7311,6.880
7312,6.905
7313,6.915
7314,6.915
7315,6.915
7316,6.915
7317,6.915
7318,6.915
7319,6.915
7320,6.905
7321,6.915
7322,6.920
7323,6.920
7324,6.915
7325,6.915
7326,6.915
7327,6.915
7328,6.915
7329,6.915
7330,6.905
7331,6.920
7332,6.915
7333,6.920
7334,6.915
7335,6.915
7336,6.915
7337,6.915
7338,6.885
7339,6.920
7340,6.915
7341,6.920
7342,6.920
7343,6.915
7344,6.920
7345,6.920
7346,6.920
7347,6.920
7348,6.930
7349,6.945
7350,6.930
7351,6.930
7352,6.930
7353,6.930
7354,6.895
7355,6.920
7356,6.930
7357,6.920
7358,6.920
7359,6.940
7360,6.920
7361,6.945
7362,6.930
7363,6.940
7364,6.920
7365,6.920
7366,6.930
7367,6.930
7368,6.930
7369,6.930
7370,6.920
7371,6.940
7372,6.930
7373,6.930
7374,6.940
7375,6.940
7376,6.920
7377,6.930
7378,6.945
7379,6.940
7380,6.945
7381,6.940
7382,6.930
7383,6.940
7384,6.945
7385,6.930
7386,6.940
7387,6.940
7388,6.940
7389,6.945
7390,6.945
7391,6.945
7392,6.945
7393,6.945
7394,6.945
7395,6.955
7396,6.945
7397,6.915
7398,6.945
7399,6.955
7400,6.965
7401,6.955
7402,6.945
7403,6.955
7404,6.965
7405,6.955
7406,6.965
7407,6.970
7408,6.955
7409,6.965
7410,6.965
7411,6.970
7412,6.970
7413,6.930
7414,6.965
7415,6.970
7416,6.955
7417,6.965
7418,6.965
7419,6.970
7420,6.965
7421,6.965
7422,6.970
7423,6.965
7424,6.970
7425,6.965
7426,6.980
7427,6.965
7428,6.970
7429,6.965
7430,6.970
7431,6.990
7432,6.995
7433,6.990
7434,6.970
7435,6.980
7436,6.995
7437,6.990
7438,6.990
7439,6.995
7440,7.040
7441,7.015
7442,7.025
7443,7.015
7444,7.015
7445,7.025
7446,7.050
7447,7.050
7448,7.050
7449,7.050
7450,7.050
7451,7.050
7452,7.040
7453,7.050
7454,7.050
7455,7.025
7456,7.050
7457,7.025
7458,7.005
7459,7.005
7460,6.980
7461,7.005
7462,6.995
7463,7.005
7464,6.980
7465,6.980
7466,6.980
7467,6.980
7468,6.990
7469,6.990
7470,7.005
7471,6.990
7472,7.030
7473,7.005
7474,7.015
7475,7.025
7476,7.025
7477,7.030
7478,7.050
7479,7.055
7480,7.080
7481,7.115
7482,7.190
7483,7.355
7484,7.525
7485,7.725
7486,7.885
7487,7.905
7488,7.870
7489,7.810
7490,7.635
7491,7.225
7492,6.785
7493,6.700
7494,6.795
7495,6.855
7496,6.885
7497,6.920
7498,6.955
7499,6.945
7500,7.015
7501,7.005
7502,7.025
7503,7.030
7504,7.050
7505,7.050
7506,7.050
7507,7.040
7508,7.030
7509,7.040
7510,7.050
7511,7.050
7512,7.040
7513,7.040
7514,7.050
7515,7.080
7516,7.050
7517,7.050
7518,7.050
7519,7.050
7520,7.050
7521,7.065
7522,7.065
7523,7.065
7524,7.065
7525,7.065
7526,7.065
7527,7.075
7528,7.080
7529,7.080
7530,7.080
7531,7.105
7532,7.100
7533,7.115
7534,7.105
7535,7.105
7536,7.115
7537,7.115
7538,7.115
7539,7.135
7540,7.135
7541,7.140
7542,7.150
7543,7.150
7544,7.165
7545,7.165
7546,7.165
7547,7.190
7548,7.190
7549,7.200
7550,7.220
7551,7.225
7552,7.220
7553,7.235
7554,7.235
7555,7.245
7556,7.235
7557,7.235
7558,7.285
7559,7.245
7560,7.245
7561,7.235
7562,7.235
7563,7.245
7564,7.225
7565,7.220
7566,7.225
7567,7.210
7568,7.185
7569,7.185
7570,7.160
7571,7.140
7572,7.115
7573,7.090
7574,7.090
7575,7.050
7576,7.030
7577,7.015
7578,6.995
7579,6.970
7580,6.965
7581,6.955
7582,6.945
7583,6.940
7584,6.945
7585,6.945
7586,6.955
7587,6.955
7588,6.965
7589,6.970
7590,6.965
7591,6.995
7592,7.015
7593,7.015
7594,7.025
7595,7.015
7596,7.030
7597,7.030
7598,7.050
7599,7.040
7600,7.025
7601,7.065
7602,7.050
7603,7.050
7604,7.050
7605,7.050
7606,7.055
7607,7.050
7608,7.065
7609,7.055
7610,7.055
7611,7.050
7612,7.050
7613,7.050
7614,7.050
7615,7.055
7616,7.050
7617,7.080
7618,7.040
7619,7.050
7620,7.040
7621,7.050
7622,7.050
7623,7.050
7624,7.040
7625,7.030
7626,7.030
7627,7.015
7628,7.015
7629,7.025
7630,7.025
7631,7.015
7632,7.005
7633,7.030
7634,6.995
7635,6.995
7636,6.995
7637,6.990
7638,6.990
7639,6.990
7640,6.995
7641,6.995
7642,6.990
7643,6.990
7644,6.990
7645,6.980
7646,6.980
7647,6.990
7648,6.970
7649,6.980
7650,6.970
7651,6.970
7652,6.965
7653,6.965
7654,6.965
7655,6.970
7656,6.965
7657,6.965
7658,6.965
7659,6.970
7660,6.920
7661,6.955
7662,6.955
7663,6.945
7664,6.955
7665,6.940
7666,6.945
7667,6.945
7668,6.965
7669,6.945
7670,6.955
7671,6.965
7672,6.965
7673,6.945
7674,6.955
7675,6.955
7676,6.915
7677,6.945
7678,6.940
7679,6.955
7680,6.940
7681,6.940
7682,6.945
7683,6.945
7684,6.945
7685,6.945
7686,6.945
7687,6.930
7688,6.940
7689,6.930
7690,6.930
7691,6.945
7692,6.920
7693,6.945
7694,6.940
7695,6.940
7696,6.945
7697,6.930
7698,6.940
7699,6.930
7700,6.945
7701,6.930
7702,6.940
7703,6.945
7704,6.930
7705,6.940
7706,6.930
7707,6.930
7708,6.930
7709,6.940
7710,6.930
7711,6.940
7712,6.945
7713,6.945
7714,6.940
7715,6.940
7716,6.930
7717,6.945
7718,6.940
7719,6.895
7720,6.945
7721,6.930
7722,6.930
7723,6.930
7724,6.940
7725,6.940
7726,6.930
7727,6.930
7728,6.930
7729,6.930
7730,6.930
7731,6.940
7732,6.930
7733,6.940
7734,6.930
7735,6.885
7736,6.920
7737,6.920
7738,6.930
7739,6.920
7740,6.930
7741,6.940
7742,6.940
7743,6.920
7744,6.930
7745,6.940
7746,6.930
7747,6.930
7748,6.930
7749,6.940
7750,6.930
7751,6.920
7752,6.930
7753,6.930
7754,6.920
7755,6.930
7756,6.930
7757,6.930
7758,6.940
7759,6.930
7760,6.930
7761,6.930
7762,6.895
7763,6.940
7764,6.920
7765,6.930
7766,6.945
7767,6.920
7768,6.920
7769,6.940
7770,6.940
7771,6.940
7772,6.945
7773,6.965
7774,6.945
7775,6.930
7776,6.945
7777,6.945
7778,6.915
7779,6.940
7780,6.940
7781,6.945
7782,6.945
7783,6.940
7784,6.945
7785,6.945
7786,6.945
7787,6.945
7788,6.945
7789,6.930
7790,6.940
7791,6.945
7792,6.940
7793,6.940
7794,6.905
7795,6.945
7796,6.945
7797,6.930
7798,6.945
7799,6.945
7800,6.930
7801,6.940
7802,6.945
7803,6.945
7804,6.945
7805,6.930
7806,6.940
7807,6.940
7808,6.945
7809,6.940
7810,6.940
7811,6.930
7812,6.945
7813,6.945
7814,6.955
7815,6.955
7816,6.945
7817,6.945
7818,6.955
7819,6.945
7820,6.965
7821,6.915
7822,6.965
7823,6.955
7824,6.955
7825,6.955
7826,6.945
7827,6.955
7828,6.965
7829,6.970
7830,6.955
7831,6.965
7832,6.970
7833,6.965
7834,6.965
7835,6.970
7836,6.980
7837,6.945
7838,6.990
7839,6.995
7840,6.990
7841,6.990
7842,6.990
7843,7.015
7844,7.030
7845,7.025
7846,7.025
7847,7.005
7848,7.005
7849,7.025
7850,7.015
7851,7.005
7852,6.990
7853,6.995
7854,6.995
7855,6.990
7856,6.965
7857,6.970
7858,6.965
7859,6.970
7860,6.965
7861,6.965
7862,6.965
7863,6.965
7864,6.965
7865,6.965
7866,6.965
7867,6.970
7868,6.970
7869,6.970
7870,6.990
7871,6.990
7872,6.995
7873,6.995
7874,6.995
7875,7.005
7876,6.995
7877,7.015
7878,7.065
7879,7.190
7880,7.420
7881,7.580
7882,7.785
7883,7.880
7884,7.895
7885,7.880
7886,7.810
7887,7.600
7888,7.135
7889,6.700
7890,6.710
7891,6.810
7892,6.845
7893,6.885
7894,6.920
7895,6.945
7896,6.945
7897,6.980
7898,6.990
7899,6.995
7900,7.015
7901,7.015
7902,7.025
7903,7.015
7904,7.025
7905,7.015
7906,7.015
7907,7.025
7908,7.015
7909,7.025
7910,7.025
7911,7.025
7912,7.030
7913,7.030
7914,7.025
7915,7.030
7916,7.030
7917,7.030
7918,7.030
7919,7.050
7920,7.040
7921,7.030
7922,7.025
7923,7.075
7924,7.040
7925,7.040
7926,7.050
7927,7.050
7928,7.065
7929,7.075
7930,7.055
7931,7.055
7932,7.065
7933,7.075
7934,7.075
7935,7.065
7936,7.075
7937,7.080
7938,7.075
7939,7.115
7940,7.100
7941,7.090
7942,7.100
7943,7.105
7944,7.105
7945,7.125
7946,7.115
7947,7.135
7948,7.125
7949,7.135
7950,7.140
7951,7.140
7952,7.150
7953,7.160
7954,7.150
7955,7.190
7956,7.160
7957,7.160
7958,7.150
7959,7.140
7960,7.140
7961,7.150
7962,7.140
7963,7.125
7964,7.125
7965,7.105
7966,7.100
7967,7.090
7968,7.055
7969,7.050
7970,7.025
7971,7.025
7972,6.995
7973,6.970
7974,6.955
7975,6.955
7976,6.930
7977,6.915
7978,6.915
7979,6.920
7980,6.930
7981,6.930
7982,6.885
7983,6.940
7984,6.945
7985,6.955
7986,6.955
7987,6.955
7988,6.970
7989,6.970
7990,6.990
7991,6.990
7992,6.990
7993,7.005
7994,7.005
7995,7.005
7996,7.015
7997,6.995
7998,7.030
7999,7.025
8000,7.015
8001,7.025
8002,7.015
8003,7.005
8004,7.005
8005,7.025
8006,7.015
8007,7.015
8008,7.015
8009,7.015
8010,7.015
8011,7.015
8012,7.015
8013,7.015
8014,7.025
8015,7.005
8016,7.015
8017,7.015
8018,6.995
8019,6.995
8020,7.005
8021,7.005
8022,6.995
8023,6.990
8024,6.980
8025,7.005
8026,6.990
8027,6.980
8028,6.980
8029,6.980
8030,6.965
8031,6.970
8032,6.965
8033,6.970
8034,6.970
8035,6.970
8036,6.965
8037,6.965
8038,6.970
8039,6.955
8040,6.965
8041,6.915
8042,6.945
8043,6.955
8044,6.965
8045,6.945
8046,6.945
8047,6.940
8048,6.945
8049,6.945
8050,6.945
8051,6.945
8052,6.945
8053,6.945
8054,6.945
8055,6.955
8056,6.945
8057,6.915
8058,6.940
8059,6.930
8060,6.945
8061,6.930
8062,6.940
8063,6.940
8064,6.945
8065,6.945
8066,6.940
8067,6.940
8068,6.930
8069,6.940
8070,6.930
8071,6.930
8072,6.945
8073,6.930
8074,6.930
8075,6.940
8076,6.920
8077,6.930
8078,6.930
8079,6.930
8080,6.930
8081,6.930
8082,6.940
8083,6.940
8084,6.895
8085,6.930
8086,6.930
8087,6.930
8088,6.945
8089,6.920
8090,6.940
8091,6.930
8092,6.945
8093,6.930
8094,6.930
8095,6.955
8096,6.940
8097,6.930
8098,6.930
8099,6.930
8100,6.885
8101,6.940
8102,6.920
8103,6.940
8104,6.940
8105,6.920
8106,6.920
8107,6.930
8108,6.945
8109,6.930
8110,6.940
8111,6.920
8112,6.930
8113,6.920
8114,6.930
8115,6.930
8116,6.895
8117,6.930
8118,6.930
8119,6.930
8120,6.930
8121,6.930
8122,6.940
8123,6.930
8124,6.930
8125,6.920
8126,6.930
8127,6.930
8128,6.945
8129,6.940
8130,6.930
8131,6.920
8132,6.915
8133,6.920
8134,6.930
8135,6.940
8136,6.930
8137,6.940
8138,6.930
8139,6.930
8140,6.930
8141,6.930
8142,6.920
8143,6.885
8144,6.930
8145,6.940
8146,6.930
8147,6.940
8148,6.930
8149,6.920
8150,6.930
8151,6.930
8152,6.920
8153,6.945
8154,6.945
8155,6.940
8156,6.930
8157,6.940
8158,6.945
8159,6.915
8160,6.930
8161,6.930
8162,6.930
8163,6.930
8164,6.945
8165,6.945
8166,6.940
8167,6.940
8168,6.945
8169,6.930
8170,6.930
8171,6.940
8172,6.945
8173,6.945
8174,6.945
8175,6.940
8176,6.945
8177,6.930
8178,6.945
8179,6.955
8180,6.965
8181,6.955
8182,6.955
8183,6.955
8184,6.955
8185,6.965
8186,6.965
8187,6.970
8188,6.965
8189,6.970
8190,6.965
8191,6.965
8192,6.965
8193,6.965
8194,6.965
8195,6.965
8196,6.965
8197,6.965
8198,6.965
8199,6.965
8200,6.965
8201,6.965
8202,6.920
8203,6.970
8204,6.955
8205,6.955
8206,6.970
8207,6.945
8208,6.955
8209,6.970
8210,6.965
8211,6.970
8212,6.970
8213,6.965
8214,6.965
8215,6.970
8216,6.970
8217,6.980
8218,6.945
8219,6.970
8220,6.980
8221,6.980
8222,6.990
8223,6.990
8224,6.995
8225,6.995
8226,6.995
8227,7.005
8228,7.025
8229,7.030
8230,7.030
8231,7.025
8232,7.015
8233,7.015
8234,7.030
8235,7.030
8236,7.015
8237,7.015
8238,7.005
8239,6.990
8240,6.995
8241,6.980
8242,6.990
8243,6.970
8244,6.965
8245,7.015
8246,6.965
8247,6.965
8248,6.965
8249,6.970
8250,6.965
8251,6.970
8252,6.980
8253,6.980
8254,6.990
8255,6.990
8256,6.995
8257,7.005
8258,7.005
8259,7.005
8260,6.995
8261,7.050
8262,7.015
8263,7.050
8264,7.135
8265,7.295
8266,7.465
8267,7.685
8268,7.860
8269,7.895
8270,7.885
8271,7.835
8272,7.700
8273,7.380
8274,6.885
8275,6.675
8276,6.750
8277,6.795
8278,6.855
8279,6.905
8280,6.920
8281,6.965
8282,6.990
8283,6.995
8284,7.015
8285,7.015
8286,7.025
8287,7.025
8288,7.025
8289,7.030
8290,7.030
8291,7.040
8292,7.030
8293,7.050
8294,7.030
8295,7.030
8296,7.030
8297,7.030
8298,7.050
8299,7.050
8300,7.050
8301,7.050
8302,7.050
8303,7.050
8304,7.080
8305,7.055
8306,7.065
8307,7.055
8308,7.055
8309,7.075
8310,7.075
8311,7.065
8312,7.065
8313,7.065
8314,7.065
8315,7.080
8316,7.080
8317,7.090
8318,7.100
8319,7.090
8320,7.115
8321,7.105
8322,7.115
8323,7.115
8324,7.115
8325,7.115
8326,7.135
8327,7.140
8328,7.135
8329,7.150
8330,7.135
8331,7.160
8332,7.160
8333,7.185
8334,7.185
8335,7.175
8336,7.200
8337,7.190
8338,7.200
8339,7.210
8340,7.210
8341,7.220
8342,7.235
8343,7.225
8344,7.225
8345,7.225
8346,7.210
8347,7.235
8348,7.220
8349,7.200
8350,7.190
8351,7.185
8352,7.165
8353,7.150
8354,7.135
8355,7.125
8356,7.090
8357,7.055
8358,7.050
8359,7.030
8360,7.005
8361,6.980
8362,6.970
8363,6.930
8364,6.945
8365,6.940
8366,6.930
8367,6.930
8368,6.920
8369,6.930
8370,6.945
8371,6.940
8372,6.965
8373,6.970
8374,6.970
8375,6.970
8376,6.990
8377,6.990
8378,6.995
8379,7.025
8380,7.015
8381,7.015
8382,7.015
8383,7.005
8384,7.015
8385,7.015
8386,7.015
8387,7.025
8388,7.005
8389,7.015
8390,7.015
8391,7.015
8392,7.015
8393,7.015
8394,7.015
8395,7.025
8396,7.005
8397,7.025
8398,7.015
8399,7.025
8400,7.015
8401,7.005
8402,7.005
8403,7.005
8404,6.990
8405,6.990
8406,7.030
8407,6.990
8408,6.995
8409,6.980
8410,6.990
8411,6.965
8412,6.970
8413,6.965
8414,6.970
8415,6.965
8416,6.970
8417,7.005
8418,6.965
8419,6.965
8420,6.955
8421,6.965
8422,6.920
8423,6.955
8424,6.945
8425,6.955
8426,6.945
8427,6.955
8428,6.945
8429,6.945
8430,6.945
8431,6.940
8432,6.945
8433,6.930
8434,6.945
8435,6.945
8436,6.945
8437,6.940
8438,6.915
8439,6.940
8440,6.930
8441,6.930
8442,6.930
8443,6.930
8444,6.945
8445,6.940
8446,6.930
8447,6.930
8448,6.920
8449,6.920
8450,6.920
8451,6.930
8452,6.930
8453,6.930
8454,6.920
8455,6.920
8456,6.930
8457,6.920
8458,6.920
8459,6.930
8460,6.930
8461,6.920
8462,6.920
8463,6.930
8464,6.930
8465,6.895
8466,6.920
8467,6.930
8468,6.920
8469,6.930
8470,6.920
8471,6.920
8472,6.930
8473,6.940
8474,6.930
8475,6.930
8476,6.930
8477,6.930
8478,6.930
8479,6.930
8480,6.945
8481,6.915
8482,6.930
8483,6.930
8484,6.940
8485,6.940
8486,6.930
8487,6.930
8488,6.930
8489,6.930
8490,6.930
8491,6.930
8492,6.920
8493,6.930
8494,6.930
8495,6.920
8496,6.930
8497,6.920
8498,6.930
8499,6.930
8500,6.930
8501,6.930
8502,6.920
8503,6.920
8504,6.930
8505,6.940
8506,6.930
8507,6.940
8508,6.940
8509,6.930
8510,6.940
8511,6.940
8512,6.930
8513,6.920
8514,6.920
8515,6.940
8516,6.930
8517,6.940
8518,6.945
8519,6.930
8520,6.945
8521,6.930
8522,6.920
8523,6.930
8524,6.895
8525,6.940
8526,6.940
8527,6.930
8528,6.930
8529,6.930
8530,6.930
8531,6.930
8532,6.930
8533,6.930
8534,6.945
8535,6.940
8536,6.945
8537,6.940
8538,6.930
8539,6.940
8540,6.895
8541,6.920
8542,6.930
8543,6.940
8544,6.930
8545,6.945
8546,6.930
8547,6.930
8548,6.930
8549,6.940
8550,6.955
8551,6.930
8552,6.940
8553,6.940
8554,6.945
8555,6.940
8556,6.945
8557,6.940
8558,6.930
8559,6.940
8560,6.945
8561,6.930
8562,6.945
8563,6.940
8564,6.945
8565,6.940
8566,6.945
8567,6.915
8568,6.945
8569,6.945
8570,6.945
8571,6.965
8572,6.940
8573,6.945
8574,6.945
8575,6.955
8576,6.940
8577,6.955
8578,6.990
8579,6.955
8580,6.965
8581,6.965
8582,6.965
8583,6.920
8584,6.965
8585,6.955
8586,6.955
8587,6.955
8588,6.965
8589,6.965
8590,6.965
8591,6.970
8592,6.965
8593,6.965
8594,6.965
8595,6.990
8596,6.980
8597,6.995
8598,6.990
8599,7.025
8600,6.995
8601,6.995
8602,7.015
8603,7.015
8604,7.015
8605,7.015
8606,7.005
8607,6.990
8608,6.980
8609,6.990
8610,6.995
8611,6.990
8612,6.980
8613,6.980
8614,6.980
8615,6.955
8616,6.965
8617,6.955
8618,6.965
8619,6.970
8620,6.955
8621,6.965
8622,6.965
8623,6.970
8624,6.965
8625,6.970
8626,6.945
8627,6.990
8628,6.980
8629,6.980
8630,6.970
8631,6.995
8632,6.995
8633,6.995
8634,7.015
8635,7.015
8636,7.015
8637,7.050
8638,7.115
8639,7.235
8640,7.420
8641,7.605
8642,7.830
8643,7.885
8644,7.870
8645,7.860
8646,7.775
8647,7.525
8648,7.040
8649,6.685
8650,6.725
8651,6.810
8652,6.860
8653,6.895
8654,6.930
8655,6.955
8656,6.995
8657,6.995
8658,7.015
8659,7.025
8660,7.030
8661,7.050
8662,7.040
8663,7.040
8664,7.050
8665,7.040
8666,7.030
8667,7.040
8668,7.030
8669,7.055
8670,7.040
8671,7.050
8672,7.050
8673,7.040
8674,7.040
8675,7.050
8676,7.050
8677,7.050
8678,7.055
8679,7.050
8680,7.055
8681,7.075
8682,7.065
8683,7.065
8684,7.055
8685,7.100
8686,7.075
8687,7.075
8688,7.075
8689,7.075
8690,7.090
8691,7.090
8692,7.090
8693,7.100
8694,7.100
8695,7.090
8696,7.100
8697,7.105
8698,7.115
8699,7.115
8700,7.115
8701,7.150
8702,7.135
8703,7.140
8704,7.140
8705,7.140
8706,7.150
8707,7.160
8708,7.160
8709,7.165
8710,7.185
8711,7.175
8712,7.175
8713,7.185
8714,7.190
8715,7.190
8716,7.185
8717,7.190
8718,7.190
8719,7.190
8720,7.185
8721,7.165
8722,7.165
8723,7.165
8724,7.160
8725,7.150
8726,7.125
8727,7.115
8728,7.125
8729,7.090
8730,7.055
8731,7.050
8732,7.015
8733,7.005
8734,6.990
8735,6.970
8736,6.955
8737,6.940
8738,6.940
8739,6.955
8740,6.905
8741,6.915
8742,6.920
8743,6.930
8744,6.895
8745,6.940
8746,6.945
8747,6.955
8748,6.965
8749,6.965
8750,6.970
8751,6.990
8752,6.995
8753,6.995
8754,7.015
8755,7.025
8756,7.005
8757,7.015
8758,7.025
8759,7.025
8760,7.040
8761,7.025
8762,7.025
8763,7.030
8764,7.030
8765,7.025
8766,7.030
8767,7.025
8768,7.030
8769,7.040
8770,7.030
8771,7.050
8772,7.040
8773,7.030
8774,7.030
8775,7.040
8776,7.030
8777,7.030
8778,7.025
8779,7.030
8780,7.025
8781,7.025
8782,7.025
8783,7.015
8784,7.005
8785,7.005
8786,6.995
8787,7.040
8788,6.995
8789,7.005
8790,7.005
8791,6.995
8792,6.995
8793,6.980
8794,6.970
8795,6.970
8796,6.990
8797,6.970
8798,6.965
8799,6.965
8800,6.970
8801,6.970
8802,6.970
8803,6.940
8804,6.965
8805,6.965
8806,6.970
8807,6.955
8808,6.965
8809,6.965
8810,6.965
8811,6.955
8812,6.965
8813,6.955
8814,6.945
8815,6.955
8816,6.955
8817,6.945
8818,6.955
8819,6.940
8820,6.955
8821,6.945
8822,6.945
8823,6.945
8824,6.955
8825,6.955
8826,6.945
8827,6.945
8828,6.940
8829,6.955
8830,6.940
8831,6.945
8832,6.945
8833,6.945
8834,6.945
8835,6.940
8836,6.955
8837,6.945
8838,6.955
8839,6.930
8840,6.945
8841,6.940
8842,6.930
8843,6.940
8844,6.945
8845,6.945
8846,6.895
8847,6.930
8848,6.940
8849,6.930
8850,6.940
8851,6.930
8852,6.945
8853,6.940
8854,6.940
8855,6.945
8856,6.930
8857,6.930
8858,6.930
8859,6.940
8860,6.940
8861,6.945
8862,6.905
8863,6.940
8864,6.930
8865,6.930
8866,6.930
8867,6.930
8868,6.930
8869,6.930
8870,6.940
8871,6.930
8872,6.945
8873,6.930
8874,6.945
8875,6.930
8876,6.945
8877,6.945
8878,6.930
8879,6.955
8880,6.940
8881,6.945
8882,6.945
8883,6.940
8884,6.940
8885,6.945
8886,6.945
8887,6.940
8888,6.945
8889,6.905
8890,6.945
8891,6.945
8892,6.945
8893,6.955
8894,6.930
8895,6.955
8896,6.945
8897,6.945
8898,6.945
8899,6.955
8900,6.990
8901,6.945
8902,6.945
8903,6.945
8904,6.945
8905,6.915
8906,6.955
8907,6.955
8908,6.945
8909,6.965
8910,6.955
8911,6.955
8912,6.945
8913,6.945
8914,6.955
8915,6.955
8916,6.945
8917,6.970
8918,6.955
8919,6.965
8920,6.955
8921,6.940
8922,6.955
8923,6.955
8924,6.965
8925,6.955
8926,6.955
8927,6.945
8928,6.945
8929,6.945
8930,6.945
8931,6.945
8932,6.940
8933,6.955
8934,6.945
8935,6.945
8936,6.955
8937,6.945
8938,6.965
8939,6.955
8940,6.945
8941,6.955
8942,6.945
8943,6.955
8944,6.965
8945,6.965
8946,6.955
8947,6.955
8948,6.920
8949,6.955
8950,6.955
8951,6.955
8952,6.965
8953,6.945
8954,6.965
8955,6.955
8956,6.955
8957,6.965
8958,6.955
8959,6.955
8960,6.955
8961,6.965
8962,6.965
8963,6.965
8964,6.930
8965,6.965
8966,6.965
8967,6.955
8968,6.965
8969,6.970
8970,6.965
8971,6.965
8972,6.965
8973,6.965
8974,6.965
8975,6.965
8976,6.970
8977,6.970
8978,6.970
8979,6.990
8980,6.970
8981,6.980
8982,6.990
8983,6.990
8984,6.990
8985,6.980
8986,6.995
8987,7.005
8988,7.015
8989,7.015
8990,7.015
8991,7.050
8992,7.030
8993,7.025
8994,7.030
8995,7.025
8996,7.030
8997,7.005
8998,7.005
8999,7.005
9000,7.015
9001,7.015
9002,7.015
9003,7.015
9004,7.005
9005,6.995
9006,6.970
9007,7.015
9008,6.980
9009,6.970
9010,6.970
9011,6.970
9012,6.990
9013,6.990
9014,6.990
9015,6.995
9016,6.990
9017,6.990
9018,7.005
9019,7.015
9020,7.015
9021,7.015
9022,7.005
9023,7.050
9024,7.030
9025,7.025
9026,7.025
9027,7.050
9028,7.125
9029,7.295
9030,7.470
9031,7.685
9032,7.870
9033,7.920
9034,7.905
9035,7.880
9036,7.785
9037,7.470
9038,6.945
9039,6.685
9040,6.770
9041,6.845
9042,6.880
9043,6.920
9044,6.965
9045,6.990
9046,7.015
9047,7.015
9048,7.015
9049,7.040
9050,7.080
9051,7.055
9052,7.050
9053,7.050
9054,7.040
9055,7.065
9056,7.065
9057,7.050
9058,7.050
9059,7.050
9060,7.050
9061,7.055
9062,7.055
9063,7.065
9064,7.065
9065,7.065
9066,7.100
9067,7.075
9068,7.065
9069,7.075
9070,7.075
9071,7.075
9072,7.080
9073,7.090
9074,7.090
9075,7.090
9076,7.080
9077,7.090
9078,7.090
9079,7.090
9080,7.100
9081,7.090
9082,7.135
9083,7.105
9084,7.105
9085,7.105
9086,7.115
9087,7.115
9088,7.115
9089,7.125
9090,7.135
9091,7.140
9092,7.125
9093,7.150
9094,7.150
9095,7.160
9096,7.160
9097,7.165
9098,7.185
9099,7.190
9100,7.190
9101,7.200
9102,7.200
9103,7.200
9104,7.200
9105,7.220
9106,7.220
9107,7.210
9108,7.210
9109,7.245
9110,7.210
9111,7.200
9112,7.190
9113,7.185
9114,7.175
9115,7.165
9116,7.150
9117,7.135
9118,7.125
9119,7.090
9120,7.090
9121,7.065
9122,7.050
9123,7.025
9124,6.995
9125,7.025
9126,6.970
9127,6.970
9128,6.965
9129,6.945
9130,6.945
9131,6.945
9132,6.945
9133,6.945
9134,6.955
9135,6.965
9136,6.965
9137,6.970
9138,6.980
9139,6.995
9140,6.995
9141,7.015
9142,7.015
9143,7.025
9144,7.030
9145,7.030
9146,7.050
9147,7.050
9148,7.040
9149,7.050
9150,7.050
9151,7.050
9152,7.080
9153,7.065
9154,7.055
9155,7.055
9156,7.065
9157,7.075
9158,7.065
9159,7.055
9160,7.055
9161,7.065
9162,7.055
9163,7.065
9164,7.055
9165,7.055
9166,7.055
9167,7.050
9168,7.080
9169,7.040
9170,7.050
9171,7.050
9172,7.040
9173,7.050
9174,7.050
9175,7.050
9176,7.050
9177,7.030
9178,7.015
9179,7.025
9180,7.015
9181,7.025
9182,7.025
9183,7.005
9184,7.050
9185,7.005
9186,7.015
9187,7.005
9188,6.990
9189,7.005
9190,7.015
9191,7.005
9192,7.015
9193,6.995
9194,6.980
9195,6.990
9196,6.990
9197,6.990
9198,6.990
9199,6.970
9200,6.990
9201,6.980
9202,6.970
9203,6.990
9204,6.970
9205,6.970
9206,6.970
9207,6.970
9208,6.970
9209,6.970
9210,6.965
9211,7.015
9212,6.970
9213,6.970
9214,6.965
9215,6.970
9216,6.965
9217,6.980
9218,6.980
9219,6.970
9220,6.970
9221,6.970
9222,7.015
9223,6.990
9224,6.970
9225,6.970
9226,6.970
9227,6.940
9228,6.980
9229,6.980
9230,6.970
9231,6.970
9232,6.980
9233,6.980
9234,6.990
9235,6.990
9236,6.980
9237,6.980
9238,6.970
9239,6.990
9240,6.995
9241,6.980
9242,6.970
9243,6.970
9244,6.970
9245,6.970
9246,6.970
9247,6.970
9248,6.970
9249,6.970
9250,6.970
9251,6.970
9252,6.965
9253,6.980
9254,6.965
9255,6.970
9256,6.970
9257,6.980
9258,6.970
9259,6.965
9260,6.970
9261,6.970
9262,6.965
9263,6.970
9264,6.970
9265,6.965
9266,6.965
9267,6.965
9268,6.965
9269,6.965
9270,6.930
9271,6.970
9272,6.970
9273,6.970
9274,6.970
9275,6.955
9276,6.970
9277,6.965
9278,6.970
9279,6.965
9280,6.970
9281,6.965
9282,6.970
9283,6.965
9284,6.970
9285,6.990
9286,6.945
9287,6.965
9288,6.970
9289,6.970
9290,6.970
9291,6.970
9292,6.970
9293,6.970
9294,6.980
9295,6.970
9296,6.970
9297,6.990
9298,6.995
9299,6.995
9300,6.995
9301,6.990
9302,7.005
9303,7.025
9304,7.030
9305,7.050
9306,7.030
9307,7.015
9308,7.025
9309,7.030
9310,7.030
9311,7.025
9312,6.995
9313,7.025
9314,6.995
9315,6.980
9316,6.970
9317,6.970
9318,6.955
9319,6.965
9320,6.965
9321,6.965
9322,6.955
9323,6.970
9324,6.965
9325,6.955
9326,6.965
9327,6.955
9328,6.965
9329,6.930
9330,6.965
9331,6.970
9332,6.980
9333,6.980
9334,6.970
9335,6.990
9336,6.995
9337,6.995
9338,7.005
9339,7.030
9340,7.100
9341,7.250
9342,7.420
9343,7.605
9344,7.800
9345,7.915
9346,7.880
9347,7.855
9348,7.760
9349,7.490
9350,7.015
9351,6.660
9352,6.685
9353,6.770
9354,6.820
9355,6.860
9356,6.885
9357,6.930
9358,6.970
9359,6.990
9360,6.995
9361,7.015
9362,7.025
9363,7.025
9364,7.030
9365,7.025
9366,7.025
9367,7.030
9368,7.030
9369,7.025
9370,7.025
9371,7.025
9372,7.055
9373,7.050
9374,7.050
9375,7.050
9376,7.030
9377,7.055
9378,7.050
9379,7.050
9380,7.040
9381,7.050
9382,7.050
9383,7.055
9384,7.055
9385,7.065
9386,7.065
9387,7.055
9388,7.100
9389,7.065
9390,7.075
9391,7.075
9392,7.075
9393,7.080
9394,7.090
9395,7.090
9396,7.090
9397,7.100
9398,7.090
9399,7.100
9400,7.105
9401,7.115
9402,7.115
9403,7.125
9404,7.160
9405,7.135
9406,7.150
9407,7.160
9408,7.165
9409,7.175
9410,7.165
9411,7.190
9412,7.185
9413,7.190
9414,7.190
9415,7.200
9416,7.220
9417,7.220
9418,7.225
9419,7.225
9420,7.225
9421,7.225
9422,7.225
9423,7.220
9424,7.200
9425,7.190
9426,7.190
9427,7.190
9428,7.160
9429,7.150
9430,7.125
9431,7.150
9432,7.090
9433,7.075
9434,7.055
9435,7.030
9436,7.015
9437,6.995
9438,6.965
9439,6.965
9440,6.965
9441,6.930
9442,6.930
9443,6.920
9444,6.930
9445,6.940
9446,6.945
9447,6.915
9448,6.945
9449,6.965
9450,6.965
9451,6.970
9452,6.970
9453,6.970
9454,6.980
9455,6.990
9456,6.990
9457,6.990
9458,7.005
9459,7.005
9460,6.995
9461,6.995
9462,6.990
9463,7.005
9464,6.995
9465,6.995
9466,7.015
9467,7.005
9468,7.005
9469,7.005
9470,7.005
9471,7.005
9472,6.995
9473,6.995
9474,7.030
9475,7.005
9476,7.015
9477,7.005
9478,7.005
9479,7.015
9480,6.995
9481,7.005
9482,6.990
9483,6.990
9484,6.980
9485,6.980
9486,6.970
9487,6.970
9488,6.965
9489,6.970
9490,6.930
9491,6.965
9492,6.965
9493,6.965
9494,6.965
9495,6.965
9496,6.955
9497,6.955
9498,6.945
9499,6.945
9500,6.945
9501,6.930
9502,6.930
9503,6.940
9504,6.930
9505,6.940
9506,6.915
9507,6.940
9508,6.930
9509,6.930
9510,6.930
9511,6.920
9512,6.920
9513,6.920
9514,6.930
9515,6.915
9516,6.915
9517,6.920
9518,6.915
9519,6.915
9520,6.915
9521,6.915
9522,6.915
9523,6.920
9524,6.920
9525,6.920
9526,6.920
9527,6.920
9528,6.915
9529,6.915
9530,6.915
9531,6.920
9532,6.930
9533,6.885
9534,6.915
9535,6.920
9536,6.915
9537,6.915
9538,6.895
9539,6.915
9540,6.915
9541,6.915
9542,6.915
9543,6.915
9544,6.945
9545,6.920
9546,6.915
9547,6.920
9548,6.905
9549,6.880
9550,6.915
9551,6.915
9552,6.930
9553,6.915
9554,6.915
9555,6.915
9556,6.915
9557,6.915
9558,6.915
9559,6.920
9560,6.915
9561,6.915
9562,6.915
9563,6.905
9564,6.915
9565,6.895
9566,6.920
9567,6.905
9568,6.905
9569,6.915
9570,6.915
9571,6.915
9572,6.915
9573,6.905
9574,6.915
9575,6.920
9576,6.930
9577,6.920
9578,6.915
9579,6.920
9580,6.905
9581,6.895
9582,6.905
9583,6.920
9584,6.920
9585,6.905
9586,6.915
9587,6.920
9588,6.920
9589,6.920
9590,6.920
9591,6.920
9592,6.895
9593,6.915
9594,6.930
9595,6.930
9596,6.930
9597,6.930
9598,6.930
9599,6.920
9600,6.930
9601,6.940
9602,6.915
9603,6.920
9604,6.930
9605,6.930
9606,6.920
9607,6.930
9608,6.885
9609,6.915
9610,6.915
9611,6.920
9612,6.930
9613,6.930
9614,6.920
9615,6.930
9616,6.930
9617,6.930
9618,6.930
9619,6.920
9620,6.930
9621,6.915
9622,6.930
9623,6.920
9624,6.920
9625,6.930
9626,6.920
9627,6.920
9628,6.930
9629,6.930
9630,6.930
9631,6.920
9632,6.930
9633,6.930
9634,6.945
9635,6.915
9636,6.945
9637,6.940
9638,6.940
9639,6.930
9640,6.930
9641,6.930
9642,6.940
9643,6.940
9644,6.945
9645,6.940
9646,6.955
9647,6.940
9648,6.930
9649,6.945
9650,6.940
9651,6.915
9652,6.945
9653,6.945
9654,6.940
9655,6.955
9656,6.945
9657,6.955
9658,6.945
9659,6.945
9660,6.965
9661,6.965
9662,6.955
9663,6.965
9664,6.955
9665,6.955
9666,6.965
9667,6.920
9668,6.965
9669,6.955
9670,6.955
9671,6.955
9672,6.955
9673,6.965
9674,6.955
9675,6.945
9676,6.955
9677,6.955
9678,6.955
9679,6.965
9680,6.965
9681,6.965
9682,6.965
9683,6.955
9684,6.965
9685,6.955
9686,6.970
9687,6.965
9688,6.965
9689,6.970
9690,6.970
9691,6.970
9692,6.970
9693,6.970
9694,6.945
9695,6.990
9696,6.990
9697,6.995
9698,6.990
9699,7.005
9700,6.990
9701,7.015
9702,7.025
9703,7.050
9704,7.050
9705,7.050
9706,7.050
9707,7.050
9708,7.055
9709,7.055
9710,7.090
9711,7.050
9712,7.040
9713,7.030
9714,7.025
9715,7.015
9716,7.015
9717,6.995
9718,6.995
9719,6.990
9720,6.980
9721,6.980
9722,6.970
9723,6.980
9724,6.980
9725,6.980
9726,6.965
9727,6.990
9728,6.995
9729,6.995
9730,6.995
9731,7.005
9732,7.005
9733,7.015
9734,7.015
9735,7.025
9736,7.025
9737,7.055
9738,7.115
9739,7.245
9740,7.405
9741,7.605
9742,7.785
9743,7.905
9744,7.895
9745,7.880
9746,7.835
9747,7.665
9748,7.320
9749,6.880
9750,6.760
9751,6.820
9752,6.870
9753,6.880
9754,6.945
9755,6.990
9756,7.015
9757,7.030
9758,7.050
9759,7.055
9760,7.055
9761,7.065
9762,7.065
9763,7.055
9764,7.055
9765,7.050
9766,7.040
9767,7.050
9768,7.030
9769,7.065
9770,7.055
9771,7.050
9772,7.040
9773,7.050
9774,7.030
9775,7.050
9776,7.040
9777,7.050
9778,7.050
9779,7.050
9780,7.040
9781,7.050
9782,7.050
9783,7.055
9784,7.065
9785,7.075
9786,7.065
9787,7.075
9788,7.065
9789,7.065
9790,7.075
9791,7.080
9792,7.080
9793,7.080
9794,7.065
9795,7.065
9796,7.115
9797,7.100
9798,7.090
9799,7.100
9800,7.100
9801,7.115
9802,7.115
9803,7.125
9804,7.125
9805,7.125
9806,7.125
9807,7.150
9808,7.150
9809,7.160
9810,7.175
9811,7.165
9812,7.200
9813,7.185
9814,7.175
9815,7.185
9816,7.185
9817,7.185
9818,7.190
9819,7.190
9820,7.185
9821,7.175
9822,7.160
9823,7.160
9824,7.160
9825,7.160
9826,7.135
9827,7.125
9828,7.150
9829,7.105
9830,7.090
9831,7.065
9832,7.030
9833,7.015
9834,7.015
9835,6.990
9836,6.955
9837,6.955
9838,6.930
9839,6.920
9840,6.920
9841,6.915
9842,6.915
9843,6.920
9844,6.915
9845,6.920
9846,6.930
9847,6.945
9848,6.945
9849,6.955
9850,6.965
9851,6.970
9852,6.970
9853,6.990
9854,6.990
9855,7.030
9856,7.015
9857,6.995
9858,7.005
9859,6.995
9860,7.015
9861,7.015
9862,7.015
9863,7.025
9864,7.015
9865,7.015
9866,7.015
9867,7.025
9868,7.025
9869,7.015
9870,7.015
9871,7.050
9872,7.015
9873,7.015
9874,7.025
9875,6.995
9876,7.015
9877,7.015
9878,7.015
9879,7.015
9880,7.005
9881,6.995
9882,7.015
9883,7.015
9884,6.995
9885,6.995
9886,6.990
9887,6.995
9888,6.995
9889,6.980
9890,6.990
9891,6.990
9892,6.980
9893,6.980
9894,6.970
9895,6.970
9896,6.970
9897,6.980
9898,6.965
9899,6.970
9900,6.965
9901,6.965
9902,6.965
9903,6.945
9904,6.965
9905,6.955
9906,6.965
9907,6.955
9908,6.970
9909,6.965
9910,6.965
9911,6.955
9912,6.965
9913,6.965
9914,6.915
9915,6.955
9916,6.945
9917,6.955
9918,6.955
9919,6.945
9920,6.940
9921,6.940
9922,6.930
9923,6.945
9924,6.945
9925,6.930
9926,6.940
9927,6.940
9928,6.920
9929,6.945
9930,6.915
9931,6.930
9932,6.930
9933,6.930
9934,6.930
9935,6.930
9936,6.940
9937,6.940
9938,6.945
9939,6.940
9940,6.945
9941,6.930
9942,6.930
9943,6.920
9944,6.945
9945,6.920
9946,6.920
9947,6.920
9948,6.920
9949,6.930
9950,6.920
9951,6.920
9952,6.920
9953,6.930
9954,6.920
9955,6.920
9956,6.940
9957,6.895
9958,6.930
9959,6.930
9960,6.920
9961,6.930
9962,6.915
9963,6.930
9964,6.930
9965,6.940
9966,6.920
9967,6.930
9968,6.945
9969,6.915
9970,6.930
9971,6.930
9972,6.930
9973,6.895
9974,6.930
9975,6.930
9976,6.920
9977,6.930
9978,6.930
9979,6.920
9980,6.930
9981,6.920
9982,6.920
9983,6.915
9984,6.905
9985,6.905
9986,6.920
9987,6.920
9988,6.930
9989,6.895
9990,6.920
9991,6.920
9992,6.920
9993,6.915
9994,6.920
9995,6.920
9996,6.915
9997,6.915
9998,6.920
9999,6.920
10000,6.930
10001,6.920
10002,6.930
10003,6.920
10004,6.930
10005,6.915
10006,6.915
10007,6.920
10008,6.915
10009,6.920
10010,6.930
10011,6.920
10012,6.930
10013,6.915
10014,6.920
10015,6.930
10016,6.880
10017,6.930
10018,6.920
10019,6.920
10020,6.930
10021,6.915
10022,6.920
10023,6.920
10024,6.920
10025,6.915
10026,6.930
10027,6.940
10028,6.920
10029,6.920
10030,6.920
10031,6.940
10032,6.885
10033,6.920
10034,6.920
10035,6.930
10036,6.930
10037,6.930
10038,6.930
10039,6.920
10040,6.930
10041,6.930
10042,6.920
10043,6.920
10044,6.920
10045,6.920
10046,6.920
10047,6.930
10048,6.915
10049,6.920
10050,6.920
10051,6.920
10052,6.915
10053,6.920
10054,6.920
10055,6.920
10056,6.930
10057,6.920
10058,6.930
10059,6.930
10060,6.920
10061,6.930
10062,6.930
10063,6.930
10064,6.930
10065,6.940
10066,6.930
10067,6.940
10068,6.930
10069,6.940
10070,6.930
10071,6.940
10072,6.930
10073,6.930
10074,6.930
10075,6.905
10076,6.945
10077,6.920
10078,6.940
10079,6.940
10080,6.920
10081,6.945
10082,6.945
10083,6.945
10084,6.940
10085,6.955
10086,6.945
10087,6.945
10088,6.945
10089,6.945
10090,6.945
10091,6.920
10092,6.965
10093,6.965
10094,6.965
10095,6.970
10096,6.970
10097,6.970
10098,6.965
10099,6.990
10100,7.015
10101,7.005
10102,7.015
10103,7.005
10104,6.995
10105,6.995
10106,7.005
10107,7.025
10108,7.015
10109,6.995
10110,6.990
10111,6.990
10112,6.980
10113,6.970
10114,6.965
10115,6.965
10116,6.965
10117,6.965
10118,6.930
10119,6.955
10120,6.955
10121,6.965
10122,6.965
10123,6.955
10124,6.965
10125,6.965
10126,6.965
10127,6.965
10128,6.980
10129,7.015
10130,6.980
10131,6.990
10132,6.990
10133,6.980
10134,7.015
10135,7.025
10136,7.115
10137,7.270
10138,7.440
10139,7.650
10140,7.830
10141,7.855
10142,7.845
10143,7.820
10144,7.690
10145,7.355
10146,6.860
10147,6.665
10148,6.760
10149,6.830
10150,6.835
10151,6.885
10152,6.930
10153,6.945
10154,6.965
10155,6.970
10156,6.980
10157,6.995
10158,6.995
10159,7.015
10160,7.015
10161,7.015
10162,7.015
10163,7.015
10164,7.015
10165,7.015
10166,7.025
10167,7.025
10168,7.030
10169,7.025
10170,7.015
10171,7.015
10172,7.030
10173,7.025
10174,7.030
10175,7.030
10176,7.030
10177,7.055
10178,7.030
10179,7.030
10180,7.030
10181,7.050
10182,7.050
10183,7.050
10184,7.040
10185,7.050
10186,7.055
10187,7.050
10188,7.055
10189,7.065
10190,7.065
10191,7.065
10192,7.065
10193,7.115
10194,7.090
10195,7.090
10196,7.090
10197,7.090
10198,7.090
10199,7.090
10200,7.100
10201,7.105
10202,7.105
10203,7.105
10204,7.115
10205,7.115
10206,7.125
10207,7.125
10208,7.125
10209,7.150
10210,7.150
10211,7.150
10212,7.160
10213,7.160
10214,7.160
10215,7.165
10216,7.160
10217,7.160
10218,7.160
10219,7.140
10220,7.160
10221,7.150
10222,7.135
10223,7.125
10224,7.115
10225,7.105
10226,7.080
10227,7.065
10228,7.055
10229,7.025
10230,7.015
10231,7.005
10232,6.980
10233,6.965
10234,6.945
10235,6.930
10236,6.885
10237,6.915
10238,6.895
10239,6.915
10240,6.895
10241,6.895
10242,6.915
10243,6.915
10244,6.920
10245,6.920
10246,6.945
10247,6.945
10248,6.955
10249,6.965
10250,6.965
10251,6.970
10252,6.945
10253,6.990
10254,6.990
10255,6.995
10256,6.995
10257,6.990
10258,6.995
10259,7.005
10260,6.995
10261,6.995
10262,6.995
10263,7.005
10264,6.995
10265,7.005
10266,6.995
10267,6.990
10268,7.005
10269,7.005
10270,6.995
10271,7.005
10272,6.995
10273,6.990
10274,6.995
10275,6.995
10276,6.995
10277,6.990
10278,6.995
10279,7.025
10280,6.980
10281,6.990
10282,6.970
10283,6.970
10284,6.965
10285,6.965
10286,6.955
10287,6.965
10288,6.955
10289,6.965
10290,6.990
10291,6.965
10292,6.940
10293,6.945
10294,6.955
10295,6.915
10296,6.940
10297,6.945
10298,6.945
10299,6.930
10300,6.940
10301,6.930
10302,6.920
10303,6.920
10304,6.930
10305,6.930
10306,6.915
10307,6.920
10308,6.905
10309,6.915
10310,6.920
10311,6.885
10312,6.915
10313,6.915
10314,6.905
10315,6.920
10316,6.895
10317,6.915
10318,6.895
10319,6.915
10320,6.905
10321,6.905
10322,6.915
10323,6.915
10324,6.905
10325,6.915
10326,6.915
10327,6.885
10328,6.895
10329,6.915
10330,6.915
10331,6.895
10332,6.905
10333,6.915
10334,6.895
10335,6.915
10336,6.905
10337,6.915
10338,6.870
10339,6.905
10340,6.905
10341,6.905
10342,6.905
10343,6.905
10344,6.895
10345,6.895
10346,6.895
10347,6.895
10348,6.895
10349,6.895
10350,6.895
10351,6.915
10352,6.895
10353,6.915
10354,6.860
10355,6.895
10356,6.895
10357,6.895
10358,6.895
10359,6.915
10360,6.895
10361,6.885
10362,6.895
10363,6.885
10364,6.895
10365,6.885
10366,6.885
10367,6.905
10368,6.885
10369,6.905
10370,6.885
10371,6.885
10372,6.885
10373,6.895
10374,6.885
10375,6.905
10376,6.895
10377,6.915
10378,6.895
10379,6.885
10380,6.885
10381,6.885
10382,6.885
10383,6.885
10384,6.885
10385,6.885
10386,6.885
10387,6.895
10388,6.895
10389,6.885
10390,6.895
10391,6.895
10392,6.895
10393,6.885
10394,6.885
10395,6.885
10396,6.885
10397,6.855
10398,6.895
10399,6.885
10400,6.895
10401,6.885
10402,6.880
10403,6.895
10404,6.895
10405,6.905
10406,6.895
10407,6.905
10408,6.885
10409,6.895
10410,6.885
10411,6.895
10412,6.905
10413,6.880
10414,6.915
10415,6.915
10416,6.895
10417,6.895
10418,6.915
10419,6.905
10420,6.895
10421,6.895
10422,6.895
10423,6.905
10424,6.895
10425,6.895
10426,6.895
10427,6.895
10428,6.895
10429,6.885
10430,6.895
10431,6.895
10432,6.895
10433,6.915
10434,6.905
10435,6.915
10436,6.895
10437,6.895
10438,6.895
10439,6.915
10440,6.880
10441,6.915
10442,6.915
10443,6.915
10444,6.905
10445,6.885
10446,6.915
10447,6.915
10448,6.905
10449,6.915
10450,6.920
10451,6.945
10452,6.905
10453,6.905
10454,6.905
10455,6.920
10456,6.885
10457,6.920
10458,6.930
10459,6.920
10460,6.915
10461,6.920
10462,6.915
10463,6.920
10464,6.930
10465,6.930
10466,6.940
10467,6.930
10468,6.940
10469,6.945
10470,6.955
10471,6.955
10472,6.920
10473,6.965
10474,6.970
10475,6.990
10476,6.990
10477,6.990
10478,6.990
10479,6.990
10480,6.990
10481,6.990
10482,6.980
10483,6.970
10484,6.970
10485,6.965
10486,6.955
10487,6.945
10488,6.920
10489,6.945
10490,6.930
10491,6.940
10492,6.945
10493,6.920
10494,6.930
10495,6.930
10496,6.920
10497,6.930
10498,6.945
10499,6.915
10500,6.945
10501,6.945
10502,6.945
10503,6.945
10504,6.945
10505,6.955
10506,6.970
10507,6.980
10508,6.995
10509,7.015
10510,7.090
10511,7.210
10512,7.360
10513,7.530
10514,7.700
10515,7.835
10516,7.800
10517,7.760
10518,7.675
10519,7.470
10520,7.080
10521,6.700
10522,6.650
10523,6.725
10524,6.785
10525,6.835
10526,6.855
10527,6.905
10528,6.915
10529,6.945
10530,6.955
10531,6.955
10532,6.970
10533,6.980
10534,6.990
10535,6.990
10536,6.995
10537,6.990
10538,6.995
10539,6.995
10540,6.995
10541,6.990
10542,7.015
10543,7.005
10544,7.015
10545,7.015
10546,7.005
10547,7.025
10548,7.015
10549,7.015
10550,7.015
10551,7.015
10552,7.025
10553,7.030
10554,7.030
10555,7.025
10556,7.030
10557,7.025
10558,7.075
10559,7.050
10560,7.050
10561,7.050
10562,7.050
10563,7.065
10564,7.055
10565,7.065
10566,7.075
10567,7.075
10568,7.065
10569,7.080
10570,7.090
10571,7.090
10572,7.090
10573,7.100
10574,7.135
10575,7.125
10576,7.125
10577,7.135
10578,7.135
10579,7.140
10580,7.150
10581,7.160
10582,7.160
10583,7.160
10584,7.160
10585,7.165
10586,7.185
10587,7.185
10588,7.185
10589,7.175
10590,7.190
10591,7.190
10592,7.175
10593,7.185
10594,7.165
10595,7.160
10596,7.160
10597,7.140
10598,7.125
10599,7.115
10600,7.090
10601,7.105
10602,7.055
10603,7.040
10604,7.015
10605,6.980
10606,6.955
10607,6.945
10608,6.920
10609,6.915
10610,6.895
10611,6.885
10612,6.905
10613,6.860
10614,6.860
10615,6.870
10616,6.880
10617,6.845
10618,6.880
10619,6.885
10620,6.895
10621,6.915
10622,6.920
10623,6.930
10624,6.940
10625,6.945
10626,6.945
10627,6.955
10628,6.945
10629,6.965
10630,6.965
10631,6.965
10632,6.970
10633,6.955
10634,6.980
10635,6.980
10636,6.990
10637,6.995
10638,6.980
10639,6.970
10640,6.970
10641,6.990
10642,6.970
10643,6.970
10644,6.980
10645,6.990
10646,6.970
10647,6.965
10648,6.980
10649,6.965
10650,6.990
10651,6.990
10652,6.980
10653,6.970
10654,6.970
10655,6.965
10656,6.965
10657,6.965
10658,6.965
10659,6.970
10660,6.930
10661,6.965
10662,6.965
10663,6.965
10664,6.955
10665,6.955
10666,6.945
10667,6.940
10668,6.945
10669,6.945
10670,6.945
10671,6.940
10672,6.940
10673,6.930
10674,6.940
10675,6.940
10676,6.895
10677,6.930
10678,6.930
10679,6.930
10680,6.930
10681,6.940
10682,6.930
10683,6.930
10684,6.930
10685,6.930
10686,6.920
10687,6.920
10688,6.930
10689,6.920
10690,6.915
10691,6.940
10692,6.905
10693,6.930
10694,6.920
10695,6.920
10696,6.915
10697,6.915
10698,6.915
10699,6.920
10700,6.930
10701,6.920
10702,6.930
10703,6.920
10704,6.915
10705,6.920
10706,6.920
10707,6.930
10708,6.915
10709,6.920
10710,6.920
10711,6.915
10712,6.915
10713,6.920
10714,6.920
10715,6.920
10716,6.920
10717,6.940
10718,6.930
10719,6.895
10720,6.915
10721,6.920
10722,6.920
10723,6.920
10724,6.920
10725,6.920
10726,6.930
10727,6.920
10728,6.920
10729,6.930
10730,6.920
10731,6.920
10732,6.930
10733,6.920
10734,6.930
10735,6.895
10736,6.930
10737,6.945
10738,6.955
10739,6.955
10740,6.955
10741,6.955
10742,6.965
10743,6.965
10744,6.980
10745,6.995
10746,6.995
10747,7.005
10748,6.995
10749,6.990
10750,6.980
10751,6.995
10752,6.990
10753,6.980
10754,6.965
10755,6.970
10756,6.965
10757,6.945
10758,6.940
10759,6.940
10760,6.930
10761,6.930
10762,6.895
10763,6.920
10764,6.915
10765,6.915
10766,6.930
10767,6.915
10768,6.915
10769,6.915
10770,6.920
10771,6.920
10772,6.920
10773,6.970
10774,6.940
10775,6.940
10776,6.930
10777,6.930
10778,6.915
10779,6.940
10780,6.945
10781,6.955
10782,6.995
10783,7.100
10784,7.270
10785,7.455
10786,7.650
10787,7.800
10788,7.830
10789,7.800
10790,7.775
10791,7.650
10792,7.295
10793,6.800
10794,6.575
10795,6.690
10796,6.750
10797,6.795
10798,6.820
10799,6.860
10800,6.895
10801,6.930
10802,6.930
10803,6.945
10804,6.965
10805,6.955
10806,6.965
10807,6.970
10808,6.965
10809,6.970
10810,6.965
10811,6.990
10812,6.980
10813,6.980
10814,6.970
10815,6.970
10816,6.980
10817,6.990
10818,6.990
10819,6.990
10820,6.995
10821,7.025
10822,6.995
10823,6.995
10824,6.990
10825,7.005
10826,7.005
10827,7.005
10828,7.015
10829,7.015
10830,7.005
10831,7.005
10832,7.015
10833,7.005
10834,7.025
10835,7.025
10836,7.030
10837,7.055
10838,7.030
10839,7.050
10840,7.050
10841,7.050
10842,7.040
10843,7.055
10844,7.055
10845,7.065
10846,7.075
10847,7.075
10848,7.080
10849,7.090
10850,7.090
10851,7.100
10852,7.105
10853,7.115
10854,7.125
10855,7.125
10856,7.135
10857,7.135
10858,7.140
10859,7.150
10860,7.150
10861,7.150
10862,7.150
10863,7.150
10864,7.165
10865,7.160
10866,7.160
10867,7.150
10868,7.135
10869,7.125
10870,7.115
10871,7.100
10872,7.080
10873,7.080
10874,7.050
10875,7.030
10876,7.025
10877,6.995
10878,6.965
10879,6.965
10880,6.915
10881,6.930
10882,6.920
10883,6.920
10884,6.915
10885,6.905
10886,6.915
10887,6.920
10888,6.920
10889,6.930
10890,6.945
10891,6.940
10892,6.945
10893,6.945
10894,6.955
10895,6.965
10896,6.930
10897,6.965
10898,6.965
10899,6.965
10900,6.970
10901,6.970
10902,6.970
10903,6.970
10904,6.970
10905,6.970
10906,6.970
10907,6.970
10908,6.970
10909,6.990
10910,6.990
10911,6.970
10912,6.995
10913,6.990
10914,6.990
10915,6.990
10916,6.970
10917,6.970
10918,6.970
10919,6.980
10920,6.970
10921,6.970
