'sample interval','ECG1','ECG2'
'0.004 sec','mV','mV'
0,0.175,0.015
1,0.240,0.030
2,0.255,0.035
3,0.270,0.030
4,0.285,0.025
5,0.300,0.035
6,0.315,0.045
7,0.310,0.050
8,0.305,0.055
9,0.285,0.060
10,0.265,0.065
11,0.240,0.050
12,0.220,0.035
13,0.190,0.035
14,0.160,0.035
15,0.145,0.030
16,0.125,0.020
17,0.095,0.005
18,0.065,-0.005
19,0.040,-0.015
20,0.020,-0.025
21,0.005,-0.030
22,-0.010,-0.035
23,-0.020,-0.040
24,-0.030,-0.045
25,-0.045,-0.050
26,-0.055,-0.060
27,-0.060,-0.070
28,-0.065,-0.075
29,-0.060,-0.080
30,-0.060,-0.080
31,-0.070,-0.070
32,-0.075,-0.065
33,-0.080,-0.065
34,-0.085,-0.070
35,-0.090,-0.080
36,-0.095,-0.085
37,-0.090,-0.080
38,-0.085,-0.075
39,-0.080,-0.070
40,-0.075,-0.065
41,-0.080,-0.070
42,-0.090,-0.080
43,-0.095,-0.085
44,-0.090,-0.080
45,-0.085,-0.075
46,-0.085,-0.070
47,-0.085,-0.065
48,-0.085,-0.060
49,-0.085,-0.055
50,-0.090,-0.065
51,-0.095,-0.075
52,-0.095,-0.075
53,-0.095,-0.075
54,-0.090,-0.070
55,-0.085,-0.065
56,-0.090,-0.065
57,-0.095,-0.065
58,-0.105,-0.075
59,-0.115,-0.085
60,-0.115,-0.080
61,-0.115,-0.075
62,-0.105,-0.070
63,-0.095,-0.065
64,-0.100,-0.070
65,-0.105,-0.080
66,-0.110,-0.090
67,-0.115,-0.095
68,-0.115,-0.090
69,-0.115,-0.085
70,-0.110,-0.085
71,-0.105,-0.085
72,-0.110,-0.085
73,-0.115,-0.090
74,-0.120,-0.100
75,-0.120,-0.105
76,-0.110,-0.100
77,-0.105,-0.095
78,-0.110,-0.090
79,-0.115,-0.085
80,-0.120,-0.090
81,-0.125,-0.095
82,-0.130,-0.100
83,-0.135,-0.105
84,-0.125,-0.105
85,-0.120,-0.095
86,-0.115,-0.085
87,-0.115,-0.090
88,-0.115,-0.095
89,-0.125,-0.100
90,-0.135,-0.105
91,-0.135,-0.105
92,-0.135,-0.105
93,-0.130,-0.105
94,-0.125,-0.105
95,-0.125,-0.100
96,-0.125,-0.095
97,-0.125,-0.105
98,-0.125,-0.115
99,-0.120,-0.110
100,-0.115,-0.105
101,-0.115,-0.100
102,-0.115,-0.095
103,-0.125,-0.100
104,-0.135,-0.105
105,-0.135,-0.110
106,-0.135,-0.115
107,-0.135,-0.115
108,-0.135,-0.110
109,-0.130,-0.100
110,-0.125,-0.095
111,-0.125,-0.095
112,-0.125,-0.100
113,-0.125,-0.110
114,-0.125,-0.115
115,-0.120,-0.115
116,-0.115,-0.110
117,-0.120,-0.100
118,-0.125,-0.095
119,-0.125,-0.100
120,-0.125,-0.105
121,-0.120,-0.110
122,-0.125,-0.115
123,-0.140,-0.115
124,-0.135,-0.115
125,-0.145,-0.115
126,-0.115,-0.100
127,-0.115,-0.095
128,-0.120,-0.105
129,-0.125,-0.115
130,-0.120,-0.115
131,-0.115,-0.115
132,-0.105,-0.105
133,-0.095,-0.095
134,-0.100,-0.095
135,-0.105,-0.095
136,-0.115,-0.105
137,-0.125,-0.115
138,-0.125,-0.115
139,-0.115,-0.115
140,-0.080,-0.105
141,-0.045,-0.090
142,-0.015,-0.060
143,0.010,-0.045
144,0.025,-0.035
145,0.035,-0.030
146,0.020,-0.055
147,0.005,-0.065
148,-0.015,-0.070
149,-0.035,-0.075
150,-0.055,-0.080
151,-0.080,-0.095
152,-0.105,-0.115
153,-0.120,-0.125
154,-0.130,-0.120
155,-0.130,-0.115
156,-0.120,-0.115
157,-0.115,-0.115
158,-0.120,-0.110
159,-0.125,-0.110
160,-0.125,-0.120
161,-0.120,-0.125
162,-0.110,-0.120
163,-0.105,-0.115
164,-0.110,-0.110
165,-0.115,-0.105
166,-0.120,-0.110
167,-0.125,-0.120
168,-0.125,-0.125
169,-0.130,-0.120
170,-0.135,-0.115
171,-0.130,-0.115
172,-0.125,-0.115
173,-0.115,-0.110
174,-0.105,-0.105
175,-0.105,-0.105
176,-0.105,-0.105
177,-0.095,-0.100
178,-0.110,-0.090
179,-0.205,-0.065
180,-0.280,-0.045
181,-0.300,-0.025
182,-0.255,0.025
183,-0.075,0.135
184,0.225,0.195
185,0.695,0.170
186,1.150,0.105
187,1.585,-0.005
188,1.555,-0.140
189,1.045,-0.295
190,0.520,-0.475
191,-0.020,-0.680
192,-0.320,-0.710
193,-0.455,-0.610
194,-0.470,-0.500
195,-0.415,-0.385
196,-0.340,-0.290
197,-0.260,-0.200
198,-0.190,-0.145
199,-0.130,-0.100
200,-0.115,-0.080
201,-0.120,-0.070
202,-0.125,-0.065
203,-0.125,-0.070
204,-0.135,-0.075
205,-0.150,-0.075
206,-0.155,-0.080
207,-0.150,-0.090
208,-0.140,-0.095
209,-0.125,-0.085
210,-0.130,-0.080
211,-0.135,-0.075
212,-0.135,-0.075
213,-0.135,-0.075
214,-0.140,-0.085
215,-0.145,-0.095
216,-0.150,-0.090
217,-0.155,-0.085
218,-0.145,-0.080
219,-0.135,-0.075
220,-0.130,-0.075
221,-0.125,-0.075
222,-0.120,-0.080
223,-0.115,-0.085
224,-0.120,-0.085
225,-0.125,-0.085
226,-0.120,-0.075
227,-0.115,-0.065
228,-0.110,-0.065
229,-0.105,-0.065
230,-0.105,-0.080
231,-0.105,-0.085
232,-0.105,-0.080
233,-0.100,-0.070
234,-0.085,-0.060
235,-0.075,-0.055
236,-0.075,-0.055
237,-0.070,-0.055
238,-0.060,-0.060
239,-0.045,-0.065
240,-0.030,-0.060
241,-0.025,-0.055
242,-0.025,-0.055
243,-0.020,-0.055
244,-0.010,-0.050
245,-0.005,-0.050
246,0.000,-0.060
247,0.005,-0.060
248,0.000,-0.050
249,0.020,-0.040
250,-0.005,-0.045
251,0.070,-0.025
252,0.085,-0.025
253,0.090,-0.035
254,0.095,-0.045
255,0.115,-0.040
256,0.135,-0.035
257,0.155,-0.030
258,0.175,-0.025
259,0.185,-0.020
260,0.195,-0.015
261,0.210,-0.020
262,0.225,-0.025
263,0.230,-0.020
264,0.240,-0.010
265,0.255,0.005
266,0.265,0.015
267,0.265,0.015
268,0.260,0.015
269,0.240,0.005
270,0.225,-0.005
271,0.210,0.000
272,0.190,0.005
273,0.155,0.005
274,0.120,0.000
275,0.090,-0.010
276,0.060,-0.025
277,0.030,-0.045
278,0.005,-0.055
279,-0.015,-0.060
280,-0.030,-0.065
281,-0.040,-0.065
282,-0.060,-0.070
283,-0.080,-0.080
284,-0.090,-0.090
285,-0.100,-0.100
286,-0.105,-0.105
287,-0.105,-0.110
288,-0.105,-0.115
289,-0.105,-0.110
290,-0.110,-0.105
291,-0.120,-0.105
292,-0.125,-0.110
293,-0.125,-0.115
294,-0.135,-0.115
295,-0.145,-0.115
296,-0.135,-0.110
297,-0.125,-0.105
298,-0.125,-0.105
299,-0.125,-0.105
300,-0.130,-0.110
301,-0.135,-0.115
302,-0.125,-0.115
303,-0.115,-0.115
304,-0.115,-0.110
305,-0.115,-0.105
306,-0.120,-0.100
307,-0.125,-0.095
308,-0.125,-0.105
309,-0.125,-0.115
310,-0.135,-0.110
311,-0.140,-0.105
312,-0.125,-0.100
313,-0.115,-0.095
314,-0.120,-0.100
315,-0.125,-0.105
316,-0.125,-0.110
317,-0.125,-0.115
318,-0.120,-0.115
319,-0.115,-0.115
320,-0.120,-0.110
321,-0.125,-0.105
322,-0.130,-0.110
323,-0.135,-0.115
324,-0.135,-0.120
325,-0.145,-0.125
326,-0.160,-0.125
327,-0.160,-0.125
328,-0.150,-0.120
329,-0.140,-0.115
330,-0.130,-0.115
331,-0.125,-0.115
332,-0.130,-0.120
333,-0.135,-0.125
334,-0.125,-0.125
335,-0.125,-0.120
336,-0.125,-0.115
337,-0.125,-0.115
338,-0.125,-0.115
339,-0.130,-0.125
340,-0.135,-0.135
341,-0.140,-0.130
342,-0.145,-0.125
343,-0.135,-0.120
344,-0.125,-0.115
345,-0.125,-0.120
346,-0.125,-0.125
347,-0.130,-0.130
348,-0.135,-0.135
349,-0.125,-0.130
350,-0.115,-0.125
351,-0.115,-0.120
352,-0.115,-0.115
353,-0.125,-0.120
354,-0.130,-0.125
355,-0.115,-0.140
356,-0.100,-0.140
357,-0.090,-0.130
358,-0.065,-0.105
359,-0.030,-0.065
360,-0.015,-0.045
361,-0.010,-0.045
362,-0.025,-0.065
363,-0.055,-0.095
364,-0.065,-0.105
365,-0.065,-0.105
366,-0.075,-0.105
367,-0.090,-0.110
368,-0.095,-0.115
369,-0.100,-0.115
370,-0.115,-0.120
371,-0.130,-0.130
372,-0.130,-0.135
373,-0.120,-0.140
374,-0.120,-0.145
375,-0.115,-0.145
376,-0.135,-0.130
377,-0.135,-0.125
378,-0.135,-0.135
379,-0.135,-0.145
380,-0.135,-0.140
381,-0.135,-0.135
382,-0.130,-0.135
383,-0.125,-0.135
384,-0.130,-0.130
385,-0.135,-0.125
386,-0.140,-0.130
387,-0.145,-0.135
388,-0.130,-0.135
389,-0.115,-0.135
390,-0.120,-0.135
391,-0.125,-0.135
392,-0.115,-0.125
393,-0.105,-0.115
394,-0.105,-0.120
395,-0.105,-0.125
396,-0.090,-0.125
397,-0.110,-0.115
398,-0.170,-0.095
399,-0.240,-0.080
400,-0.330,-0.065
401,-0.310,-0.015
402,-0.220,0.050
403,0.050,0.125
404,0.405,0.210
405,0.900,0.145
406,1.455,0.020
407,1.550,-0.100
408,1.490,-0.220
409,0.885,-0.425
410,0.145,-0.655
411,-0.195,-0.680
412,-0.465,-0.660
413,-0.460,-0.540
414,-0.420,-0.405
415,-0.340,-0.305
416,-0.260,-0.210
417,-0.190,-0.155
418,-0.125,-0.105
419,-0.110,-0.090
420,-0.095,-0.075
421,-0.100,-0.075
422,-0.105,-0.075
423,-0.120,-0.080
424,-0.135,-0.085
425,-0.135,-0.095
426,-0.135,-0.105
427,-0.125,-0.090
428,-0.115,-0.075
429,-0.115,-0.080
430,-0.115,-0.085
431,-0.110,-0.080
432,-0.105,-0.075
433,-0.110,-0.085
434,-0.115,-0.095
435,-0.120,-0.090
436,-0.120,-0.085
437,-0.105,-0.080
438,-0.095,-0.075
439,-0.095,-0.075
440,-0.095,-0.075
441,-0.095,-0.080
442,-0.095,-0.080
443,-0.090,-0.070
444,-0.085,-0.065
445,-0.080,-0.070
446,-0.075,-0.075
447,-0.075,-0.070
448,-0.070,-0.065
449,-0.060,-0.070
450,-0.055,-0.070
451,-0.060,-0.060
452,-0.055,-0.055
453,-0.040,-0.055
454,-0.035,-0.055
455,-0.030,-0.055
456,-0.025,-0.055
457,-0.020,-0.060
458,-0.010,-0.060
459,0.005,-0.045
460,0.010,-0.040
461,0.015,-0.035
462,0.025,-0.035
463,0.035,-0.035
464,0.050,-0.040
465,0.065,-0.045
466,0.070,-0.035
467,0.075,-0.025
468,0.090,-0.025
469,0.105,-0.025
470,0.120,-0.025
471,0.135,-0.025
472,0.145,-0.025
473,0.160,-0.025
474,0.180,-0.020
475,0.195,-0.015
476,0.205,-0.005
477,0.220,0.005
478,0.235,0.005
479,0.250,0.005
480,0.265,0.005
481,0.275,0.005
482,0.270,0.010
483,0.265,0.020
484,0.270,0.030
485,0.270,0.035
486,0.255,0.035
487,0.235,0.030
488,0.215,0.020
489,0.195,0.015
490,0.180,0.010
491,0.160,0.005
492,0.130,0.005
493,0.105,0.000
494,0.070,-0.010
495,0.050,-0.030
496,0.030,-0.050
497,0.015,-0.055
498,0.000,-0.060
499,-0.015,-0.065
500,-0.005,-0.065
501,-0.045,-0.070
502,-0.055,-0.075
503,-0.065,-0.085
504,-0.075,-0.095
505,-0.080,-0.100
506,-0.085,-0.105
507,-0.085,-0.100
508,-0.085,-0.095
509,-0.085,-0.090
510,-0.085,-0.085
511,-0.085,-0.090
512,-0.085,-0.095
513,-0.080,-0.100
514,-0.075,-0.105
515,-0.085,-0.100
516,-0.095,-0.095
517,-0.085,-0.090
518,-0.075,-0.085
519,-0.085,-0.090
520,-0.095,-0.095
521,-0.090,-0.095
522,-0.085,-0.095
523,-0.080,-0.090
524,-0.075,-0.085
525,-0.075,-0.080
526,-0.075,-0.075
527,-0.080,-0.080
528,-0.085,-0.085
529,-0.085,-0.090
530,-0.085,-0.095
531,-0.090,-0.090
532,-0.095,-0.085
533,-0.090,-0.085
534,-0.085,-0.085
535,-0.090,-0.085
536,-0.095,-0.085
537,-0.090,-0.090
538,-0.085,-0.095
539,-0.085,-0.090
540,-0.085,-0.085
541,-0.090,-0.085
542,-0.100,-0.085
543,-0.105,-0.085
544,-0.100,-0.090
545,-0.095,-0.095
546,-0.095,-0.095
547,-0.095,-0.095
548,-0.095,-0.090
549,-0.095,-0.085
550,-0.095,-0.090
551,-0.095,-0.095
552,-0.100,-0.100
553,-0.105,-0.105
554,-0.100,-0.105
555,-0.095,-0.105
556,-0.095,-0.100
557,-0.095,-0.095
558,-0.105,-0.100
559,-0.115,-0.105
560,-0.105,-0.110
561,-0.095,-0.115
562,-0.105,-0.105
563,-0.115,-0.095
564,-0.110,-0.100
565,-0.105,-0.105
566,-0.105,-0.105
567,-0.105,-0.105
568,-0.100,-0.105
569,-0.095,-0.105
570,-0.090,-0.100
571,-0.090,-0.095
572,-0.100,-0.100
573,-0.105,-0.105
574,-0.100,-0.110
575,-0.075,-0.100
576,-0.050,-0.080
577,-0.020,-0.055
578,0.010,-0.030
579,0.005,-0.035
580,-0.010,-0.050
581,-0.030,-0.070
582,-0.050,-0.090
583,-0.055,-0.095
584,-0.055,-0.095
585,-0.070,-0.095
586,-0.085,-0.095
587,-0.095,-0.095
588,-0.105,-0.095
589,-0.115,-0.115
590,-0.125,-0.135
591,-0.130,-0.125
592,-0.135,-0.115
593,-0.125,-0.110
594,-0.115,-0.105
595,-0.120,-0.105
596,-0.125,-0.105
597,-0.130,-0.115
598,-0.135,-0.125
599,-0.125,-0.125
600,-0.115,-0.125
601,-0.120,-0.120
602,-0.125,-0.115
603,-0.125,-0.115
604,-0.125,-0.115
605,-0.120,-0.120
606,-0.120,-0.125
607,-0.130,-0.120
608,-0.130,-0.115
609,-0.115,-0.110
610,-0.105,-0.105
611,-0.105,-0.105
612,-0.100,-0.105
613,-0.090,-0.105
614,-0.125,-0.095
615,-0.180,-0.070
616,-0.240,-0.050
617,-0.300,-0.020
618,-0.235,0.050
619,-0.130,0.130
620,0.210,0.175
621,0.585,0.210
622,1.085,0.085
623,1.600,-0.065
624,1.430,-0.200
625,1.625,-0.075
626,0.545,-0.540
627,-0.110,-0.745
628,-0.320,-0.695
629,-0.510,-0.635
630,-0.450,-0.490
631,-0.385,-0.355
632,-0.300,-0.255
633,-0.215,-0.165
634,-0.155,-0.105
635,-0.105,-0.055
636,-0.105,-0.055
637,-0.105,-0.055
638,-0.120,-0.065
639,-0.135,-0.075
640,-0.135,-0.075
641,-0.135,-0.075
642,-0.135,-0.075
643,-0.135,-0.075
644,-0.135,-0.075
645,-0.135,-0.075
646,-0.130,-0.075
647,-0.125,-0.075
648,-0.125,-0.070
649,-0.125,-0.065
650,-0.125,-0.065
651,-0.125,-0.065
652,-0.120,-0.070
653,-0.120,-0.075
654,-0.130,-0.070
655,-0.130,-0.065
656,-0.120,-0.060
657,-0.115,-0.055
658,-0.110,-0.060
659,-0.105,-0.065
660,-0.110,-0.070
661,-0.110,-0.075
662,-0.100,-0.070
663,-0.095,-0.065
664,-0.095,-0.060
665,-0.095,-0.055
666,-0.090,-0.055
667,-0.080,-0.060
668,-0.075,-0.065
669,-0.080,-0.060
670,-0.085,-0.055
671,-0.075,-0.045
672,-0.065,-0.035
673,-0.055,-0.040
674,-0.045,-0.045
675,-0.040,-0.050
676,-0.035,-0.055
677,-0.025,-0.045
678,-0.015,-0.035
679,-0.010,-0.035
680,-0.005,-0.035
681,0.000,-0.030
682,0.010,-0.025
683,0.025,-0.035
684,0.035,-0.045
685,0.035,-0.035
686,0.040,-0.025
687,0.060,-0.020
688,0.080,-0.015
689,0.090,-0.010
690,0.105,-0.005
691,0.125,-0.010
692,0.145,-0.015
693,0.165,-0.010
694,0.180,0.000
695,0.190,0.010
696,0.200,0.015
697,0.210,0.015
698,0.220,0.015
699,0.230,0.010
700,0.240,0.005
701,0.250,0.010
702,0.255,0.025
703,0.250,0.040
704,0.240,0.045
705,0.230,0.045
706,0.205,0.040
707,0.180,0.030
708,0.160,0.020
709,0.135,0.005
710,0.110,0.005
711,0.085,0.005
712,0.050,-0.005
713,0.015,-0.015
714,-0.010,-0.035
715,-0.035,-0.055
716,-0.045,-0.060
717,-0.055,-0.065
718,-0.075,-0.070
719,-0.095,-0.075
720,-0.100,-0.075
721,-0.105,-0.075
722,-0.115,-0.090
723,-0.125,-0.105
724,-0.120,-0.105
725,-0.115,-0.105
726,-0.115,-0.100
727,-0.115,-0.095
728,-0.120,-0.095
729,-0.125,-0.095
730,-0.130,-0.100
731,-0.135,-0.105
732,-0.130,-0.105
733,-0.125,-0.100
734,-0.125,-0.090
735,-0.125,-0.085
736,-0.125,-0.085
737,-0.125,-0.090
738,-0.130,-0.100
739,-0.130,-0.105
740,-0.120,-0.100
741,-0.115,-0.090
742,-0.110,-0.080
743,-0.110,-0.075
744,-0.120,-0.075
745,-0.125,-0.080
746,-0.130,-0.090
747,-0.135,-0.095
748,-0.135,-0.090
749,-0.135,-0.085
750,-0.135,-0.085
751,-0.135,-0.080
752,-0.135,-0.075
753,-0.140,-0.080
754,-0.145,-0.085
755,-0.135,-0.090
756,-0.125,-0.095
757,-0.130,-0.090
758,-0.135,-0.085
759,-0.135,-0.085
760,-0.135,-0.085
761,-0.145,-0.090
762,-0.155,-0.095
763,-0.160,-0.095
764,-0.165,-0.095
765,-0.155,-0.095
766,-0.145,-0.095
767,-0.145,-0.095
768,-0.145,-0.095
769,-0.150,-0.100
770,-0.155,-0.105
771,-0.150,-0.105
772,-0.145,-0.105
773,-0.145,-0.100
774,-0.145,-0.095
775,-0.150,-0.095
776,-0.155,-0.100
777,-0.155,-0.110
778,-0.155,-0.115
779,-0.160,-0.110
780,-0.165,-0.100
781,-0.160,-0.090
782,-0.155,-0.085
783,-0.155,-0.090
784,-0.155,-0.095
785,-0.155,-0.100
786,-0.155,-0.105
787,-0.150,-0.105
788,-0.145,-0.105
789,-0.145,-0.100
790,-0.145,-0.095
791,-0.150,-0.095
792,-0.160,-0.100
793,-0.165,-0.105
794,-0.165,-0.105
795,-0.165,-0.105
796,-0.155,-0.100
797,-0.145,-0.095
798,-0.150,-0.100
799,-0.155,-0.105
800,-0.160,-0.110
801,-0.165,-0.115
802,-0.160,-0.110
803,-0.155,-0.105
804,-0.150,-0.100
805,-0.145,-0.095
806,-0.155,-0.095
807,-0.165,-0.095
808,-0.160,-0.105
809,-0.155,-0.115
810,-0.165,-0.110
811,-0.170,-0.105
812,-0.155,-0.095
813,-0.145,-0.085
814,-0.150,-0.090
815,-0.155,-0.100
816,-0.150,-0.110
817,-0.140,-0.115
818,-0.125,-0.110
819,-0.110,-0.100
820,-0.090,-0.090
821,-0.070,-0.065
822,-0.045,-0.035
823,-0.040,-0.035
824,-0.050,-0.050
825,-0.070,-0.065
826,-0.090,-0.080
827,-0.095,-0.080
828,-0.095,-0.070
829,-0.105,-0.075
830,-0.120,-0.090
831,-0.130,-0.095
832,-0.140,-0.100
833,-0.145,-0.105
834,-0.145,-0.105
835,-0.150,-0.100
836,-0.155,-0.095
837,-0.160,-0.100
838,-0.165,-0.105
839,-0.160,-0.110
840,-0.155,-0.115
841,-0.165,-0.110
842,-0.175,-0.105
843,-0.165,-0.100
844,-0.155,-0.095
845,-0.160,-0.095
846,-0.165,-0.095
847,-0.160,-0.105
848,-0.155,-0.115
849,-0.150,-0.105
850,-0.145,-0.095
851,-0.145,-0.090
852,-0.145,-0.085
853,-0.145,-0.090
854,-0.145,-0.095
855,-0.130,-0.100
856,-0.130,-0.100
857,-0.145,-0.090
858,-0.200,-0.065
859,-0.280,-0.030
860,-0.310,-0.010
861,-0.300,0.005
862,-0.170,0.090
863,0.020,0.210
864,0.410,0.195
865,0.880,0.125
866,1.275,0.015
867,1.645,-0.100
868,1.245,-0.255
869,0.670,-0.420
870,0.160,-0.585
871,-0.335,-0.745
872,-0.445,-0.660
873,-0.520,-0.545
874,-0.450,-0.410
875,-0.525,-0.535
876,-0.285,-0.200
877,-0.205,-0.125
878,-0.165,-0.085
879,-0.125,-0.045
880,-0.130,-0.050
881,-0.135,-0.055
882,-0.145,-0.055
883,-0.155,-0.055
884,-0.160,-0.060
885,-0.165,-0.065
886,-0.165,-0.065
887,-0.165,-0.065
888,-0.170,-0.060
889,-0.175,-0.055
890,-0.165,-0.055
891,-0.155,-0.055
892,-0.155,-0.055
893,-0.155,-0.055
894,-0.155,-0.060
895,-0.155,-0.065
896,-0.150,-0.060
897,-0.145,-0.055
898,-0.145,-0.050
899,-0.145,-0.045
900,-0.145,-0.050
901,-0.145,-0.055
902,-0.145,-0.060
903,-0.145,-0.060
904,-0.145,-0.050
905,-0.140,-0.045
906,-0.130,-0.045
907,-0.125,-0.045
908,-0.120,-0.045
909,-0.115,-0.045
910,-0.115,-0.050
911,-0.110,-0.055
912,-0.100,-0.050
913,-0.095,-0.045
914,-0.090,-0.040
915,-0.085,-0.035
916,-0.085,-0.035
917,-0.075,-0.035
918,-0.065,-0.035
919,-0.065,-0.035
920,-0.065,-0.035
921,-0.055,-0.030
922,-0.045,-0.025
923,-0.030,-0.020
924,-0.015,-0.015
925,-0.010,-0.025
926,-0.005,-0.035
927,0.010,-0.025
928,0.025,-0.015
929,0.035,-0.010
930,0.045,-0.005
931,0.055,-0.005
932,0.070,-0.005
933,0.085,-0.005
934,0.095,-0.005
935,0.100,0.000
936,0.115,0.005
937,0.145,0.010
938,0.170,0.020
939,0.180,0.030
940,0.190,0.035
941,0.205,0.030
942,0.220,0.030
943,0.235,0.040
944,0.245,0.045
945,0.250,0.045
946,0.245,0.045
947,0.230,0.050
948,0.210,0.050
949,0.190,0.040
950,0.165,0.035
951,0.135,0.035
952,0.110,0.035
953,0.090,0.030
954,0.060,0.015
955,0.030,0.000
956,0.010,-0.010
957,-0.010,-0.020
958,-0.025,-0.025
959,-0.045,-0.035
960,-0.060,-0.045
961,-0.075,-0.055
962,-0.090,-0.060
963,-0.105,-0.065
964,-0.110,-0.075
965,-0.115,-0.085
966,-0.125,-0.085
967,-0.135,-0.085
968,-0.130,-0.080
969,-0.125,-0.075
970,-0.125,-0.075
971,-0.125,-0.075
972,-0.130,-0.085
973,-0.135,-0.095
974,-0.125,-0.090
975,-0.115,-0.085
976,-0.115,-0.080
977,-0.115,-0.075
978,-0.120,-0.080
979,-0.125,-0.085
980,-0.125,-0.085
981,-0.125,-0.085
982,-0.130,-0.080
983,-0.135,-0.075
984,-0.130,-0.070
985,-0.125,-0.065
986,-0.125,-0.065
987,-0.125,-0.065
988,-0.130,-0.070
989,-0.135,-0.075
990,-0.130,-0.075
991,-0.125,-0.075
992,-0.125,-0.070
993,-0.125,-0.065
994,-0.130,-0.070
995,-0.135,-0.075
996,-0.135,-0.080
997,-0.140,-0.085
998,-0.150,-0.080
999,-0.145,-0.075
1000,-0.155,-0.075
1001,-0.130,-0.075
1002,-0.135,-0.075
1003,-0.140,-0.085
1004,-0.145,-0.095
1005,-0.140,-0.090
1006,-0.135,-0.085
1007,-0.135,-0.085
1008,-0.135,-0.085
1009,-0.140,-0.085
1010,-0.145,-0.085
1011,-0.145,-0.095
1012,-0.145,-0.105
1013,-0.155,-0.100
1014,-0.165,-0.095
1015,-0.155,-0.090
1016,-0.145,-0.085
1017,-0.145,-0.090
1018,-0.145,-0.095
1019,-0.145,-0.100
1020,-0.145,-0.105
1021,-0.145,-0.105
1022,-0.145,-0.100
1023,-0.140,-0.085
1024,-0.135,-0.080
1025,-0.140,-0.090
1026,-0.145,-0.095
1027,-0.145,-0.100
1028,-0.145,-0.105
1029,-0.150,-0.100
1030,-0.155,-0.095
1031,-0.150,-0.090
1032,-0.145,-0.085
1033,-0.145,-0.090
1034,-0.145,-0.100
1035,-0.145,-0.110
1036,-0.145,-0.115
1037,-0.140,-0.110
1038,-0.135,-0.105
1039,-0.135,-0.100
1040,-0.135,-0.095
1041,-0.140,-0.095
1042,-0.150,-0.105
1043,-0.155,-0.115
1044,-0.160,-0.110
1045,-0.165,-0.105
1046,-0.150,-0.100
1047,-0.135,-0.095
1048,-0.140,-0.095
1049,-0.145,-0.095
1050,-0.145,-0.105
1051,-0.145,-0.115
1052,-0.135,-0.110
1053,-0.125,-0.105
1054,-0.125,-0.100
1055,-0.125,-0.095
1056,-0.130,-0.090
1057,-0.135,-0.085
1058,-0.140,-0.095
1059,-0.145,-0.105
1060,-0.140,-0.105
1061,-0.135,-0.105
1062,-0.135,-0.105
1063,-0.135,-0.105
1064,-0.135,-0.100
1065,-0.135,-0.095
1066,-0.135,-0.100
1067,-0.135,-0.105
1068,-0.130,-0.105
1069,-0.125,-0.105
1070,-0.125,-0.100
1071,-0.125,-0.095
1072,-0.130,-0.090
1073,-0.135,-0.090
1074,-0.135,-0.100
1075,-0.135,-0.105
1076,-0.140,-0.105
1077,-0.145,-0.105
1078,-0.140,-0.100
1079,-0.135,-0.095
1080,-0.130,-0.095
1081,-0.125,-0.095
1082,-0.130,-0.100
1083,-0.130,-0.105
1084,-0.115,-0.105
1085,-0.115,-0.100
1086,-0.115,-0.095
1087,-0.120,-0.095
1088,-0.125,-0.095
1089,-0.125,-0.105
1090,-0.125,-0.115
1091,-0.135,-0.110
1092,-0.145,-0.105
1093,-0.135,-0.095
1094,-0.125,-0.085
1095,-0.125,-0.090
1096,-0.125,-0.095
1097,-0.125,-0.100
1098,-0.125,-0.105
1099,-0.120,-0.100
1100,-0.115,-0.095
1101,-0.115,-0.095
1102,-0.115,-0.095
1103,-0.120,-0.095
1104,-0.125,-0.095
1105,-0.125,-0.110
1106,-0.125,-0.110
1107,-0.125,-0.100
1108,-0.120,-0.095
1109,-0.110,-0.090
1110,-0.110,-0.085
1111,-0.120,-0.090
1112,-0.120,-0.100
1113,-0.110,-0.110
1114,-0.085,-0.110
1115,-0.055,-0.100
1116,-0.025,-0.070
1117,0.005,-0.035
1118,0.015,-0.020
1119,0.020,-0.010
1120,0.005,-0.035
1121,-0.020,-0.070
1122,-0.035,-0.075
1123,-0.050,-0.075
1124,-0.065,-0.075
1125,-0.055,-0.075
1126,-0.095,-0.095
1127,-0.105,-0.105
1128,-0.115,-0.110
1129,-0.125,-0.115
1130,-0.120,-0.110
1131,-0.115,-0.105
1132,-0.120,-0.105
1133,-0.125,-0.105
1134,-0.130,-0.110
1135,-0.135,-0.115
1136,-0.130,-0.115
1137,-0.125,-0.115
1138,-0.125,-0.110
1139,-0.125,-0.105
1140,-0.125,-0.105
1141,-0.125,-0.105
1142,-0.125,-0.105
1143,-0.125,-0.105
1144,-0.120,-0.110
1145,-0.115,-0.115
1146,-0.110,-0.100
1147,-0.100,-0.095
1148,-0.090,-0.090
1149,-0.085,-0.085
1150,-0.090,-0.085
1151,-0.140,-0.075
1152,-0.215,-0.055
1153,-0.260,-0.035
1154,-0.285,-0.015
1155,-0.205,0.065
1156,-0.070,0.165
1157,0.250,0.195
1158,0.635,0.200
1159,1.085,0.090
1160,1.550,-0.060
1161,1.430,-0.190
1162,1.195,-0.320
1163,0.630,-0.495
1164,0.025,-0.680
1165,-0.250,-0.690
1166,-0.500,-0.680
1167,-0.470,-0.555
1168,-0.435,-0.435
1169,-0.365,-0.325
1170,-0.290,-0.220
1171,-0.205,-0.150
1172,-0.125,-0.085
1173,-0.110,-0.060
1174,-0.095,-0.035
1175,-0.110,-0.055
1176,-0.125,-0.075
1177,-0.125,-0.075
1178,-0.125,-0.075
1179,-0.125,-0.070
1180,-0.125,-0.065
1181,-0.130,-0.065
1182,-0.135,-0.065
1183,-0.135,-0.070
1184,-0.135,-0.075
1185,-0.130,-0.075
1186,-0.125,-0.075
1187,-0.130,-0.075
1188,-0.135,-0.075
1189,-0.130,-0.070
1190,-0.125,-0.065
1191,-0.125,-0.070
1192,-0.125,-0.075
1193,-0.125,-0.075
1194,-0.125,-0.075
1195,-0.120,-0.070
1196,-0.115,-0.065
1197,-0.115,-0.060
1198,-0.115,-0.055
1199,-0.115,-0.060
1200,-0.115,-0.065
1201,-0.115,-0.065
1202,-0.115,-0.065
1203,-0.115,-0.065
1204,-0.110,-0.065
1205,-0.100,-0.060
1206,-0.095,-0.055
1207,-0.090,-0.055
1208,-0.085,-0.055
1209,-0.085,-0.065
1210,-0.070,-0.060
1211,-0.055,-0.055
1212,-0.055,-0.050
1213,-0.055,-0.045
1214,-0.050,-0.045
1215,-0.045,-0.045
1216,-0.040,-0.050
1217,-0.035,-0.055
1218,-0.035,-0.055
1219,-0.030,-0.055
1220,-0.010,-0.045
1221,0.005,-0.035
1222,0.020,-0.035
1223,0.035,-0.035
1224,0.040,-0.035
1225,0.050,-0.035
1226,0.070,-0.035
1227,0.085,-0.030
1228,0.095,-0.015
1229,0.110,-0.005
1230,0.125,-0.010
1231,0.140,-0.015
1232,0.155,-0.015
1233,0.170,-0.010
1234,0.180,0.000
1235,0.200,0.005
1236,0.225,0.010
1237,0.240,0.015
1238,0.250,0.015
1239,0.255,0.015
1240,0.260,0.015
1241,0.265,0.015
1242,0.265,0.020
1243,0.255,0.025
1244,0.240,0.030
1245,0.215,0.030
1246,0.190,0.020
1247,0.165,0.010
1248,0.140,0.000
1249,0.105,-0.005
1250,0.135,-0.005
1251,0.045,-0.020
1252,0.025,-0.025
1253,0.000,-0.045
1254,-0.025,-0.065
1255,-0.040,-0.070
1256,-0.055,-0.075
1257,-0.065,-0.075
1258,-0.075,-0.075
1259,-0.080,-0.080
1260,-0.085,-0.085
1261,-0.095,-0.090
1262,-0.105,-0.095
1263,-0.100,-0.100
1264,-0.095,-0.105
1265,-0.105,-0.105
1266,-0.115,-0.105
1267,-0.110,-0.105
1268,-0.105,-0.105
1269,-0.105,-0.105
1270,-0.105,-0.105
1271,-0.105,-0.110
1272,-0.105,-0.115
1273,-0.105,-0.110
1274,-0.105,-0.105
1275,-0.105,-0.100
1276,-0.105,-0.095
1277,-0.105,-0.095
1278,-0.105,-0.100
1279,-0.105,-0.110
1280,-0.105,-0.115
1281,-0.110,-0.110
1282,-0.115,-0.105
1283,-0.110,-0.100
1284,-0.105,-0.095
1285,-0.105,-0.100
1286,-0.110,-0.105
1287,-0.120,-0.105
1288,-0.125,-0.105
1289,-0.120,-0.105
1290,-0.115,-0.105
1291,-0.115,-0.100
1292,-0.120,-0.100
1293,-0.125,-0.105
1294,-0.120,-0.110
1295,-0.115,-0.115
1296,-0.125,-0.110
1297,-0.135,-0.105
1298,-0.130,-0.105
1299,-0.125,-0.105
1300,-0.125,-0.115
1301,-0.125,-0.125
1302,-0.130,-0.125
1303,-0.135,-0.125
1304,-0.130,-0.120
1305,-0.125,-0.115
1306,-0.135,-0.115
1307,-0.145,-0.115
1308,-0.145,-0.125
1309,-0.145,-0.135
1310,-0.155,-0.130
1311,-0.160,-0.125
1312,-0.140,-0.125
1313,-0.130,-0.125
1314,-0.140,-0.125
1315,-0.145,-0.125
1316,-0.140,-0.130
1317,-0.135,-0.135
1318,-0.135,-0.130
1319,-0.135,-0.125
1320,-0.135,-0.120
1321,-0.135,-0.115
1322,-0.140,-0.120
1323,-0.145,-0.130
1324,-0.140,-0.140
1325,-0.140,-0.145
1326,-0.150,-0.140
1327,-0.155,-0.135
1328,-0.150,-0.130
1329,-0.145,-0.125
1330,-0.145,-0.130
1331,-0.145,-0.135
1332,-0.150,-0.140
1333,-0.150,-0.140
1334,-0.135,-0.125
1335,-0.140,-0.125
1336,-0.145,-0.125
1337,-0.145,-0.125
1338,-0.145,-0.125
1339,-0.145,-0.135
1340,-0.145,-0.145
1341,-0.150,-0.140
1342,-0.155,-0.135
1343,-0.150,-0.125
1344,-0.145,-0.115
1345,-0.145,-0.125
1346,-0.145,-0.135
1347,-0.150,-0.135
1348,-0.155,-0.135
1349,-0.145,-0.130
1350,-0.135,-0.125
1351,-0.140,-0.120
1352,-0.145,-0.115
1353,-0.145,-0.125
1354,-0.145,-0.135
1355,-0.140,-0.140
1356,-0.135,-0.140
1357,-0.140,-0.130
1358,-0.145,-0.125
1359,-0.140,-0.125
1360,-0.135,-0.125
1361,-0.140,-0.125
1362,-0.145,-0.125
1363,-0.145,-0.130
1364,-0.140,-0.135
1365,-0.130,-0.130
1366,-0.125,-0.125
1367,-0.130,-0.120
1368,-0.135,-0.115
1369,-0.140,-0.120
1370,-0.145,-0.125
1371,-0.140,-0.130
1372,-0.135,-0.135
1373,-0.140,-0.135
1374,-0.145,-0.135
1375,-0.145,-0.135
1376,-0.135,-0.125
1377,-0.135,-0.125
1378,-0.135,-0.125
1379,-0.135,-0.125
1380,-0.130,-0.130
1381,-0.125,-0.135
1382,-0.125,-0.125
1383,-0.125,-0.115
1384,-0.125,-0.120
1385,-0.125,-0.125
1386,-0.130,-0.130
1387,-0.135,-0.135
1388,-0.140,-0.125
1389,-0.145,-0.115
1390,-0.135,-0.120
1391,-0.125,-0.125
1392,-0.130,-0.120
1393,-0.135,-0.115
1394,-0.130,-0.125
1395,-0.125,-0.135
1396,-0.110,-0.120
1397,-0.105,-0.115
1398,-0.110,-0.115
1399,-0.120,-0.115
1400,-0.130,-0.120
1401,-0.120,-0.125
1402,-0.095,-0.130
1403,-0.075,-0.120
1404,-0.055,-0.095
1405,-0.020,-0.070
1406,0.015,-0.045
1407,0.010,-0.040
1408,-0.010,-0.050
1409,-0.025,-0.070
1410,-0.040,-0.090
1411,-0.055,-0.095
1412,-0.070,-0.095
1413,-0.085,-0.100
1414,-0.100,-0.110
1415,-0.105,-0.115
1416,-0.110,-0.115
1417,-0.120,-0.125
1418,-0.125,-0.135
1419,-0.140,-0.135
1420,-0.155,-0.135
1421,-0.150,-0.125
1422,-0.145,-0.115
1423,-0.145,-0.120
1424,-0.145,-0.125
1425,-0.150,-0.130
1426,-0.155,-0.135
1427,-0.150,-0.130
1428,-0.145,-0.125
1429,-0.140,-0.120
1430,-0.135,-0.115
1431,-0.135,-0.120
1432,-0.135,-0.125
1433,-0.130,-0.125
1434,-0.125,-0.125
1435,-0.130,-0.120
1436,-0.130,-0.115
1437,-0.110,-0.110
1438,-0.130,-0.100
1439,-0.210,-0.085
1440,-0.270,-0.070
1441,-0.320,-0.055
1442,-0.265,0.015
1443,-0.125,0.115
1444,0.165,0.175
1445,0.545,0.210
1446,1.000,0.135
1447,1.490,0.005
1448,1.460,-0.115
1449,1.235,-0.230
1450,0.675,-0.435
1451,0.020,-0.670
1452,-0.265,-0.690
1453,-0.475,-0.650
1454,-0.480,-0.545
1455,-0.450,-0.425
1456,-0.365,-0.335
1457,-0.280,-0.240
1458,-0.210,-0.170
1459,-0.135,-0.095
1460,-0.125,-0.075
1461,-0.115,-0.055
1462,-0.130,-0.065
1463,-0.145,-0.075
1464,-0.150,-0.085
1465,-0.155,-0.095
1466,-0.160,-0.090
1467,-0.165,-0.085
1468,-0.155,-0.085
1469,-0.145,-0.085
1470,-0.150,-0.080
1471,-0.155,-0.075
1472,-0.155,-0.085
1473,-0.155,-0.095
1474,-0.150,-0.090
1475,-0.145,-0.085
1476,-0.145,-0.080
1477,-0.145,-0.075
1478,-0.140,-0.075
1479,-0.135,-0.075
1480,-0.135,-0.080
1481,-0.135,-0.085
1482,-0.135,-0.080
1483,-0.130,-0.075
1484,-0.120,-0.075
1485,-0.115,-0.075
1486,-0.120,-0.075
1487,-0.125,-0.075
1488,-0.120,-0.080
1489,-0.115,-0.085
1490,-0.110,-0.080
1491,-0.105,-0.075
1492,-0.100,-0.070
1493,-0.095,-0.065
1494,-0.095,-0.065
1495,-0.090,-0.065
1496,-0.080,-0.065
1497,-0.075,-0.065
1498,-0.075,-0.065
1499,-0.070,-0.060
1500,-0.075,-0.065
1501,-0.045,-0.050
1502,-0.035,-0.055
1503,-0.035,-0.055
1504,-0.035,-0.055
1505,-0.020,-0.050
1506,-0.005,-0.045
1507,0.010,-0.040
1508,0.025,-0.035
1509,0.030,-0.035
1510,0.035,-0.035
1511,0.050,-0.035
1512,0.065,-0.035
1513,0.075,-0.035
1514,0.090,-0.035
1515,0.110,-0.025
1516,0.130,-0.015
1517,0.145,-0.015
1518,0.160,-0.015
1519,0.175,-0.015
1520,0.190,-0.015
1521,0.215,-0.015
1522,0.230,-0.010
1523,0.245,0.005
1524,0.255,0.015
1525,0.255,0.015
1526,0.255,0.015
1527,0.260,0.015
1528,0.255,0.015
1529,0.240,0.020
1530,0.225,0.025
1531,0.210,0.030
1532,0.185,0.035
1533,0.155,0.030
1534,0.125,0.015
1535,0.090,0.000
1536,0.075,-0.010
1537,0.060,-0.020
1538,0.035,-0.025
1539,0.010,-0.030
1540,-0.015,-0.040
1541,-0.040,-0.050
1542,-0.065,-0.070
1543,-0.085,-0.085
1544,-0.095,-0.085
1545,-0.105,-0.085
1546,-0.105,-0.085
1547,-0.105,-0.085
1548,-0.110,-0.085
1549,-0.115,-0.085
1550,-0.120,-0.090
1551,-0.125,-0.095
1552,-0.120,-0.095
1553,-0.115,-0.095
1554,-0.120,-0.090
1555,-0.125,-0.085
1556,-0.130,-0.085
1557,-0.135,-0.085
1558,-0.140,-0.090
1559,-0.145,-0.095
1560,-0.150,-0.095
1561,-0.150,-0.095
1562,-0.130,-0.090
1563,-0.115,-0.085
1564,-0.120,-0.085
1565,-0.125,-0.085
1566,-0.130,-0.085
1567,-0.135,-0.085
1568,-0.135,-0.085
1569,-0.130,-0.085
1570,-0.120,-0.080
1571,-0.115,-0.070
1572,-0.115,-0.060
1573,-0.120,-0.065
1574,-0.130,-0.080
1575,-0.135,-0.085
1576,-0.135,-0.090
1577,-0.140,-0.095
1578,-0.150,-0.095
1579,-0.145,-0.090
1580,-0.130,-0.080
1581,-0.125,-0.075
1582,-0.130,-0.080
1583,-0.140,-0.085
1584,-0.155,-0.095
1585,-0.140,-0.095
1586,-0.125,-0.095
1587,-0.125,-0.090
1588,-0.125,-0.085
1589,-0.125,-0.085
1590,-0.125,-0.085
1591,-0.130,-0.095
1592,-0.135,-0.105
1593,-0.145,-0.100
1594,-0.155,-0.095
1595,-0.145,-0.090
1596,-0.135,-0.085
1597,-0.135,-0.090
1598,-0.135,-0.095
1599,-0.135,-0.100
1600,-0.135,-0.105
1601,-0.130,-0.105
1602,-0.125,-0.105
1603,-0.125,-0.095
1604,-0.125,-0.085
1605,-0.130,-0.085
1606,-0.135,-0.090
1607,-0.135,-0.100
1608,-0.140,-0.105
1609,-0.150,-0.105
1610,-0.150,-0.100
1611,-0.140,-0.090
1612,-0.135,-0.085
1613,-0.135,-0.090
1614,-0.135,-0.095
1615,-0.130,-0.100
1616,-0.125,-0.105
1617,-0.120,-0.105
1618,-0.115,-0.100
1619,-0.115,-0.090
1620,-0.115,-0.085
1621,-0.120,-0.085
1622,-0.125,-0.085
1623,-0.120,-0.090
1624,-0.115,-0.095
1625,-0.115,-0.095
1626,-0.120,-0.100
1627,-0.115,-0.105
1628,-0.100,-0.100
1629,-0.085,-0.095
1630,-0.065,-0.080
1631,-0.040,-0.065
1632,-0.005,-0.040
1633,0.025,-0.015
1634,0.020,-0.015
1635,0.010,-0.020
1636,-0.020,-0.045
1637,-0.045,-0.065
1638,-0.045,-0.065
1639,-0.055,-0.070
1640,-0.085,-0.090
1641,-0.105,-0.105
1642,-0.105,-0.100
1643,-0.105,-0.095
1644,-0.115,-0.100
1645,-0.125,-0.105
1646,-0.125,-0.105
1647,-0.125,-0.105
1648,-0.120,-0.100
1649,-0.115,-0.095
1650,-0.120,-0.095
1651,-0.125,-0.095
1652,-0.130,-0.100
1653,-0.135,-0.105
1654,-0.130,-0.105
1655,-0.125,-0.105
1656,-0.125,-0.100
1657,-0.125,-0.095
1658,-0.120,-0.095
1659,-0.115,-0.095
1660,-0.120,-0.100
1661,-0.120,-0.105
1662,-0.110,-0.105
1663,-0.100,-0.100
1664,-0.090,-0.090
1665,-0.085,-0.085
1666,-0.085,-0.080
1667,-0.100,-0.080
1668,-0.115,-0.085
1669,-0.235,-0.055
1670,-0.345,-0.025
1671,-0.280,0.015
1672,-0.195,0.065
1673,0.065,0.180
1674,0.375,0.260
1675,0.905,0.170
1676,1.375,0.075
1677,1.615,-0.035
1678,1.600,-0.160
1679,0.860,-0.340
1680,0.230,-0.495
1681,-0.150,-0.595
1682,-0.400,-0.630
1683,-0.425,-0.520
1684,-0.420,-0.410
1685,-0.345,-0.300
1686,-0.270,-0.205
1687,-0.180,-0.125
1688,-0.125,-0.070
1689,-0.100,-0.040
1690,-0.085,-0.030
1691,-0.085,-0.045
1692,-0.090,-0.055
1693,-0.100,-0.055
1694,-0.105,-0.055
1695,-0.100,-0.050
1696,-0.095,-0.045
1697,-0.095,-0.050
1698,-0.095,-0.055
1699,-0.095,-0.055
1700,-0.095,-0.055
1701,-0.100,-0.050
1702,-0.105,-0.045
1703,-0.100,-0.040
1704,-0.095,-0.035
1705,-0.090,-0.040
1706,-0.085,-0.045
1707,-0.090,-0.050
1708,-0.095,-0.055
1709,-0.085,-0.045
1710,-0.085,-0.040
1711,-0.085,-0.035
1712,-0.080,-0.030
1713,-0.075,-0.025
1714,-0.070,-0.035
1715,-0.065,-0.045
1716,-0.065,-0.040
1717,-0.065,-0.035
1718,-0.055,-0.025
1719,-0.045,-0.015
1720,-0.045,-0.015
1721,-0.045,-0.015
1722,-0.045,-0.025
1723,-0.040,-0.035
1724,-0.025,-0.030
1725,-0.015,-0.025
1726,-0.010,-0.015
1727,-0.005,-0.005
1728,0.000,-0.010
1729,0.005,-0.015
1730,0.010,-0.020
1731,0.015,-0.020
1732,0.015,-0.010
1733,0.025,-0.005
1734,0.045,0.000
1735,0.060,0.005
1736,0.070,0.010
1737,0.080,0.015
1738,0.090,0.010
1739,0.105,0.005
1740,0.120,0.005
1741,0.130,0.010
1742,0.140,0.020
1743,0.150,0.025
1744,0.160,0.025
1745,0.175,0.025
1746,0.190,0.025
1747,0.205,0.025
1748,0.220,0.030
1749,0.240,0.035
1750,0.225,0.035
1751,0.280,0.045
1752,0.295,0.045
1753,0.300,0.050
1754,0.305,0.055
1755,0.305,0.060
1756,0.305,0.065
1757,0.310,0.070
1758,0.315,0.075
1759,0.295,0.075
1760,0.270,0.075
1761,0.240,0.065
1762,0.215,0.055
1763,0.200,0.050
1764,0.175,0.045
1765,0.135,0.035
1766,0.100,0.025
1767,0.085,0.015
1768,0.065,0.005
1769,0.040,-0.005
1770,0.020,-0.015
1771,0.005,-0.030
1772,-0.010,-0.035
1773,-0.020,-0.035
1774,-0.030,-0.035
1775,-0.040,-0.040
1776,-0.045,-0.045
1777,-0.050,-0.050
1778,-0.055,-0.055
1779,-0.055,-0.060
1780,-0.060,-0.065
1781,-0.070,-0.065
1782,-0.075,-0.060
1783,-0.070,-0.050
1784,-0.065,-0.045
1785,-0.065,-0.050
1786,-0.065,-0.055
1787,-0.070,-0.055
1788,-0.070,-0.055
1789,-0.060,-0.055
1790,-0.055,-0.055
1791,-0.055,-0.050
1792,-0.060,-0.050
1793,-0.065,-0.055
1794,-0.060,-0.055
1795,-0.055,-0.055
1796,-0.060,-0.050
1797,-0.065,-0.045
1798,-0.065,-0.040
1799,-0.065,-0.035
1800,-0.065,-0.040
1801,-0.065,-0.045
1802,-0.065,-0.050
1803,-0.065,-0.055
1804,-0.060,-0.050
1805,-0.055,-0.045
1806,-0.065,-0.045
1807,-0.075,-0.045
1808,-0.075,-0.050
1809,-0.075,-0.055
1810,-0.070,-0.055
1811,-0.065,-0.055
1812,-0.075,-0.055
1813,-0.085,-0.055
1814,-0.080,-0.055
1815,-0.075,-0.055
1816,-0.080,-0.060
1817,-0.085,-0.065
1818,-0.080,-0.065
1819,-0.075,-0.065
1820,-0.070,-0.060
1821,-0.070,-0.055
1822,-0.080,-0.060
1823,-0.085,-0.065
1824,-0.090,-0.070
1825,-0.095,-0.075
1826,-0.095,-0.070
1827,-0.090,-0.065
1828,-0.080,-0.060
1829,-0.075,-0.055
1830,-0.075,-0.055
1831,-0.075,-0.060
1832,-0.080,-0.070
1833,-0.085,-0.075
1834,-0.075,-0.075
1835,-0.075,-0.065
1836,-0.075,-0.055
1837,-0.075,-0.055
1838,-0.075,-0.055
1839,-0.080,-0.065
1840,-0.085,-0.075
1841,-0.095,-0.075
1842,-0.105,-0.075
1843,-0.085,-0.070
1844,-0.060,-0.065
1845,-0.040,-0.050
1846,-0.020,-0.035
1847,0.005,-0.020
1848,0.025,-0.005
1849,0.030,-0.005
1850,0.025,-0.010
1851,-0.005,-0.030
1852,-0.025,-0.045
1853,-0.035,-0.045
1854,-0.050,-0.050
1855,-0.065,-0.065
1856,-0.080,-0.075
1857,-0.095,-0.070
1858,-0.105,-0.065
1859,-0.100,-0.065
1860,-0.095,-0.065
1861,-0.095,-0.070
1862,-0.095,-0.080
1863,-0.095,-0.090
1864,-0.095,-0.095
1865,-0.095,-0.090
1866,-0.095,-0.080
1867,-0.095,-0.070
1868,-0.095,-0.065
1869,-0.100,-0.070
1870,-0.105,-0.075
1871,-0.105,-0.080
1872,-0.105,-0.085
1873,-0.110,-0.080
1874,-0.110,-0.075
1875,-0.115,-0.075
1876,-0.095,-0.070
1877,-0.095,-0.075
1878,-0.090,-0.075
1879,-0.085,-0.075
1880,-0.075,-0.070
1881,-0.065,-0.065
1882,-0.060,-0.060
1883,-0.060,-0.055
1884,-0.095,-0.040
1885,-0.145,-0.025
1886,-0.230,0.000
1887,-0.280,0.025
1888,-0.220,0.070
1889,-0.090,0.140
1890,0.185,0.245
1891,0.540,0.260
1892,1.040,0.115
1893,1.395,-0.030
1894,1.545,-0.160
1895,1.310,-0.320
1896,0.635,-0.505
1897,0.115,-0.610
1898,-0.260,-0.645
1899,-0.425,-0.585
1900,-0.425,-0.445
1901,-0.370,-0.320
1902,-0.270,-0.205
1903,-0.195,-0.125
1904,-0.125,-0.055
1905,-0.095,-0.025
1906,-0.080,-0.010
1907,-0.080,-0.010
1908,-0.090,-0.020
1909,-0.095,-0.030
1910,-0.100,-0.040
1911,-0.105,-0.045
1912,-0.100,-0.040
1913,-0.095,-0.035
1914,-0.100,-0.035
1915,-0.105,-0.035
1916,-0.105,-0.035
1917,-0.100,-0.040
1918,-0.095,-0.045
1919,-0.105,-0.040
1920,-0.115,-0.035
1921,-0.100,-0.030
1922,-0.085,-0.025
1923,-0.090,-0.030
1924,-0.095,-0.035
1925,-0.090,-0.035
1926,-0.085,-0.035
1927,-0.080,-0.030
1928,-0.075,-0.025
1929,-0.075,-0.025
1930,-0.075,-0.025
1931,-0.070,-0.020
1932,-0.065,-0.015
1933,-0.060,-0.025
1934,-0.055,-0.035
1935,-0.060,-0.030
1936,-0.065,-0.025
1937,-0.055,-0.020
1938,-0.045,-0.015
1939,-0.040,-0.015
1940,-0.035,-0.015
1941,-0.030,-0.015
1942,-0.020,-0.015
1943,-0.010,-0.010
1944,-0.005,-0.005
1945,-0.005,0.000
1946,0.000,0.005
1947,0.010,0.005
1948,0.025,0.005
1949,0.040,0.000
1950,0.045,0.000
1951,0.045,0.010
1952,0.055,0.015
1953,0.070,0.020
1954,0.085,0.025
1955,0.100,0.025
1956,0.110,0.025
1957,0.120,0.025
1958,0.140,0.025
1959,0.165,0.035
1960,0.175,0.040
1961,0.185,0.045
1962,0.200,0.045
1963,0.215,0.045
1964,0.230,0.045
1965,0.245,0.045
1966,0.255,0.050
1967,0.265,0.055
1968,0.280,0.065
1969,0.295,0.075
1970,0.300,0.075
1971,0.305,0.075
1972,0.295,0.075
1973,0.285,0.075
1974,0.275,0.075
1975,0.255,0.075
1976,0.230,0.075
1977,0.200,0.070
1978,0.165,0.055
1979,0.135,0.045
1980,0.110,0.030
1981,0.080,0.020
1982,0.045,0.005
1983,0.020,-0.005
1984,0.010,-0.010
1985,-0.005,-0.015
1986,-0.025,-0.020
1987,-0.040,-0.035
1988,-0.050,-0.050
1989,-0.055,-0.055
1990,-0.060,-0.055
1991,-0.065,-0.055
1992,-0.065,-0.055
1993,-0.070,-0.055
1994,-0.080,-0.060
1995,-0.085,-0.065
1996,-0.085,-0.070
1997,-0.090,-0.075
1998,-0.100,-0.075
1999,-0.100,-0.070
2000,-0.105,-0.075
2001,-0.085,-0.055
2002,-0.085,-0.055
2003,-0.085,-0.065
2004,-0.085,-0.075
2005,-0.080,-0.070
2006,-0.075,-0.065
2007,-0.075,-0.060
2008,-0.075,-0.055
2009,-0.080,-0.055
2010,-0.085,-0.055
2011,-0.085,-0.060
2012,-0.085,-0.065
2013,-0.085,-0.065
2014,-0.085,-0.065
2015,-0.090,-0.060
2016,-0.095,-0.055
2017,-0.090,-0.055
2018,-0.085,-0.055
2019,-0.090,-0.060
2020,-0.095,-0.065
2021,-0.095,-0.065
2022,-0.095,-0.065
2023,-0.090,-0.060
2024,-0.090,-0.055
2025,-0.100,-0.055
2026,-0.105,-0.060
2027,-0.110,-0.070
2028,-0.110,-0.075
2029,-0.100,-0.070
2030,-0.095,-0.065
2031,-0.100,-0.065
2032,-0.105,-0.065
2033,-0.105,-0.065
2034,-0.105,-0.070
2035,-0.110,-0.080
2036,-0.115,-0.085
2037,-0.110,-0.085
2038,-0.105,-0.085
2039,-0.100,-0.080
2040,-0.095,-0.075
2041,-0.100,-0.070
2042,-0.110,-0.075
2043,-0.115,-0.085
2044,-0.105,-0.085
2045,-0.095,-0.085
2046,-0.100,-0.085
2047,-0.105,-0.085
2048,-0.105,-0.085
2049,-0.105,-0.085
2050,-0.110,-0.090
2051,-0.115,-0.095
2052,-0.110,-0.095
2053,-0.105,-0.095
2054,-0.105,-0.090
2055,-0.105,-0.085
2056,-0.105,-0.085
2057,-0.105,-0.085
2058,-0.105,-0.085
2059,-0.105,-0.085
2060,-0.100,-0.085
2061,-0.095,-0.085
2062,-0.095,-0.080
2063,-0.095,-0.075
2064,-0.095,-0.080
2065,-0.095,-0.090
2066,-0.095,-0.100
2067,-0.090,-0.100
2068,-0.075,-0.090
2069,-0.045,-0.065
2070,-0.010,-0.030
2071,0.010,-0.015
2072,0.020,-0.010
2073,0.005,-0.030
2074,-0.025,-0.065
2075,-0.035,-0.075
2076,-0.040,-0.075
2077,-0.055,-0.075
2078,-0.070,-0.075
2079,-0.080,-0.080
2080,-0.090,-0.090
2081,-0.100,-0.095
2082,-0.110,-0.100
2083,-0.115,-0.105
2084,-0.115,-0.105
2085,-0.115,-0.100
2086,-0.115,-0.095
2087,-0.115,-0.095
2088,-0.115,-0.095
2089,-0.120,-0.100
2090,-0.125,-0.105
2091,-0.130,-0.105
2092,-0.135,-0.105
2093,-0.125,-0.095
2094,-0.115,-0.085
2095,-0.120,-0.090
2096,-0.125,-0.095
2097,-0.125,-0.100
2098,-0.125,-0.105
2099,-0.115,-0.100
2100,-0.105,-0.095
2101,-0.105,-0.090
2102,-0.105,-0.085
2103,-0.100,-0.085
2104,-0.090,-0.085
2105,-0.075,-0.090
2106,-0.105,-0.085
2107,-0.180,-0.060
2108,-0.250,-0.035
2109,-0.310,-0.005
2110,-0.275,0.045
2111,-0.170,0.120
2112,0.080,0.185
2113,0.400,0.245
2114,0.870,0.160
2115,1.400,0.010
2116,1.495,-0.120
2117,1.455,-0.250
2118,0.905,-0.440
2119,0.240,-0.645
2120,-0.120,-0.675
2121,-0.435,-0.680
2122,-0.465,-0.560
2123,-0.460,-0.415
2124,-0.365,-0.295
2125,-0.455,-0.405
2126,-0.195,-0.120
2127,-0.125,-0.065
2128,-0.110,-0.055
2129,-0.095,-0.045
2130,-0.100,-0.055
2131,-0.105,-0.065
2132,-0.110,-0.065
2133,-0.115,-0.065
2134,-0.120,-0.060
2135,-0.125,-0.055
2136,-0.125,-0.065
2137,-0.125,-0.075
2138,-0.125,-0.075
2139,-0.125,-0.075
2140,-0.120,-0.065
2141,-0.115,-0.055
2142,-0.115,-0.055
2143,-0.115,-0.055
2144,-0.115,-0.060
2145,-0.115,-0.065
2146,-0.110,-0.065
2147,-0.105,-0.065
2148,-0.105,-0.060
2149,-0.105,-0.055
2150,-0.105,-0.055
2151,-0.105,-0.055
2152,-0.105,-0.060
2153,-0.105,-0.065
2154,-0.100,-0.065
2155,-0.095,-0.060
2156,-0.090,-0.050
2157,-0.085,-0.045
2158,-0.085,-0.050
2159,-0.085,-0.055
2160,-0.080,-0.060
2161,-0.070,-0.060
2162,-0.060,-0.050
2163,-0.050,-0.045
2164,-0.040,-0.040
2165,-0.035,-0.035
2166,-0.035,-0.040
2167,-0.030,-0.045
2168,-0.025,-0.045
2169,-0.025,-0.040
2170,-0.025,-0.035
2171,-0.005,-0.030
2172,0.015,-0.025
2173,0.020,-0.025
2174,0.025,-0.025
2175,0.035,-0.030
2176,0.045,-0.035
2177,0.060,-0.030
2178,0.075,-0.025
2179,0.090,-0.010
2180,0.105,0.005
2181,0.110,0.000
2182,0.120,-0.005
2183,0.135,-0.010
2184,0.145,-0.015
2185,0.155,-0.010
2186,0.175,-0.005
2187,0.200,0.005
2188,0.220,0.015
2189,0.235,0.020
2190,0.250,0.025
2191,0.260,0.020
2192,0.270,0.015
2193,0.280,0.020
2194,0.285,0.030
2195,0.280,0.050
2196,0.265,0.055
2197,0.250,0.050
2198,0.230,0.040
2199,0.205,0.030
2200,0.180,0.025
2201,0.160,0.020
2202,0.130,0.015
2203,0.100,0.010
2204,0.075,0.000
2205,0.050,-0.010
2206,0.025,-0.030
2207,0.000,-0.050
2208,-0.015,-0.055
2209,-0.035,-0.055
2210,-0.045,-0.060
2211,-0.055,-0.065
2212,-0.060,-0.070
2213,-0.065,-0.075
2214,-0.080,-0.085
2215,-0.095,-0.095
2216,-0.095,-0.095
2217,-0.095,-0.095
2218,-0.095,-0.090
2219,-0.095,-0.085
2220,-0.095,-0.090
2221,-0.095,-0.095
2222,-0.095,-0.095
2223,-0.095,-0.095
2224,-0.095,-0.100
2225,-0.095,-0.105
2226,-0.090,-0.095
2227,-0.085,-0.085
2228,-0.090,-0.085
2229,-0.095,-0.085
2230,-0.095,-0.100
2231,-0.095,-0.105
2232,-0.095,-0.100
2233,-0.095,-0.095
2234,-0.095,-0.090
2235,-0.095,-0.085
2236,-0.095,-0.080
2237,-0.095,-0.080
2238,-0.095,-0.090
2239,-0.095,-0.095
2240,-0.095,-0.095
2241,-0.095,-0.090
2242,-0.090,-0.080
2243,-0.085,-0.075
2244,-0.090,-0.080
2245,-0.100,-0.085
2246,-0.110,-0.090
2247,-0.110,-0.095
2248,-0.100,-0.095
2249,-0.100,-0.095
2250,-0.095,-0.095
2251,-0.115,-0.090
2252,-0.115,-0.095
2253,-0.115,-0.100
2254,-0.115,-0.105
2255,-0.110,-0.105
2256,-0.105,-0.105
2257,-0.105,-0.100
2258,-0.105,-0.095
2259,-0.105,-0.100
2260,-0.105,-0.105
2261,-0.115,-0.110
2262,-0.125,-0.115
2263,-0.115,-0.115
2264,-0.105,-0.115
2265,-0.115,-0.110
2266,-0.125,-0.105
2267,-0.120,-0.100
2268,-0.115,-0.095
2269,-0.125,-0.105
2270,-0.135,-0.115
2271,-0.130,-0.115
2272,-0.125,-0.115
2273,-0.120,-0.110
2274,-0.115,-0.105
2275,-0.120,-0.105
2276,-0.125,-0.105
2277,-0.125,-0.110
2278,-0.125,-0.115
2279,-0.120,-0.115
2280,-0.120,-0.115
2281,-0.130,-0.115
2282,-0.135,-0.115
2283,-0.130,-0.115
2284,-0.125,-0.115
2285,-0.125,-0.120
2286,-0.125,-0.125
2287,-0.125,-0.125
2288,-0.125,-0.125
2289,-0.120,-0.120
2290,-0.115,-0.115
2291,-0.120,-0.110
2292,-0.120,-0.110
2293,-0.115,-0.115
2294,-0.110,-0.120
2295,-0.105,-0.125
2296,-0.115,-0.120
2297,-0.125,-0.115
2298,-0.125,-0.115
2299,-0.125,-0.115
2300,-0.125,-0.120
2301,-0.125,-0.125
2302,-0.115,-0.125
2303,-0.105,-0.125
2304,-0.105,-0.115
2305,-0.105,-0.105
2306,-0.110,-0.110
2307,-0.115,-0.115
2308,-0.120,-0.120
2309,-0.125,-0.125
2310,-0.115,-0.125
2311,-0.105,-0.125
2312,-0.105,-0.120
2313,-0.105,-0.115
2314,-0.105,-0.110
2315,-0.105,-0.105
2316,-0.105,-0.110
2317,-0.105,-0.115
2318,-0.105,-0.120
2319,-0.100,-0.125
2320,-0.080,-0.120
2321,-0.075,-0.115
2322,-0.070,-0.115
2323,-0.050,-0.100
2324,-0.025,-0.075
2325,0.000,-0.060
2326,0.020,-0.050
2327,0.005,-0.060
2328,-0.020,-0.080
2329,-0.035,-0.085
2330,-0.050,-0.090
2331,-0.065,-0.100
2332,-0.080,-0.110
2333,-0.085,-0.115
2334,-0.085,-0.125
2335,-0.095,-0.120
2336,-0.105,-0.115
2337,-0.110,-0.120
2338,-0.115,-0.125
2339,-0.120,-0.130
2340,-0.125,-0.135
2341,-0.135,-0.135
2342,-0.145,-0.135
2343,-0.135,-0.125
2344,-0.125,-0.115
2345,-0.125,-0.120
2346,-0.125,-0.125
2347,-0.125,-0.125
2348,-0.125,-0.125
2349,-0.120,-0.120
2350,-0.115,-0.115
2351,-0.115,-0.115
2352,-0.115,-0.115
2353,-0.110,-0.115
2354,-0.105,-0.115
2355,-0.105,-0.115
2356,-0.100,-0.115
2357,-0.090,-0.110
2358,-0.105,-0.095
2359,-0.140,-0.075
2360,-0.205,-0.055
2361,-0.295,-0.035
2362,-0.280,0.005
2363,-0.210,0.050
2364,0.020,0.130
2365,0.315,0.220
2366,0.750,0.150
2367,1.230,0.020
2368,1.440,-0.100
2369,1.580,-0.225
2370,1.015,-0.420
2371,0.320,-0.625
2372,-0.075,-0.685
2373,-0.445,-0.730
2374,-0.465,-0.615
2375,-0.465,-0.735
2376,-0.390,-0.365
2377,-0.305,-0.245
2378,-0.220,-0.180
2379,-0.145,-0.115
2380,-0.115,-0.085
2381,-0.085,-0.055
2382,-0.095,-0.060
2383,-0.105,-0.065
2384,-0.115,-0.070
2385,-0.125,-0.075
2386,-0.130,-0.080
2387,-0.135,-0.085
2388,-0.140,-0.085
2389,-0.145,-0.085
2390,-0.135,-0.075
2391,-0.125,-0.065
2392,-0.130,-0.065
2393,-0.135,-0.065
2394,-0.135,-0.075
2395,-0.130,-0.085
2396,-0.115,-0.080
2397,-0.105,-0.075
2398,-0.110,-0.070
2399,-0.115,-0.065
2400,-0.115,-0.065
2401,-0.115,-0.070
2402,-0.115,-0.080
2403,-0.115,-0.085
2404,-0.110,-0.085
2405,-0.105,-0.080
2406,-0.105,-0.070
2407,-0.105,-0.065
2408,-0.100,-0.065
2409,-0.095,-0.065
2410,-0.095,-0.070
2411,-0.090,-0.075
2412,-0.080,-0.075
2413,-0.075,-0.075
2414,-0.070,-0.070
2415,-0.065,-0.065
2416,-0.065,-0.060
2417,-0.060,-0.060
2418,-0.055,-0.065
2419,-0.040,-0.065
2420,-0.025,-0.065
2421,-0.030,-0.055
2422,-0.035,-0.045
2423,-0.025,-0.045
2424,-0.015,-0.045
2425,-0.010,-0.045
2426,-0.005,-0.045
2427,0.005,-0.045
2428,0.015,-0.045
2429,0.030,-0.040
2430,0.045,-0.035
2431,0.050,-0.030
2432,0.060,-0.025
2433,0.075,-0.025
2434,0.090,-0.025
2435,0.110,-0.025
2436,0.125,-0.025
2437,0.130,-0.020
2438,0.145,-0.015
2439,0.165,-0.010
2440,0.180,-0.005
2441,0.190,0.000
2442,0.200,0.005
2443,0.215,0.005
2444,0.240,0.010
2445,0.265,0.020
2446,0.275,0.025
2447,0.270,0.030
2448,0.265,0.035
2449,0.260,0.030
2450,0.255,0.025
2451,0.250,0.025
2452,0.220,0.025
2453,0.190,0.030
2454,0.165,0.030
2455,0.140,0.020
2456,0.105,0.005
2457,0.070,-0.010
2458,0.045,-0.020
2459,0.015,-0.035
2460,0.000,-0.035
2461,-0.015,-0.035
2462,-0.035,-0.050
2463,-0.055,-0.065
2464,-0.070,-0.080
2465,-0.085,-0.095
2466,-0.085,-0.090
2467,-0.085,-0.085
2468,-0.100,-0.085
2469,-0.115,-0.085
2470,-0.110,-0.085
2471,-0.105,-0.085
2472,-0.115,-0.095
2473,-0.125,-0.105
2474,-0.120,-0.100
2475,-0.115,-0.095
2476,-0.105,-0.095
2477,-0.095,-0.095
2478,-0.100,-0.090
2479,-0.105,-0.085
2480,-0.110,-0.100
2481,-0.115,-0.105
2482,-0.110,-0.100
2483,-0.105,-0.090
2484,-0.110,-0.080
2485,-0.115,-0.075
2486,-0.110,-0.080
2487,-0.105,-0.090
2488,-0.105,-0.100
2489,-0.105,-0.100
2490,-0.105,-0.090
2491,-0.105,-0.085
2492,-0.105,-0.080
2493,-0.105,-0.075
2494,-0.110,-0.080
2495,-0.115,-0.085
2496,-0.115,-0.090
2497,-0.120,-0.095
2498,-0.130,-0.090
2499,-0.135,-0.085
2500,-0.135,-0.085
2501,-0.125,-0.090
2502,-0.125,-0.095
2503,-0.125,-0.095
2504,-0.125,-0.095
2505,-0.125,-0.095
2506,-0.125,-0.095
2507,-0.130,-0.095
2508,-0.135,-0.095
2509,-0.135,-0.100
2510,-0.135,-0.105
2511,-0.135,-0.110
2512,-0.135,-0.115
2513,-0.140,-0.110
2514,-0.145,-0.105
2515,-0.140,-0.100
2516,-0.135,-0.095
2517,-0.135,-0.100
2518,-0.135,-0.105
2519,-0.140,-0.110
2520,-0.145,-0.115
2521,-0.140,-0.110
2522,-0.135,-0.105
2523,-0.135,-0.105
2524,-0.135,-0.105
2525,-0.140,-0.105
2526,-0.145,-0.110
2527,-0.145,-0.120
2528,-0.145,-0.125
2529,-0.150,-0.120
2530,-0.155,-0.115
2531,-0.150,-0.110
2532,-0.145,-0.105
2533,-0.140,-0.105
2534,-0.135,-0.110
2535,-0.140,-0.120
2536,-0.145,-0.120
2537,-0.140,-0.110
2538,-0.135,-0.105
2539,-0.140,-0.105
2540,-0.145,-0.105
2541,-0.145,-0.105
2542,-0.145,-0.115
2543,-0.145,-0.125
2544,-0.150,-0.120
2545,-0.155,-0.115
2546,-0.150,-0.110
2547,-0.145,-0.105
2548,-0.145,-0.110
2549,-0.145,-0.115
2550,-0.145,-0.120
2551,-0.145,-0.125
2552,-0.140,-0.125
2553,-0.135,-0.125
2554,-0.135,-0.115
2555,-0.135,-0.105
2556,-0.135,-0.105
2557,-0.135,-0.105
2558,-0.145,-0.115
2559,-0.155,-0.125
2560,-0.145,-0.125
2561,-0.135,-0.125
2562,-0.140,-0.115
2563,-0.145,-0.105
2564,-0.140,-0.105
2565,-0.135,-0.110
2566,-0.140,-0.120
2567,-0.145,-0.125
2568,-0.145,-0.120
2569,-0.145,-0.115
2570,-0.140,-0.110
2571,-0.135,-0.105
2572,-0.140,-0.105
2573,-0.145,-0.105
2574,-0.145,-0.110
2575,-0.140,-0.115
2576,-0.130,-0.120
2577,-0.125,-0.120
2578,-0.130,-0.110
2579,-0.135,-0.105
2580,-0.130,-0.110
2581,-0.130,-0.115
2582,-0.140,-0.120
2583,-0.140,-0.125
2584,-0.125,-0.125
2585,-0.095,-0.105
2586,-0.065,-0.085
2587,-0.040,-0.060
2588,-0.015,-0.035
2589,-0.030,-0.055
2590,-0.045,-0.075
2591,-0.060,-0.095
2592,-0.075,-0.115
2593,-0.085,-0.100
2594,-0.095,-0.085
2595,-0.110,-0.100
2596,-0.125,-0.115
2597,-0.130,-0.120
2598,-0.135,-0.125
2599,-0.145,-0.125
2600,-0.155,-0.125
2601,-0.150,-0.120
2602,-0.145,-0.115
2603,-0.150,-0.115
2604,-0.155,-0.115
2605,-0.160,-0.120
2606,-0.165,-0.125
2607,-0.165,-0.125
2608,-0.165,-0.125
2609,-0.165,-0.120
2610,-0.165,-0.115
2611,-0.160,-0.115
2612,-0.155,-0.115
2613,-0.155,-0.120
2614,-0.155,-0.125
2615,-0.150,-0.120
2616,-0.145,-0.115
2617,-0.140,-0.110
2618,-0.135,-0.105
2619,-0.135,-0.100
2620,-0.135,-0.095
2621,-0.135,-0.100
2622,-0.215,-0.080
2623,-0.310,-0.050
2624,-0.320,-0.030
2625,-0.315,-0.045
2626,-0.140,0.120
2627,0.075,0.245
2628,0.540,0.165
2629,1.000,0.085
2630,1.400,-0.035
2631,1.665,-0.165
2632,1.070,-0.330
2633,0.495,-0.490
2634,0.015,-0.640
2635,-0.375,-0.735
2636,-0.465,-0.630
2637,-0.520,-0.520
2638,-0.450,-0.385
2639,-0.380,-0.270
2640,-0.290,-0.190
2641,-0.220,-0.120
2642,-0.180,-0.080
2643,-0.155,-0.060
2644,-0.155,-0.075
2645,-0.155,-0.085
2646,-0.155,-0.080
2647,-0.160,-0.075
2648,-0.175,-0.075
2649,-0.185,-0.075
2650,-0.180,-0.075
2651,-0.175,-0.075
2652,-0.175,-0.080
2653,-0.175,-0.085
2654,-0.180,-0.085
2655,-0.185,-0.085
2656,-0.180,-0.080
2657,-0.175,-0.075
2658,-0.175,-0.070
2659,-0.175,-0.070
2660,-0.175,-0.080
2661,-0.170,-0.085
2662,-0.160,-0.080
2663,-0.155,-0.075
2664,-0.160,-0.070
2665,-0.165,-0.065
2666,-0.170,-0.065
2667,-0.165,-0.070
2668,-0.155,-0.075
2669,-0.165,-0.075
2670,-0.175,-0.075
2671,-0.160,-0.065
2672,-0.145,-0.055
2673,-0.140,-0.060
2674,-0.135,-0.065
2675,-0.130,-0.065
2676,-0.125,-0.065
2677,-0.115,-0.060
2678,-0.105,-0.055
2679,-0.105,-0.050
2680,-0.105,-0.045
2681,-0.100,-0.050
2682,-0.095,-0.055
2683,-0.090,-0.055
2684,-0.085,-0.055
2685,-0.085,-0.050
2686,-0.080,-0.045
2687,-0.065,-0.040
2688,-0.050,-0.035
2689,-0.040,-0.035
2690,-0.030,-0.035
2691,-0.015,-0.040
2692,0.005,-0.040
2693,0.025,-0.030
2694,0.035,-0.025
2695,0.040,-0.020
2696,0.050,-0.015
2697,0.060,-0.015
2698,0.075,-0.015
2699,0.090,-0.020
2700,0.100,-0.020
2701,0.110,-0.010
2702,0.140,-0.005
2703,0.170,0.000
2704,0.185,0.005
2705,0.200,0.010
2706,0.205,0.015
2707,0.205,0.015
2708,0.215,0.015
2709,0.235,0.025
2710,0.225,0.035
2711,0.215,0.045
2712,0.195,0.040
2713,0.175,0.035
2714,0.145,0.025
2715,0.115,0.015
2716,0.080,0.010
2717,0.055,0.005
2718,0.035,0.000
2719,0.010,-0.005
2720,-0.020,-0.015
2721,-0.050,-0.025
2722,-0.070,-0.040
2723,-0.085,-0.055
2724,-0.095,-0.065
2725,-0.110,-0.075
2726,-0.125,-0.075
2727,-0.135,-0.075
2728,-0.145,-0.080
2729,-0.155,-0.085
2730,-0.160,-0.100
2731,-0.165,-0.105
2732,-0.170,-0.100
2733,-0.175,-0.095
2734,-0.180,-0.095
2735,-0.185,-0.095
2736,-0.180,-0.095
2737,-0.175,-0.095
2738,-0.180,-0.100
2739,-0.185,-0.105
2740,-0.180,-0.105
2741,-0.175,-0.095
2742,-0.170,-0.080
2743,-0.165,-0.075
2744,-0.170,-0.080
2745,-0.180,-0.085
2746,-0.190,-0.090
2747,-0.190,-0.095
2748,-0.180,-0.095
2749,-0.175,-0.095
2750,-0.175,-0.095
2751,-0.180,-0.080
2752,-0.175,-0.075
2753,-0.175,-0.085
2754,-0.175,-0.095
2755,-0.175,-0.095
2756,-0.175,-0.095
2757,-0.180,-0.090
2758,-0.185,-0.085
2759,-0.180,-0.085
2760,-0.175,-0.085
2761,-0.180,-0.090
2762,-0.185,-0.095
2763,-0.190,-0.095
2764,-0.195,-0.095
2765,-0.205,-0.095
2766,-0.215,-0.095
2767,-0.205,-0.085
2768,-0.195,-0.075
2769,-0.200,-0.085
2770,-0.205,-0.095
2771,-0.190,-0.100
2772,-0.185,-0.105
2773,-0.180,-0.100
2774,-0.175,-0.095
2775,-0.180,-0.100
2776,-0.190,-0.105
2777,-0.205,-0.100
2778,-0.215,-0.095
2779,-0.210,-0.100
2780,-0.210,-0.105
2781,-0.220,-0.105
2782,-0.215,-0.105
2783,-0.200,-0.100
2784,-0.195,-0.095
2785,-0.195,-0.100
2786,-0.200,-0.105
2787,-0.210,-0.110
2788,-0.210,-0.110
2789,-0.200,-0.100
2790,-0.195,-0.095
2791,-0.200,-0.095
2792,-0.205,-0.100
2793,-0.205,-0.105
2794,-0.200,-0.110
2795,-0.195,-0.115
2796,-0.205,-0.115
2797,-0.215,-0.115
2798,-0.210,-0.105
2799,-0.205,-0.095
2800,-0.205,-0.095
2801,-0.205,-0.095
2802,-0.205,-0.100
2803,-0.205,-0.105
2804,-0.200,-0.105
2805,-0.195,-0.105
2806,-0.190,-0.105
2807,-0.185,-0.105
2808,-0.190,-0.105
2809,-0.195,-0.105
2810,-0.190,-0.110
2811,-0.185,-0.115
2812,-0.195,-0.110
2813,-0.205,-0.105
2814,-0.200,-0.100
2815,-0.195,-0.100
2816,-0.200,-0.110
2817,-0.190,-0.115
2818,-0.165,-0.120
2819,-0.145,-0.120
2820,-0.125,-0.100
2821,-0.105,-0.075
2822,-0.085,-0.035
2823,-0.075,-0.030
2824,-0.075,-0.040
2825,-0.090,-0.065
2826,-0.110,-0.090
2827,-0.120,-0.090
2828,-0.130,-0.080
2829,-0.145,-0.080
2830,-0.160,-0.090
2831,-0.170,-0.095
2832,-0.180,-0.100
2833,-0.190,-0.105
2834,-0.205,-0.115
2835,-0.200,-0.110
2836,-0.195,-0.105
2837,-0.190,-0.105
2838,-0.185,-0.105
2839,-0.180,-0.095
2840,-0.175,-0.085
2841,-0.170,-0.090
2842,-0.165,-0.095
2843,-0.180,-0.105
2844,-0.195,-0.115
2845,-0.210,-0.120
2846,-0.225,-0.125
2847,-0.210,-0.115
2848,-0.195,-0.105
2849,-0.200,-0.110
2850,-0.205,-0.115
2851,-0.195,-0.115
2852,-0.185,-0.115
2853,-0.175,-0.105
2854,-0.165,-0.095
2855,-0.170,-0.100
2856,-0.175,-0.105
2857,-0.175,-0.105
2858,-0.175,-0.105
2859,-0.170,-0.100
2860,-0.225,-0.080
2861,-0.320,-0.055
2862,-0.355,-0.030
2863,-0.355,-0.005
2864,-0.225,0.085
2865,-0.040,0.195
2866,0.425,0.190
2867,0.980,0.145
2868,1.375,0.040
2869,1.730,-0.085
2870,1.100,-0.300
2871,0.300,-0.530
2872,-0.100,-0.605
2873,-0.465,-0.660
2874,-0.500,-0.545
2875,-0.485,-0.665
2876,-0.430,-0.310
2877,-0.335,-0.205
2878,-0.260,-0.150
2879,-0.195,-0.095
2880,-0.175,-0.075
2881,-0.155,-0.055
2882,-0.160,-0.060
2883,-0.165,-0.065
2884,-0.180,-0.070
2885,-0.195,-0.075
2886,-0.200,-0.080
2887,-0.205,-0.085
2888,-0.205,-0.080
2889,-0.205,-0.075
2890,-0.195,-0.070
2891,-0.185,-0.065
2892,-0.185,-0.065
2893,-0.185,-0.065
2894,-0.180,-0.075
2895,-0.175,-0.085
2896,-0.170,-0.070
2897,-0.165,-0.065
2898,-0.165,-0.060
2899,-0.165,-0.055
2900,-0.165,-0.060
2901,-0.165,-0.065
2902,-0.160,-0.070
2903,-0.155,-0.075
2904,-0.160,-0.070
2905,-0.160,-0.065
2906,-0.150,-0.060
2907,-0.140,-0.055
2908,-0.130,-0.055
2909,-0.125,-0.055
2910,-0.130,-0.060
2911,-0.125,-0.060
2912,-0.110,-0.050
2913,-0.105,-0.045
2914,-0.100,-0.045
2915,-0.095,-0.045
2916,-0.095,-0.045
2917,-0.085,-0.045
2918,-0.075,-0.045
2919,-0.070,-0.040
2920,-0.065,-0.035
2921,-0.055,-0.030
2922,-0.045,-0.025
2923,-0.040,-0.030
2924,-0.035,-0.035
2925,-0.025,-0.035
2926,-0.015,-0.035
2927,0.005,-0.030
2928,0.025,-0.025
2929,0.035,-0.025
2930,0.045,-0.025
2931,0.050,-0.020
2932,0.060,-0.015
2933,0.085,-0.020
2934,0.105,-0.025
2935,0.115,-0.015
2936,0.130,-0.005
2937,0.150,0.000
2938,0.170,0.005
2939,0.185,0.000
2940,0.200,-0.005
2941,0.210,-0.005
2942,0.220,0.000
2943,0.235,0.010
2944,0.245,0.020
2945,0.240,0.030
2946,0.230,0.035
2947,0.220,0.035
2948,0.205,0.030
2949,0.190,0.020
2950,0.160,0.015
2951,0.125,0.015
2952,0.100,0.015
2953,0.080,0.015
2954,0.050,0.005
2955,0.020,-0.010
2956,-0.005,-0.020
2957,-0.030,-0.030
2958,-0.040,-0.035
2959,-0.055,-0.045
2960,-0.075,-0.055
2961,-0.095,-0.065
2962,-0.105,-0.065
2963,-0.115,-0.065
2964,-0.125,-0.080
2965,-0.135,-0.095
2966,-0.150,-0.090
2967,-0.165,-0.085
2968,-0.155,-0.080
2969,-0.145,-0.075
2970,-0.145,-0.080
2971,-0.145,-0.085
2972,-0.150,-0.090
2973,-0.155,-0.095
2974,-0.145,-0.090
2975,-0.135,-0.085
2976,-0.135,-0.080
2977,-0.135,-0.075
2978,-0.140,-0.075
2979,-0.145,-0.075
2980,-0.150,-0.080
2981,-0.155,-0.085
2982,-0.155,-0.080
2983,-0.155,-0.075
2984,-0.150,-0.075
2985,-0.145,-0.075
2986,-0.145,-0.075
2987,-0.145,-0.075
2988,-0.145,-0.080
2989,-0.145,-0.085
2990,-0.140,-0.085
2991,-0.135,-0.085
2992,-0.140,-0.080
2993,-0.145,-0.075
2994,-0.145,-0.075
2995,-0.145,-0.075
2996,-0.145,-0.075
2997,-0.145,-0.080
2998,-0.150,-0.090
2999,-0.155,-0.090
3000,-0.155,-0.095
3001,-0.145,-0.080
3002,-0.145,-0.085
3003,-0.145,-0.095
3004,-0.145,-0.105
3005,-0.140,-0.100
3006,-0.135,-0.095
3007,-0.135,-0.085
3008,-0.135,-0.075
3009,-0.140,-0.080
3010,-0.145,-0.085
3011,-0.145,-0.095
3012,-0.145,-0.105
3013,-0.155,-0.100
3014,-0.165,-0.095
3015,-0.155,-0.090
3016,-0.145,-0.085
3017,-0.145,-0.090
3018,-0.145,-0.095
3019,-0.150,-0.100
3020,-0.155,-0.105
3021,-0.140,-0.105
3022,-0.135,-0.100
3023,-0.135,-0.090
3024,-0.135,-0.085
3025,-0.130,-0.085
3026,-0.130,-0.090
3027,-0.140,-0.105
3028,-0.145,-0.115
3029,-0.150,-0.110
3030,-0.145,-0.105
3031,-0.125,-0.100
3032,-0.090,-0.070
3033,-0.055,-0.035
3034,-0.030,-0.025
3035,-0.010,-0.030
3036,-0.025,-0.045
3037,-0.050,-0.060
3038,-0.060,-0.065
3039,-0.070,-0.070
3040,-0.085,-0.075
3041,-0.100,-0.080
3042,-0.115,-0.100
3043,-0.125,-0.115
3044,-0.145,-0.115
3045,-0.165,-0.115
3046,-0.155,-0.110
3047,-0.145,-0.105
3048,-0.145,-0.110
3049,-0.145,-0.115
3050,-0.145,-0.120
3051,-0.145,-0.125
3052,-0.140,-0.120
3053,-0.135,-0.115
3054,-0.140,-0.110
3055,-0.145,-0.105
3056,-0.145,-0.110
3057,-0.145,-0.115
3058,-0.145,-0.115
3059,-0.145,-0.115
3060,-0.155,-0.110
3061,-0.160,-0.105
3062,-0.145,-0.105
3063,-0.135,-0.105
3064,-0.135,-0.105
3065,-0.135,-0.105
3066,-0.130,-0.110
3067,-0.125,-0.115
3068,-0.120,-0.110
3069,-0.115,-0.105
3070,-0.110,-0.100
3071,-0.110,-0.095
3072,-0.120,-0.095
3073,-0.185,-0.075
3074,-0.275,-0.045
3075,-0.295,-0.015
3076,-0.300,0.010
3077,-0.155,0.115
3078,0.030,0.235
3079,0.440,0.210
3080,0.880,0.150
3081,1.330,0.015
3082,1.780,-0.130
3083,1.325,-0.275
3084,0.840,-0.425
3085,0.280,-0.600
3086,-0.250,-0.760
3087,-0.390,-0.665
3088,-0.510,-0.565
3089,-0.450,-0.440
3090,-0.385,-0.325
3091,-0.305,-0.235
3092,-0.225,-0.155
3093,-0.155,-0.100
3094,-0.105,-0.055
3095,-0.110,-0.050
3096,-0.115,-0.050
3097,-0.125,-0.070
3098,-0.135,-0.085
3099,-0.135,-0.085
3100,-0.135,-0.085
3101,-0.135,-0.080
3102,-0.135,-0.075
3103,-0.130,-0.070
3104,-0.125,-0.065
3105,-0.130,-0.080
3106,-0.135,-0.085
3107,-0.130,-0.080
3108,-0.125,-0.075
3109,-0.125,-0.070
3110,-0.125,-0.065
3111,-0.120,-0.065
3112,-0.115,-0.065
3113,-0.120,-0.070
3114,-0.120,-0.075
3115,-0.110,-0.070
3116,-0.105,-0.065
3117,-0.100,-0.060
3118,-0.095,-0.055
3119,-0.095,-0.055
3120,-0.095,-0.055
3121,-0.095,-0.060
3122,-0.090,-0.065
3123,-0.080,-0.065
3124,-0.075,-0.060
3125,-0.075,-0.065
3126,-0.070,-0.050
3127,-0.065,-0.055
3128,-0.065,-0.060
3129,-0.065,-0.065
3130,-0.060,-0.060
3131,-0.055,-0.055
3132,-0.040,-0.050
3133,-0.025,-0.045
3134,-0.020,-0.040
3135,-0.015,-0.035
3136,-0.015,-0.040
3137,-0.015,-0.045
3138,0.000,-0.040
3139,0.015,-0.035
3140,0.020,-0.030
3141,0.030,-0.025
3142,0.045,-0.020
3143,0.055,-0.015
3144,0.060,-0.020
3145,0.070,-0.025
3146,0.095,-0.020
3147,0.115,-0.015
3148,0.135,-0.010
3149,0.150,-0.005
3150,0.160,-0.005
3151,0.170,-0.005
3152,0.180,-0.005
3153,0.195,-0.005
3154,0.215,0.000
3155,0.235,0.010
3156,0.250,0.020
3157,0.260,0.025
3158,0.270,0.025
3159,0.275,0.025
3160,0.280,0.025
3161,0.280,0.025
3162,0.270,0.025
3163,0.255,0.025
3164,0.240,0.030
3165,0.205,0.035
3166,0.170,0.030
3167,0.140,0.010
3168,0.115,-0.005
3169,0.085,-0.015
3170,0.055,-0.025
3171,0.035,-0.030
3172,0.015,-0.035
3173,-0.005,-0.045
3174,-0.025,-0.055
3175,-0.040,-0.075
3176,-0.055,-0.095
3177,-0.060,-0.095
3178,-0.065,-0.095
3179,-0.070,-0.095
3180,-0.075,-0.095
3181,-0.085,-0.095
3182,-0.095,-0.095
3183,-0.095,-0.105
3184,-0.095,-0.115
3185,-0.105,-0.110
3186,-0.115,-0.105
3187,-0.105,-0.105
3188,-0.095,-0.105
3189,-0.095,-0.105
3190,-0.095,-0.105
3191,-0.100,-0.105
3192,-0.100,-0.105
3193,-0.090,-0.105
3194,-0.085,-0.105
3195,-0.085,-0.100
3196,-0.085,-0.095
3197,-0.090,-0.095
3198,-0.095,-0.095
3199,-0.095,-0.100
3200,-0.100,-0.105
3201,-0.110,-0.105
3202,-0.115,-0.100
3203,-0.110,-0.090
3204,-0.105,-0.085
3205,-0.100,-0.090
3206,-0.095,-0.100
3207,-0.100,-0.110
3208,-0.100,-0.115
3209,-0.085,-0.105
3210,-0.090,-0.095
3211,-0.095,-0.085
3212,-0.100,-0.090
3213,-0.105,-0.095
3214,-0.105,-0.105
3215,-0.105,-0.115
3216,-0.110,-0.110
3217,-0.115,-0.105
3218,-0.110,-0.100
3219,-0.105,-0.095
3220,-0.105,-0.100
3221,-0.105,-0.105
3222,-0.115,-0.110
3223,-0.125,-0.115
3224,-0.120,-0.120
3225,-0.115,-0.125
3226,-0.110,-0.115
3227,-0.105,-0.105
3228,-0.110,-0.115
3229,-0.115,-0.125
3230,-0.120,-0.125
3231,-0.125,-0.125
3232,-0.125,-0.125
3233,-0.125,-0.125
3234,-0.125,-0.120
3235,-0.125,-0.115
3236,-0.120,-0.115
3237,-0.115,-0.115
3238,-0.120,-0.120
3239,-0.125,-0.125
3240,-0.125,-0.125
3241,-0.125,-0.125
3242,-0.120,-0.120
3243,-0.115,-0.115
3244,-0.120,-0.115
3245,-0.125,-0.120
3246,-0.130,-0.130
3247,-0.135,-0.135
3248,-0.130,-0.130
3249,-0.125,-0.125
3250,-0.125,-0.125
3251,-0.125,-0.120
3252,-0.125,-0.125
3253,-0.130,-0.125
3254,-0.135,-0.125
3255,-0.125,-0.125
3256,-0.115,-0.125
3257,-0.110,-0.120
3258,-0.105,-0.115
3259,-0.110,-0.120
3260,-0.115,-0.125
3261,-0.115,-0.135
3262,-0.115,-0.145
3263,-0.100,-0.140
3264,-0.075,-0.120
3265,-0.045,-0.075
3266,-0.025,-0.045
3267,-0.015,-0.045
3268,-0.015,-0.060
3269,-0.045,-0.095
3270,-0.065,-0.115
3271,-0.065,-0.110
3272,-0.075,-0.110
3273,-0.095,-0.120
3274,-0.105,-0.125
3275,-0.110,-0.125
3276,-0.115,-0.125
3277,-0.120,-0.125
3278,-0.135,-0.130
3279,-0.150,-0.140
3280,-0.155,-0.145
3281,-0.150,-0.140
3282,-0.145,-0.135
3283,-0.140,-0.130
3284,-0.135,-0.135
3285,-0.140,-0.150
3286,-0.145,-0.155
3287,-0.140,-0.150
3288,-0.135,-0.140
3289,-0.135,-0.130
3290,-0.135,-0.125
3291,-0.140,-0.125
3292,-0.145,-0.130
3293,-0.145,-0.135
3294,-0.150,-0.135
3295,-0.155,-0.135
3296,-0.140,-0.125
3297,-0.125,-0.115
3298,-0.125,-0.115
3299,-0.125,-0.115
3300,-0.110,-0.115
3301,-0.105,-0.115
3302,-0.165,-0.095
3303,-0.230,-0.070
3304,-0.295,-0.045
3305,-0.315,0.000
3306,-0.215,0.080
3307,-0.015,0.140
3308,0.360,0.165
3309,0.780,0.130
3310,1.275,-0.015
3311,1.485,-0.150
3312,1.340,-0.280
3313,0.930,-0.450
3314,0.255,-0.665
3315,-0.185,-0.745
3316,-0.435,-0.705
3317,-0.505,-0.595
3318,-0.455,-0.435
3319,-0.380,-0.315
3320,-0.285,-0.220
3321,-0.220,-0.150
3322,-0.160,-0.100
3323,-0.145,-0.085
3324,-0.140,-0.085
3325,-0.145,-0.085
3326,-0.160,-0.090
3327,-0.165,-0.095
3328,-0.165,-0.090
3329,-0.165,-0.085
3330,-0.160,-0.085
3331,-0.155,-0.090
3332,-0.155,-0.100
3333,-0.155,-0.105
3334,-0.145,-0.095
3335,-0.145,-0.085
3336,-0.145,-0.075
3337,-0.145,-0.080
3338,-0.145,-0.085
3339,-0.150,-0.090
3340,-0.155,-0.095
3341,-0.160,-0.090
3342,-0.165,-0.085
3343,-0.155,-0.080
3344,-0.145,-0.075
3345,-0.140,-0.075
3346,-0.135,-0.075
3347,-0.135,-0.080
3348,-0.135,-0.085
3349,-0.125,-0.085
3350,-0.115,-0.085
3351,-0.115,-0.080
3352,-0.115,-0.075
3353,-0.115,-0.070
3354,-0.115,-0.065
3355,-0.110,-0.080
3356,-0.105,-0.085
3357,-0.110,-0.080
3358,-0.110,-0.075
3359,-0.095,-0.070
3360,-0.085,-0.065
3361,-0.080,-0.065
3362,-0.075,-0.065
3363,-0.070,-0.065
3364,-0.060,-0.065
3365,-0.050,-0.065
3366,-0.040,-0.060
3367,-0.030,-0.050
3368,-0.025,-0.045
3369,-0.020,-0.045
3370,-0.015,-0.045
3371,-0.010,-0.045
3372,0.010,-0.045
3373,0.030,-0.045
3374,0.045,-0.040
3375,0.035,-0.045
3376,0.075,-0.025
3377,0.085,-0.025
3378,0.095,-0.025
3379,0.105,-0.025
3380,0.125,-0.020
3381,0.145,-0.015
3382,0.165,0.000
3383,0.185,0.015
3384,0.195,0.010
3385,0.205,0.005
3386,0.210,0.005
3387,0.215,0.005
3388,0.225,0.015
3389,0.235,0.025
3390,0.235,0.035
3391,0.235,0.045
3392,0.225,0.040
3393,0.205,0.035
3394,0.180,0.030
3395,0.155,0.025
3396,0.130,0.010
3397,0.105,0.005
3398,0.085,0.000
3399,0.055,-0.010
3400,0.020,-0.020
3401,-0.010,-0.030
3402,-0.035,-0.045
3403,-0.050,-0.060
3404,-0.060,-0.070
3405,-0.075,-0.075
3406,-0.090,-0.075
3407,-0.100,-0.080
3408,-0.110,-0.090
3409,-0.115,-0.095
3410,-0.120,-0.100
3411,-0.125,-0.105
3412,-0.125,-0.105
3413,-0.125,-0.105
3414,-0.120,-0.100
3415,-0.120,-0.095
3416,-0.130,-0.095
3417,-0.135,-0.105
3418,-0.135,-0.115
3419,-0.140,-0.110
3420,-0.145,-0.105
3421,-0.135,-0.100
3422,-0.125,-0.095
3423,-0.125,-0.090
3424,-0.125,-0.085
3425,-0.125,-0.095
3426,-0.125,-0.105
3427,-0.120,-0.100
3428,-0.115,-0.095
3429,-0.115,-0.085
3430,-0.115,-0.075
3431,-0.125,-0.080
3432,-0.135,-0.085
3433,-0.135,-0.090
3434,-0.135,-0.095
3435,-0.135,-0.090
3436,-0.135,-0.085
3437,-0.130,-0.085
3438,-0.125,-0.085
3439,-0.130,-0.085
3440,-0.135,-0.085
3441,-0.140,-0.090
3442,-0.145,-0.095
3443,-0.140,-0.095
3444,-0.135,-0.095
3445,-0.135,-0.090
3446,-0.135,-0.085
3447,-0.140,-0.090
3448,-0.145,-0.095
3449,-0.150,-0.100
3450,-0.155,-0.105
3451,-0.150,-0.105
3452,-0.145,-0.105
3453,-0.145,-0.100
3454,-0.145,-0.095
3455,-0.145,-0.095
3456,-0.145,-0.095
3457,-0.145,-0.100
3458,-0.145,-0.105
3459,-0.145,-0.115
3460,-0.145,-0.110
3461,-0.145,-0.105
3462,-0.145,-0.105
3463,-0.145,-0.105
3464,-0.150,-0.110
3465,-0.155,-0.115
3466,-0.155,-0.115
3467,-0.155,-0.115
3468,-0.155,-0.110
3469,-0.155,-0.105
3470,-0.155,-0.105
3471,-0.155,-0.105
3472,-0.150,-0.110
3473,-0.145,-0.115
3474,-0.145,-0.115
3475,-0.145,-0.115
3476,-0.140,-0.110
3477,-0.135,-0.105
3478,-0.145,-0.105
3479,-0.155,-0.105
3480,-0.155,-0.120
3481,-0.155,-0.125
3482,-0.155,-0.120
3483,-0.150,-0.110
3484,-0.140,-0.100
3485,-0.135,-0.095
3486,-0.140,-0.100
3487,-0.145,-0.110
3488,-0.145,-0.120
3489,-0.145,-0.120
3490,-0.140,-0.110
3491,-0.135,-0.105
3492,-0.135,-0.100
3493,-0.135,-0.095
3494,-0.135,-0.100
3495,-0.135,-0.110
3496,-0.135,-0.120
3497,-0.145,-0.125
3498,-0.160,-0.120
3499,-0.155,-0.110
3500,-0.165,-0.115
3501,-0.135,-0.100
3502,-0.135,-0.105
3503,-0.135,-0.110
3504,-0.135,-0.115
3505,-0.125,-0.115
3506,-0.115,-0.115
3507,-0.120,-0.105
3508,-0.125,-0.095
3509,-0.130,-0.100
3510,-0.135,-0.105
3511,-0.135,-0.110
3512,-0.135,-0.115
3513,-0.140,-0.110
3514,-0.140,-0.105
3515,-0.125,-0.105
3516,-0.115,-0.105
3517,-0.115,-0.100
3518,-0.115,-0.095
3519,-0.120,-0.105
3520,-0.125,-0.115
3521,-0.110,-0.110
3522,-0.105,-0.105
3523,-0.105,-0.100
3524,-0.105,-0.095
3525,-0.110,-0.095
3526,-0.115,-0.100
3527,-0.115,-0.110
3528,-0.115,-0.115
3529,-0.110,-0.115
3530,-0.085,-0.100
3531,-0.055,-0.075
3532,-0.025,-0.050
3533,0.005,-0.025
3534,0.000,-0.030
3535,-0.020,-0.050
3536,-0.030,-0.065
3537,-0.040,-0.080
3538,-0.045,-0.080
3539,-0.050,-0.070
3540,-0.070,-0.075
3541,-0.090,-0.090
3542,-0.095,-0.105
3543,-0.095,-0.115
3544,-0.115,-0.110
3545,-0.135,-0.105
3546,-0.130,-0.100
3547,-0.125,-0.095
3548,-0.125,-0.100
3549,-0.125,-0.105
3550,-0.125,-0.105
3551,-0.125,-0.105
3552,-0.120,-0.105
3553,-0.115,-0.105
3554,-0.115,-0.100
3555,-0.115,-0.095
3556,-0.115,-0.095
3557,-0.115,-0.095
3558,-0.115,-0.105
3559,-0.115,-0.115
3560,-0.120,-0.105
3561,-0.120,-0.095
3562,-0.105,-0.090
3563,-0.095,-0.085
3564,-0.095,-0.085
3565,-0.095,-0.085
3566,-0.090,-0.085
3567,-0.120,-0.070
3568,-0.190,-0.045
3569,-0.235,-0.020
3570,-0.270,0.005
3571,-0.195,0.085
3572,-0.065,0.185
3573,0.285,0.200
3574,0.710,0.175
3575,1.160,0.065
3576,1.615,-0.060
3577,1.365,-0.200
3578,0.965,-0.345
3579,0.410,-0.535
3580,-0.165,-0.735
3581,-0.345,-0.685
3582,-0.490,-0.610
3583,-0.430,-0.465
3584,-0.355,-0.315
3585,-0.270,-0.220
3586,-0.185,-0.125
3587,-0.140,-0.080
3588,-0.095,-0.035
3589,-0.090,-0.045
3590,-0.085,-0.055
3591,-0.105,-0.055
3592,-0.125,-0.055
3593,-0.125,-0.055
3594,-0.125,-0.055
3595,-0.120,-0.055
3596,-0.115,-0.055
3597,-0.115,-0.060
3598,-0.115,-0.065
3599,-0.115,-0.060
3600,-0.115,-0.055
3601,-0.110,-0.055
3602,-0.105,-0.055
3603,-0.105,-0.055
3604,-0.105,-0.055
3605,-0.100,-0.060
3606,-0.095,-0.060
3607,-0.100,-0.050
3608,-0.105,-0.045
3609,-0.100,-0.040
3610,-0.095,-0.040
3611,-0.095,-0.050
3612,-0.095,-0.055
3613,-0.090,-0.050
3614,-0.080,-0.045
3615,-0.070,-0.040
3616,-0.065,-0.035
3617,-0.065,-0.035
3618,-0.065,-0.035
3619,-0.065,-0.040
3620,-0.060,-0.045
3621,-0.050,-0.040
3622,-0.045,-0.035
3623,-0.045,-0.035
3624,-0.045,-0.030
3625,-0.045,-0.035
3626,-0.025,-0.020
3627,-0.015,-0.025
3628,-0.015,-0.030
3629,-0.015,-0.035
3630,0.000,-0.025
3631,0.015,-0.015
3632,0.020,-0.010
3633,0.025,-0.005
3634,0.030,-0.010
3635,0.035,-0.015
3636,0.045,-0.015
3637,0.055,-0.015
3638,0.060,-0.015
3639,0.070,-0.015
3640,0.090,-0.005
3641,0.110,0.005
3642,0.125,0.010
3643,0.135,0.015
3644,0.145,0.010
3645,0.165,0.005
3646,0.190,0.010
3647,0.210,0.020
3648,0.220,0.030
3649,0.230,0.035
3650,0.240,0.040
3651,0.250,0.040
3652,0.260,0.030
3653,0.265,0.030
3654,0.270,0.040
3655,0.275,0.045
3656,0.280,0.050
3657,0.280,0.055
3658,0.270,0.060
3659,0.245,0.065
3660,0.220,0.060
3661,0.200,0.050
3662,0.180,0.040
3663,0.155,0.035
3664,0.130,0.030
3665,0.095,0.020
3666,0.060,0.010
3667,0.030,-0.010
3668,0.005,-0.025
3669,-0.015,-0.035
3670,-0.035,-0.045
3671,-0.045,-0.045
3672,-0.055,-0.045
3673,-0.060,-0.050
3674,-0.065,-0.055
3675,-0.070,-0.065
3676,-0.075,-0.075
3677,-0.070,-0.075
3678,-0.065,-0.075
3679,-0.075,-0.065
3680,-0.085,-0.055
3681,-0.090,-0.060
3682,-0.095,-0.065
3683,-0.090,-0.070
3684,-0.085,-0.075
3685,-0.090,-0.075
3686,-0.095,-0.075
3687,-0.090,-0.070
3688,-0.085,-0.065
3689,-0.085,-0.065
3690,-0.085,-0.065
3691,-0.085,-0.070
3692,-0.080,-0.070
3693,-0.070,-0.060
3694,-0.065,-0.055
3695,-0.070,-0.055
3696,-0.075,-0.055
3697,-0.080,-0.055
3698,-0.085,-0.055
3699,-0.085,-0.060
3700,-0.085,-0.065
3701,-0.090,-0.060
3702,-0.095,-0.055
3703,-0.090,-0.055
3704,-0.085,-0.055
3705,-0.085,-0.060
3706,-0.090,-0.065
3707,-0.100,-0.065
3708,-0.100,-0.065
3709,-0.085,-0.065
3710,-0.090,-0.065
3711,-0.095,-0.065
3712,-0.100,-0.070
3713,-0.105,-0.075
3714,-0.105,-0.080
3715,-0.105,-0.085
3716,-0.105,-0.075
3717,-0.105,-0.065
3718,-0.105,-0.070
3719,-0.105,-0.075
3720,-0.105,-0.075
3721,-0.105,-0.075
3722,-0.110,-0.080
3723,-0.115,-0.085
3724,-0.105,-0.085
3725,-0.095,-0.085
3726,-0.100,-0.080
3727,-0.105,-0.075
3728,-0.105,-0.080
3729,-0.105,-0.085
3730,-0.110,-0.090
3731,-0.115,-0.090
3732,-0.115,-0.080
3733,-0.115,-0.075
3734,-0.115,-0.080
3735,-0.115,-0.085
3736,-0.115,-0.085
3737,-0.115,-0.085
3738,-0.110,-0.085
3739,-0.105,-0.085
3740,-0.105,-0.085
3741,-0.105,-0.085
3742,-0.110,-0.080
3743,-0.115,-0.075
3744,-0.115,-0.080
3745,-0.115,-0.085
3746,-0.115,-0.090
3747,-0.120,-0.095
3748,-0.130,-0.095
3749,-0.125,-0.095
3750,-0.135,-0.095
3751,-0.110,-0.085
3752,-0.115,-0.085
3753,-0.120,-0.095
3754,-0.125,-0.105
3755,-0.120,-0.100
3756,-0.115,-0.095
3757,-0.115,-0.090
3758,-0.115,-0.085
3759,-0.115,-0.090
3760,-0.115,-0.095
3761,-0.115,-0.100
3762,-0.115,-0.105
3763,-0.125,-0.100
3764,-0.130,-0.095
3765,-0.115,-0.095
3766,-0.105,-0.095
3767,-0.110,-0.085
3768,-0.115,-0.075
3769,-0.120,-0.085
3770,-0.120,-0.095
3771,-0.105,-0.095
3772,-0.100,-0.095
3773,-0.110,-0.090
3774,-0.115,-0.085
3775,-0.115,-0.085
3776,-0.115,-0.090
3777,-0.120,-0.100
3778,-0.125,-0.105
3779,-0.120,-0.100
3780,-0.115,-0.095
3781,-0.110,-0.090
3782,-0.105,-0.085
3783,-0.100,-0.080
3784,-0.095,-0.080
3785,-0.100,-0.090
3786,-0.105,-0.095
3787,-0.110,-0.100
3788,-0.105,-0.105
3789,-0.090,-0.100
3790,-0.080,-0.095
3791,-0.070,-0.095
3792,-0.035,-0.065
3793,-0.005,-0.035
3794,0.015,-0.030
3795,0.035,-0.025
3796,0.000,-0.045
3797,-0.035,-0.065
3798,-0.045,-0.065
3799,-0.055,-0.065
3800,-0.075,-0.075
3801,-0.095,-0.085
3802,-0.100,-0.090
3803,-0.105,-0.095
3804,-0.105,-0.090
3805,-0.105,-0.085
3806,-0.115,-0.085
3807,-0.125,-0.085
3808,-0.130,-0.095
3809,-0.130,-0.105
3810,-0.115,-0.105
3811,-0.105,-0.105
3812,-0.115,-0.100
3813,-0.125,-0.095
3814,-0.120,-0.095
3815,-0.115,-0.095
3816,-0.115,-0.100
3817,-0.115,-0.105
3818,-0.115,-0.105
3819,-0.115,-0.105
3820,-0.110,-0.100
3821,-0.105,-0.095
3822,-0.110,-0.090
3823,-0.110,-0.085
3824,-0.100,-0.090
3825,-0.080,-0.095
3826,-0.060,-0.095
3827,-0.110,-0.080
3828,-0.175,-0.060
3829,-0.260,-0.040
3830,-0.345,-0.020
3831,-0.275,0.030
3832,-0.190,0.080
3833,0.165,0.165
3834,0.530,0.255
3835,1.105,0.125
3836,1.635,0.000
3837,1.395,-0.135
3838,1.120,-0.280
3839,0.485,-0.515
3840,-0.090,-0.710
3841,-0.325,-0.670
3842,-0.505,-0.610
3843,-0.445,-0.465
3844,-0.375,-0.335
3845,-0.295,-0.240
3846,-0.220,-0.160
3847,-0.160,-0.105
3848,-0.115,-0.065
3849,-0.105,-0.060
3850,-0.095,-0.055
3851,-0.105,-0.055
3852,-0.120,-0.055
3853,-0.135,-0.060
3854,-0.145,-0.065
3855,-0.145,-0.070
3856,-0.145,-0.075
3857,-0.150,-0.070
3858,-0.150,-0.065
3859,-0.135,-0.060
3860,-0.125,-0.055
3861,-0.125,-0.060
3862,-0.125,-0.065
3863,-0.130,-0.065
3864,-0.130,-0.065
3865,-0.120,-0.065
3866,-0.120,-0.065
3867,-0.130,-0.060
3868,-0.130,-0.055
3869,-0.120,-0.055
3870,-0.115,-0.060
3871,-0.115,-0.070
3872,-0.120,-0.070
3873,-0.130,-0.060
3874,-0.125,-0.055
3875,-0.135,-0.055
3876,-0.100,-0.045
3877,-0.095,-0.045
3878,-0.095,-0.055
3879,-0.095,-0.065
3880,-0.090,-0.060
3881,-0.085,-0.055
3882,-0.080,-0.050
3883,-0.075,-0.045
3884,-0.065,-0.045
3885,-0.055,-0.045
3886,-0.055,-0.050
3887,-0.055,-0.055
3888,-0.060,-0.045
3889,-0.060,-0.035
3890,-0.035,-0.035
3891,-0.015,-0.035
3892,-0.010,-0.030
3893,-0.005,-0.025
3894,0.000,-0.030
3895,0.015,-0.035
3896,0.040,-0.030
3897,0.060,-0.025
3898,0.070,-0.020
3899,0.075,-0.015
3900,0.075,-0.015
3901,0.085,-0.015
3902,0.105,-0.015
3903,0.115,-0.015
3904,0.120,-0.015
3905,0.140,-0.010
3906,0.165,0.000
3907,0.185,0.005
3908,0.200,0.010
3909,0.215,0.015
3910,0.230,0.010
3911,0.245,0.005
3912,0.260,0.010
3913,0.265,0.025
3914,0.270,0.040
3915,0.270,0.045
3916,0.260,0.045
3917,0.245,0.035
3918,0.235,0.025
3919,0.210,0.030
3920,0.185,0.035
3921,0.165,0.030
3922,0.145,0.025
3923,0.120,0.020
3924,0.090,0.015
3925,0.055,0.000
3926,0.025,-0.015
3927,0.005,-0.025
3928,-0.015,-0.035
3929,-0.030,-0.040
3930,-0.045,-0.045
3931,-0.065,-0.050
3932,-0.080,-0.055
3933,-0.100,-0.065
3934,-0.115,-0.075
3935,-0.110,-0.085
3936,-0.110,-0.095
3937,-0.125,-0.090
3938,-0.130,-0.085
3939,-0.120,-0.080
3940,-0.115,-0.075
3941,-0.115,-0.080
3942,-0.120,-0.085
3943,-0.130,-0.085
3944,-0.135,-0.085
3945,-0.130,-0.090
3946,-0.125,-0.095
3947,-0.130,-0.090
3948,-0.135,-0.085
3949,-0.135,-0.085
3950,-0.135,-0.085
3951,-0.130,-0.085
3952,-0.130,-0.085
3953,-0.140,-0.085
3954,-0.145,-0.085
3955,-0.140,-0.080
3956,-0.135,-0.075
3957,-0.135,-0.080
3958,-0.135,-0.085
3959,-0.125,-0.095
3960,-0.125,-0.090
3961,-0.125,-0.085
3962,-0.130,-0.080
3963,-0.135,-0.075
3964,-0.140,-0.080
3965,-0.145,-0.085
3966,-0.145,-0.085
3967,-0.145,-0.085
3968,-0.155,-0.090
3969,-0.165,-0.095
3970,-0.155,-0.085
3971,-0.145,-0.075
3972,-0.145,-0.080
3973,-0.145,-0.085
3974,-0.145,-0.095
3975,-0.145,-0.105
3976,-0.145,-0.100
3977,-0.145,-0.095
3978,-0.150,-0.095
3979,-0.155,-0.095
3980,-0.155,-0.095
3981,-0.155,-0.095
3982,-0.150,-0.100
3983,-0.145,-0.105
3984,-0.150,-0.105
3985,-0.155,-0.105
3986,-0.150,-0.105
3987,-0.145,-0.105
3988,-0.145,-0.105
3989,-0.145,-0.105
3990,-0.150,-0.110
3991,-0.155,-0.115
3992,-0.160,-0.115
3993,-0.165,-0.115
3994,-0.160,-0.110
3995,-0.155,-0.105
3996,-0.160,-0.105
3997,-0.165,-0.105
3998,-0.160,-0.110
3999,-0.155,-0.115
4000,-0.155,-0.115
4001,-0.145,-0.105
4002,-0.145,-0.105
4003,-0.150,-0.115
4004,-0.155,-0.125
4005,-0.140,-0.125
4006,-0.125,-0.125
4007,-0.100,-0.115
4008,-0.075,-0.100
4009,-0.065,-0.070
4010,-0.055,-0.045
4011,-0.050,-0.050
4012,-0.050,-0.060
4013,-0.080,-0.085
4014,-0.105,-0.105
4015,-0.105,-0.095
4016,-0.110,-0.090
4017,-0.130,-0.105
4018,-0.145,-0.115
4019,-0.150,-0.120
4020,-0.155,-0.125
4021,-0.155,-0.130
4022,-0.155,-0.130
4023,-0.155,-0.120
4024,-0.155,-0.115
4025,-0.160,-0.120
4026,-0.165,-0.125
4027,-0.165,-0.130
4028,-0.165,-0.130
4029,-0.165,-0.120
4030,-0.165,-0.115
4031,-0.170,-0.115
4032,-0.175,-0.115
4033,-0.175,-0.120
4034,-0.175,-0.125
4035,-0.170,-0.130
4036,-0.160,-0.130
4037,-0.150,-0.120
4038,-0.145,-0.115
4039,-0.145,-0.115
4040,-0.145,-0.115
4041,-0.145,-0.115
4042,-0.135,-0.120
4043,-0.125,-0.125
4044,-0.120,-0.115
4045,-0.120,-0.105
4046,-0.185,-0.095
4047,-0.250,-0.085
4048,-0.325,-0.065
4049,-0.370,-0.035
4050,-0.260,0.045
4051,-0.090,0.120
4052,0.320,0.190
4053,0.750,0.220
4054,1.230,0.105
4055,1.550,-0.010
4056,1.495,-0.135
4057,1.190,-0.295
4058,0.450,-0.525
4059,-0.100,-0.665
4060,-0.365,-0.655
4061,-0.510,-0.600
4062,-0.490,-0.490
4063,-0.435,-0.390
4064,-0.355,-0.300
4065,-0.280,-0.225
4066,-0.215,-0.160
4067,-0.165,-0.115
4068,-0.130,-0.080
4069,-0.120,-0.065
4070,-0.130,-0.070
4071,-0.135,-0.075
4072,-0.140,-0.080
4073,-0.145,-0.085
4074,-0.150,-0.090
4075,-0.155,-0.095
4076,-0.160,-0.095
4077,-0.165,-0.095
4078,-0.160,-0.090
4079,-0.155,-0.085
4080,-0.150,-0.085
4081,-0.145,-0.085
4082,-0.150,-0.090
4083,-0.155,-0.095
4084,-0.145,-0.085
4085,-0.140,-0.080
4086,-0.135,-0.075
4087,-0.135,-0.075
4088,-0.135,-0.075
4089,-0.135,-0.085
4090,-0.135,-0.095
4091,-0.135,-0.090
4092,-0.135,-0.085
4093,-0.130,-0.080
4094,-0.125,-0.075
4095,-0.120,-0.080
4096,-0.115,-0.085
4097,-0.110,-0.085
4098,-0.105,-0.085
4099,-0.095,-0.080
4100,-0.085,-0.075
4101,-0.085,-0.070
4102,-0.085,-0.065
4103,-0.085,-0.060
4104,-0.085,-0.055
4105,-0.080,-0.070
4106,-0.075,-0.075
4107,-0.070,-0.070
4108,-0.060,-0.060
4109,-0.045,-0.050
4110,-0.030,-0.045
4111,-0.020,-0.050
4112,-0.010,-0.055
4113,0.000,-0.060
4114,0.015,-0.060
4115,0.030,-0.050
4116,0.035,-0.045
4117,0.040,-0.040
4118,0.050,-0.035
4119,0.060,-0.040
4120,0.070,-0.045
4121,0.080,-0.045
4122,0.085,-0.045
4123,0.090,-0.040
4124,0.115,-0.030
4125,0.095,-0.035
4126,0.160,-0.015
4127,0.175,-0.015
4128,0.185,-0.020
4129,0.195,-0.025
4130,0.220,-0.015
4131,0.245,-0.005
4132,0.250,0.005
4133,0.255,0.015
4134,0.250,0.015
4135,0.245,0.015
4136,0.235,0.010
4137,0.220,0.005
4138,0.190,0.005
4139,0.165,0.005
4140,0.155,0.005
4141,0.135,0.005
4142,0.105,-0.005
4143,0.075,-0.020
4144,0.050,-0.035
4145,0.030,-0.045
4146,0.005,-0.060
4147,-0.010,-0.065
4148,-0.025,-0.065
4149,-0.045,-0.070
4150,-0.065,-0.080
4151,-0.080,-0.090
4152,-0.090,-0.100
4153,-0.105,-0.105
4154,-0.120,-0.105
4155,-0.120,-0.105
4156,-0.110,-0.105
4157,-0.105,-0.105
4158,-0.110,-0.105
4159,-0.115,-0.105
4160,-0.120,-0.110
4161,-0.115,-0.115
4162,-0.100,-0.120
4163,-0.095,-0.120
4164,-0.100,-0.110
4165,-0.105,-0.105
4166,-0.105,-0.105
4167,-0.110,-0.110
4168,-0.115,-0.115
4169,-0.115,-0.110
4170,-0.115,-0.105
4171,-0.110,-0.100
4172,-0.105,-0.095
4173,-0.100,-0.095
4174,-0.095,-0.095
4175,-0.100,-0.100
4176,-0.105,-0.105
4177,-0.100,-0.105
4178,-0.095,-0.105
4179,-0.095,-0.105
4180,-0.095,-0.105
4181,-0.100,-0.100
4182,-0.105,-0.095
4183,-0.105,-0.105
4184,-0.105,-0.115
4185,-0.115,-0.110
4186,-0.125,-0.105
4187,-0.115,-0.100
4188,-0.105,-0.100
4189,-0.110,-0.110
4190,-0.115,-0.115
4191,-0.115,-0.115
4192,-0.115,-0.115
4193,-0.110,-0.115
4194,-0.105,-0.115
4195,-0.105,-0.110
4196,-0.105,-0.105
4197,-0.110,-0.110
4198,-0.115,-0.115
4199,-0.115,-0.120
4200,-0.115,-0.125
4201,-0.120,-0.120
4202,-0.125,-0.115
4203,-0.120,-0.115
4204,-0.115,-0.115
4205,-0.115,-0.115
4206,-0.115,-0.120
4207,-0.115,-0.130
4208,-0.115,-0.135
4209,-0.105,-0.135
4210,-0.110,-0.130
4211,-0.115,-0.125
4212,-0.115,-0.125
4213,-0.115,-0.125
4214,-0.110,-0.130
4215,-0.105,-0.135
4216,-0.110,-0.130
4217,-0.115,-0.125
4218,-0.110,-0.115
4219,-0.105,-0.105
4220,-0.105,-0.115
4221,-0.105,-0.125
4222,-0.095,-0.135
4223,-0.080,-0.145
4224,-0.065,-0.135
4225,-0.045,-0.115
4226,-0.020,-0.080
4227,-0.005,-0.055
4228,0.005,-0.055
4229,0.005,-0.065
4230,-0.020,-0.100
4231,-0.045,-0.115
4232,-0.065,-0.110
4233,-0.075,-0.105
4234,-0.075,-0.105
4235,-0.075,-0.110
4236,-0.080,-0.120
4237,-0.095,-0.125
4238,-0.110,-0.130
4239,-0.115,-0.135
4240,-0.115,-0.135
4241,-0.115,-0.135
4242,-0.110,-0.135
4243,-0.110,-0.135
4244,-0.120,-0.135
4245,-0.125,-0.135
4246,-0.120,-0.140
4247,-0.125,-0.145
4248,-0.140,-0.145
4249,-0.135,-0.140
4250,-0.145,-0.145
4251,-0.115,-0.125
4252,-0.115,-0.125
4253,-0.120,-0.130
4254,-0.125,-0.135
4255,-0.115,-0.135
4256,-0.105,-0.135
4257,-0.105,-0.125
4258,-0.105,-0.115
4259,-0.105,-0.120
4260,-0.105,-0.125
4261,-0.095,-0.125
4262,-0.085,-0.125
4263,-0.090,-0.125
4264,-0.110,-0.115
4265,-0.160,-0.085
4266,-0.215,-0.060
4267,-0.275,-0.045
4268,-0.275,-0.010
4269,-0.180,0.050
4270,0.030,0.120
4271,0.370,0.195
4272,0.795,0.165
4273,1.300,0.020
4274,1.485,-0.120
4275,1.405,-0.260
4276,0.955,-0.440
4277,0.265,-0.650
4278,-0.155,-0.725
4279,-0.430,-0.720
4280,-0.480,-0.610
4281,-0.420,-0.455
4282,-0.335,-0.335
4283,-0.235,-0.230
4284,-0.175,-0.165
4285,-0.115,-0.115
4286,-0.100,-0.095
4287,-0.090,-0.080
4288,-0.085,-0.075
4289,-0.090,-0.080
4290,-0.095,-0.085
4291,-0.100,-0.090
4292,-0.110,-0.100
4293,-0.115,-0.105
4294,-0.115,-0.100
4295,-0.115,-0.095
4296,-0.115,-0.090
4297,-0.115,-0.085
4298,-0.110,-0.085
4299,-0.105,-0.085
4300,-0.110,-0.090
4301,-0.115,-0.095
4302,-0.105,-0.095
4303,-0.095,-0.095
4304,-0.100,-0.085
4305,-0.105,-0.075
4306,-0.105,-0.080
4307,-0.105,-0.085
4308,-0.100,-0.090
4309,-0.095,-0.095
4310,-0.100,-0.090
4311,-0.100,-0.085
4312,-0.085,-0.080
4313,-0.075,-0.075
4314,-0.070,-0.075
4315,-0.065,-0.075
4316,-0.065,-0.080
4317,-0.060,-0.085
4318,-0.050,-0.080
4319,-0.045,-0.075
4320,-0.045,-0.070
4321,-0.045,-0.065
4322,-0.040,-0.065
4323,-0.035,-0.065
4324,-0.030,-0.065
4325,-0.025,-0.065
4326,-0.020,-0.065
4327,-0.005,-0.060
4328,0.010,-0.050
4329,0.015,-0.045
4330,0.020,-0.045
4331,0.025,-0.045
4332,0.030,-0.050
4333,0.050,-0.055
4334,0.075,-0.045
4335,0.085,-0.035
4336,0.095,-0.025
4337,0.105,-0.025
4338,0.115,-0.025
4339,0.130,-0.030
4340,0.145,-0.035
4341,0.155,-0.025
4342,0.165,-0.015
4343,0.185,-0.010
4344,0.205,-0.005
4345,0.220,-0.005
4346,0.235,-0.005
4347,0.250,-0.005
4348,0.270,-0.005
4349,0.285,0.005
4350,0.295,0.015
4351,0.295,0.020
4352,0.290,0.025
4353,0.275,0.030
4354,0.260,0.035
4355,0.235,0.020
4356,0.210,0.015
4357,0.180,0.015
4358,0.155,0.010
4359,0.135,0.000
4360,0.110,-0.010
4361,0.080,-0.020
4362,0.050,-0.035
4363,0.025,-0.055
4364,0.005,-0.065
4365,-0.010,-0.065
4366,-0.025,-0.070
4367,-0.040,-0.080
4368,-0.055,-0.085
4369,-0.070,-0.090
4370,-0.075,-0.095
4371,-0.075,-0.100
4372,-0.080,-0.105
4373,-0.090,-0.105
4374,-0.095,-0.105
4375,-0.095,-0.105
4376,-0.090,-0.110
4377,-0.095,-0.115
4378,-0.095,-0.120
4379,-0.095,-0.125
4380,-0.090,-0.115
4381,-0.085,-0.105
4382,-0.085,-0.105
4383,-0.085,-0.105
4384,-0.090,-0.110
4385,-0.095,-0.115
4386,-0.090,-0.115
4387,-0.085,-0.115
4388,-0.085,-0.105
4389,-0.085,-0.095
4390,-0.085,-0.100
4391,-0.085,-0.105
4392,-0.090,-0.100
4393,-0.095,-0.095
4394,-0.090,-0.105
4395,-0.085,-0.115
4396,-0.085,-0.100
4397,-0.085,-0.095
4398,-0.085,-0.095
4399,-0.085,-0.095
4400,-0.090,-0.095
4401,-0.095,-0.100
4402,-0.090,-0.110
4403,-0.095,-0.115
4404,-0.110,-0.110
4405,-0.105,-0.105
4406,-0.090,-0.100
4407,-0.085,-0.095
4408,-0.090,-0.100
4409,-0.095,-0.110
4410,-0.100,-0.120
4411,-0.105,-0.125
4412,-0.100,-0.120
4413,-0.095,-0.110
4414,-0.100,-0.100
4415,-0.105,-0.095
4416,-0.105,-0.100
4417,-0.105,-0.120
4418,-0.105,-0.135
4419,-0.115,-0.125
4420,-0.125,-0.115
4421,-0.115,-0.110
4422,-0.105,-0.105
4423,-0.105,-0.110
4424,-0.105,-0.115
4425,-0.110,-0.125
4426,-0.115,-0.135
4427,-0.110,-0.130
4428,-0.105,-0.125
4429,-0.105,-0.125
4430,-0.105,-0.125
4431,-0.105,-0.120
4432,-0.105,-0.115
4433,-0.110,-0.125
4434,-0.115,-0.135
4435,-0.125,-0.130
4436,-0.135,-0.125
4437,-0.125,-0.120
4438,-0.115,-0.115
4439,-0.110,-0.115
4440,-0.105,-0.115
4441,-0.110,-0.120
4442,-0.115,-0.125
4443,-0.110,-0.130
4444,-0.105,-0.130
4445,-0.105,-0.120
4446,-0.105,-0.115
4447,-0.105,-0.115
4448,-0.105,-0.115
4449,-0.110,-0.120
4450,-0.115,-0.125
4451,-0.110,-0.130
4452,-0.110,-0.135
4453,-0.120,-0.130
4454,-0.120,-0.125
4455,-0.110,-0.120
4456,-0.105,-0.115
4457,-0.105,-0.115
4458,-0.105,-0.115
4459,-0.115,-0.125
4460,-0.115,-0.125
4461,-0.115,-0.125
4462,-0.110,-0.120
4463,-0.105,-0.115
4464,-0.105,-0.115
4465,-0.105,-0.115
4466,-0.105,-0.125
4467,-0.105,-0.135
4468,-0.110,-0.130
4469,-0.115,-0.125
4470,-0.110,-0.120
4471,-0.105,-0.115
4472,-0.100,-0.120
4473,-0.095,-0.125
4474,-0.105,-0.125
4475,-0.115,-0.125
4476,-0.105,-0.125
4477,-0.095,-0.125
4478,-0.100,-0.120
4479,-0.105,-0.115
4480,-0.105,-0.115
4481,-0.105,-0.115
4482,-0.100,-0.120
4483,-0.100,-0.125
4484,-0.110,-0.125
4485,-0.110,-0.120
4486,-0.095,-0.110
4487,-0.085,-0.110
4488,-0.090,-0.120
4489,-0.095,-0.125
4490,-0.095,-0.130
4491,-0.090,-0.135
4492,-0.080,-0.130
4493,-0.055,-0.110
4494,-0.030,-0.090
4495,-0.010,-0.065
4496,0.010,-0.040
4497,0.010,-0.050
4498,0.000,-0.070
4499,-0.030,-0.085
4500,-0.005,-0.075
4501,-0.060,-0.100
4502,-0.055,-0.095
4503,-0.070,-0.110
4504,-0.085,-0.125
4505,-0.090,-0.125
4506,-0.095,-0.125
4507,-0.105,-0.125
4508,-0.115,-0.125
4509,-0.110,-0.120
4510,-0.105,-0.115
4511,-0.115,-0.120
4512,-0.125,-0.125
4513,-0.115,-0.125
4514,-0.105,-0.125
4515,-0.115,-0.125
4516,-0.125,-0.125
4517,-0.120,-0.125
4518,-0.115,-0.125
4519,-0.115,-0.125
4520,-0.115,-0.125
4521,-0.110,-0.125
4522,-0.105,-0.125
4523,-0.110,-0.120
4524,-0.115,-0.115
4525,-0.110,-0.110
4526,-0.105,-0.105
4527,-0.100,-0.105
4528,-0.095,-0.105
4529,-0.100,-0.105
4530,-0.165,-0.085
4531,-0.260,-0.055
4532,-0.270,-0.030
4533,-0.245,-0.005
4534,-0.060,0.090
4535,0.165,0.195
4536,0.610,0.145
4537,1.090,0.055
4538,1.370,-0.065
4539,1.625,-0.195
4540,0.995,-0.370
4541,0.300,-0.550
4542,-0.095,-0.665
4543,-0.475,-0.775
4544,-0.475,-0.625
4545,-0.470,-0.475
4546,-0.355,-0.335
4547,-0.250,-0.200
4548,-0.185,-0.140
4549,-0.125,-0.085
4550,-0.120,-0.075
4551,-0.115,-0.065
4552,-0.115,-0.070
4553,-0.115,-0.075
4554,-0.120,-0.075
4555,-0.125,-0.075
4556,-0.135,-0.075
4557,-0.145,-0.075
4558,-0.145,-0.080
4559,-0.145,-0.085
4560,-0.150,-0.085
4561,-0.150,-0.085
4562,-0.135,-0.080
4563,-0.125,-0.075
4564,-0.130,-0.075
4565,-0.135,-0.075
4566,-0.135,-0.080
4567,-0.130,-0.085
4568,-0.120,-0.080
4569,-0.115,-0.075
4570,-0.120,-0.070
4571,-0.125,-0.065
4572,-0.125,-0.065
4573,-0.125,-0.070
4574,-0.120,-0.080
4575,-0.115,-0.085
4576,-0.120,-0.080
4577,-0.120,-0.070
4578,-0.110,-0.060
4579,-0.105,-0.055
4580,-0.100,-0.060
4581,-0.095,-0.065
4582,-0.095,-0.070
4583,-0.085,-0.075
4584,-0.065,-0.065
4585,-0.070,-0.060
4586,-0.075,-0.055
4587,-0.065,-0.055
4588,-0.055,-0.055
4589,-0.050,-0.060
4590,-0.045,-0.065
4591,-0.045,-0.060
4592,-0.045,-0.055
4593,-0.030,-0.045
4594,-0.015,-0.035
4595,0.000,-0.040
4596,0.015,-0.045
4597,0.020,-0.045
4598,0.030,-0.045
4599,0.045,-0.040
4600,0.055,-0.035
4601,0.065,-0.030
4602,0.075,-0.025
4603,0.085,-0.020
4604,0.100,-0.015
4605,0.115,-0.020
4606,0.125,-0.025
4607,0.130,-0.020
4608,0.145,-0.010
4609,0.175,0.000
4610,0.190,0.005
4611,0.205,0.005
4612,0.220,0.005
4613,0.230,0.005
4614,0.240,0.005
4615,0.250,0.010
4616,0.255,0.020
4617,0.255,0.030
4618,0.245,0.035
4619,0.230,0.035
4620,0.205,0.025
4621,0.180,0.010
4622,0.145,0.005
4623,0.110,0.005
4624,0.095,0.005
4625,0.105,0.005
4626,0.045,-0.010
4627,0.015,-0.025
4628,-0.010,-0.045
4629,-0.035,-0.065
4630,-0.045,-0.070
4631,-0.055,-0.075
4632,-0.075,-0.070
4633,-0.095,-0.065
4634,-0.105,-0.075
4635,-0.115,-0.085
4636,-0.120,-0.095
4637,-0.125,-0.105
4638,-0.135,-0.105
4639,-0.145,-0.105
4640,-0.135,-0.100
4641,-0.125,-0.095
4642,-0.130,-0.095
4643,-0.135,-0.095
4644,-0.135,-0.105
4645,-0.135,-0.115
4646,-0.130,-0.110
4647,-0.125,-0.105
4648,-0.125,-0.100
4649,-0.125,-0.095
4650,-0.125,-0.095
4651,-0.125,-0.095
4652,-0.125,-0.100
4653,-0.125,-0.105
4654,-0.130,-0.100
4655,-0.135,-0.095
4656,-0.130,-0.090
4657,-0.125,-0.085
4658,-0.130,-0.090
4659,-0.135,-0.095
4660,-0.135,-0.100
4661,-0.135,-0.100
4662,-0.135,-0.090
4663,-0.135,-0.085
4664,-0.140,-0.090
4665,-0.145,-0.095
4666,-0.145,-0.095
4667,-0.140,-0.100
4668,-0.135,-0.105
4669,-0.145,-0.100
4670,-0.155,-0.095
4671,-0.155,-0.095
4672,-0.155,-0.095
4673,-0.150,-0.100
4674,-0.145,-0.105
4675,-0.150,-0.105
4676,-0.155,-0.105
4677,-0.150,-0.105
4678,-0.145,-0.105
4679,-0.150,-0.100
4680,-0.155,-0.095
4681,-0.155,-0.095
4682,-0.155,-0.095
4683,-0.155,-0.105
4684,-0.155,-0.115
4685,-0.160,-0.115
4686,-0.165,-0.115
4687,-0.160,-0.110
4688,-0.155,-0.105
4689,-0.160,-0.110
4690,-0.165,-0.115
4691,-0.165,-0.120
4692,-0.165,-0.125
4693,-0.160,-0.120
4694,-0.155,-0.115
4695,-0.160,-0.110
4696,-0.165,-0.105
4697,-0.165,-0.110
4698,-0.165,-0.115
4699,-0.160,-0.120
4700,-0.155,-0.125
4701,-0.160,-0.120
4702,-0.165,-0.115
4703,-0.160,-0.110
4704,-0.155,-0.105
4705,-0.155,-0.110
4706,-0.155,-0.115
4707,-0.160,-0.120
4708,-0.165,-0.125
4709,-0.155,-0.115
4710,-0.155,-0.115
4711,-0.155,-0.115
4712,-0.155,-0.115
4713,-0.155,-0.115
4714,-0.155,-0.125
4715,-0.155,-0.135
4716,-0.160,-0.130
4717,-0.165,-0.125
4718,-0.160,-0.120
4719,-0.155,-0.115
4720,-0.155,-0.115
4721,-0.155,-0.115
4722,-0.160,-0.120
4723,-0.165,-0.125
4724,-0.160,-0.120
4725,-0.155,-0.115
4726,-0.155,-0.115
4727,-0.155,-0.115
4728,-0.155,-0.120
4729,-0.155,-0.125
4730,-0.160,-0.125
4731,-0.165,-0.125
4732,-0.165,-0.120
4733,-0.165,-0.115
4734,-0.160,-0.115
4735,-0.155,-0.115
4736,-0.155,-0.115
4737,-0.155,-0.115
4738,-0.160,-0.120
4739,-0.165,-0.125
4740,-0.160,-0.120
4741,-0.155,-0.115
4742,-0.150,-0.110
4743,-0.145,-0.105
4744,-0.150,-0.110
4745,-0.155,-0.115
4746,-0.155,-0.120
4747,-0.160,-0.125
4748,-0.170,-0.125
4749,-0.165,-0.120
4750,-0.175,-0.125
4751,-0.145,-0.105
4752,-0.145,-0.105
4753,-0.150,-0.115
4754,-0.155,-0.125
4755,-0.150,-0.120
4756,-0.145,-0.115
4757,-0.145,-0.110
4758,-0.145,-0.105
4759,-0.145,-0.105
4760,-0.145,-0.105
4761,-0.145,-0.115
4762,-0.145,-0.125
4763,-0.150,-0.120
4764,-0.155,-0.115
4765,-0.145,-0.105
4766,-0.135,-0.095
4767,-0.130,-0.100
4768,-0.130,-0.105
4769,-0.145,-0.115
4770,-0.150,-0.125
4771,-0.125,-0.125
4772,-0.105,-0.120
4773,-0.085,-0.105
4774,-0.065,-0.080
4775,-0.035,-0.050
4776,-0.020,-0.035
4777,-0.005,-0.035
4778,-0.015,-0.045
4779,-0.050,-0.065
4780,-0.065,-0.075
4781,-0.070,-0.075
4782,-0.085,-0.080
4783,-0.100,-0.090
4784,-0.115,-0.105
4785,-0.130,-0.120
4786,-0.135,-0.125
4787,-0.135,-0.120
4788,-0.135,-0.115
4789,-0.140,-0.110
4790,-0.145,-0.105
4791,-0.150,-0.110
4792,-0.155,-0.125
4793,-0.155,-0.135
4794,-0.160,-0.125
4795,-0.165,-0.115
4796,-0.160,-0.110
4797,-0.155,-0.105
4798,-0.150,-0.105
4799,-0.145,-0.105
4800,-0.150,-0.110
4801,-0.155,-0.115
4802,-0.150,-0.115
4803,-0.145,-0.115
4804,-0.140,-0.110
4805,-0.135,-0.105
4806,-0.135,-0.100
4807,-0.135,-0.095
4808,-0.125,-0.100
4809,-0.115,-0.105
4810,-0.110,-0.100
4811,-0.145,-0.085
4812,-0.235,-0.060
4813,-0.290,-0.035
4814,-0.300,-0.015
4815,-0.225,0.050
4816,-0.080,0.150
4817,0.235,0.190
4818,0.660,0.175
4819,1.100,0.080
4820,1.550,-0.060
4821,1.395,-0.200
4822,0.955,-0.345
4823,0.440,-0.520
4824,-0.105,-0.700
4825,-0.340,-0.705
4826,-0.485,-0.645
4827,-0.475,-0.520
4828,-0.425,-0.375
4829,-0.335,-0.270
4830,-0.245,-0.175
4831,-0.190,-0.120
4832,-0.140,-0.070
4833,-0.135,-0.065
4834,-0.135,-0.065
4835,-0.140,-0.060
4836,-0.145,-0.055
4837,-0.150,-0.060
4838,-0.155,-0.065
4839,-0.160,-0.065
4840,-0.165,-0.065
4841,-0.160,-0.070
4842,-0.155,-0.075
4843,-0.160,-0.070
4844,-0.165,-0.065
4845,-0.160,-0.060
4846,-0.155,-0.055
4847,-0.155,-0.060
4848,-0.155,-0.065
4849,-0.155,-0.065
4850,-0.155,-0.065
4851,-0.145,-0.065
4852,-0.135,-0.065
4853,-0.135,-0.060
4854,-0.135,-0.055
4855,-0.135,-0.055
4856,-0.130,-0.055
4857,-0.120,-0.060
4858,-0.120,-0.065
4859,-0.130,-0.060
4860,-0.135,-0.055
4861,-0.130,-0.050
4862,-0.120,-0.045
4863,-0.110,-0.045
4864,-0.105,-0.045
4865,-0.110,-0.050
4866,-0.110,-0.055
4867,-0.100,-0.050
4868,-0.095,-0.045
4869,-0.090,-0.045
4870,-0.085,-0.045
4871,-0.080,-0.050
4872,-0.070,-0.055
4873,-0.060,-0.050
4874,-0.055,-0.045
4875,-0.055,-0.045
4876,-0.045,-0.030
4877,-0.035,-0.025
4878,-0.020,-0.030
4879,-0.005,-0.035
4880,0.005,-0.035
4881,0.015,-0.035
4882,0.030,-0.025
4883,0.045,-0.015
4884,0.060,-0.015
4885,0.075,-0.015
4886,0.085,-0.015
4887,0.100,-0.015
4888,0.120,-0.010
4889,0.135,-0.005
4890,0.145,0.000
4891,0.160,0.005
4892,0.180,0.010
4893,0.195,0.015
4894,0.205,0.020
4895,0.215,0.025
4896,0.230,0.020
4897,0.240,0.020
4898,0.250,0.030
4899,0.255,0.035
4900,0.250,0.040
4901,0.235,0.045
4902,0.215,0.040
4903,0.190,0.035
4904,0.165,0.030
4905,0.140,0.025
4906,0.115,0.025
4907,0.085,0.015
4908,0.055,0.000
4909,0.025,-0.010
4910,0.000,-0.020
4911,-0.020,-0.030
4912,-0.040,-0.040
4913,-0.060,-0.045
4914,-0.080,-0.050
4915,-0.090,-0.060
4916,-0.100,-0.070
4917,-0.115,-0.085
4918,-0.125,-0.095
4919,-0.135,-0.095
4920,-0.145,-0.095
4921,-0.135,-0.090
4922,-0.125,-0.085
4923,-0.130,-0.090
4924,-0.135,-0.095
4925,-0.135,-0.100
4926,-0.135,-0.105
4927,-0.135,-0.105
4928,-0.135,-0.105
4929,-0.135,-0.095
4930,-0.135,-0.085
4931,-0.140,-0.085
4932,-0.145,-0.085
4933,-0.145,-0.095
4934,-0.145,-0.105
4935,-0.155,-0.100
4936,-0.165,-0.095
4937,-0.155,-0.085
4938,-0.145,-0.075
4939,-0.145,-0.080
4940,-0.145,-0.085
4941,-0.140,-0.090
4942,-0.135,-0.095
4943,-0.135,-0.090
4944,-0.135,-0.085
4945,-0.140,-0.080
4946,-0.145,-0.075
4947,-0.145,-0.080
4948,-0.145,-0.085
4949,-0.145,-0.090
4950,-0.150,-0.095
4951,-0.160,-0.090
4952,-0.160,-0.085
4953,-0.150,-0.085
4954,-0.145,-0.085
4955,-0.145,-0.085
4956,-0.145,-0.090
4957,-0.145,-0.100
4958,-0.145,-0.105
4959,-0.135,-0.105
4960,-0.145,-0.100
4961,-0.155,-0.095
4962,-0.150,-0.100
4963,-0.145,-0.105
4964,-0.150,-0.110
4965,-0.155,-0.115
4966,-0.165,-0.110
4967,-0.175,-0.105
4968,-0.165,-0.105
4969,-0.155,-0.105
4970,-0.155,-0.105
4971,-0.155,-0.105
4972,-0.155,-0.110
4973,-0.155,-0.115
4974,-0.155,-0.115
4975,-0.155,-0.115
4976,-0.150,-0.110
4977,-0.145,-0.105
4978,-0.150,-0.105
4979,-0.155,-0.105
4980,-0.160,-0.120
4981,-0.165,-0.125
4982,-0.170,-0.120
4983,-0.175,-0.115
4984,-0.170,-0.115
4985,-0.165,-0.115
4986,-0.165,-0.115
4987,-0.165,-0.115
4988,-0.165,-0.120
4989,-0.165,-0.125
4990,-0.160,-0.120
4991,-0.155,-0.115
4992,-0.155,-0.110
4993,-0.155,-0.105
4994,-0.155,-0.110
4995,-0.155,-0.115
4996,-0.155,-0.120
4997,-0.160,-0.125
4998,-0.170,-0.120
4999,-0.170,-0.115
5000,-0.175,-0.115
5001,-0.160,-0.110
5002,-0.165,-0.115
5003,-0.165,-0.120
5004,-0.165,-0.125
5005,-0.160,-0.120
5006,-0.155,-0.115
5007,-0.150,-0.110
5008,-0.145,-0.105
5009,-0.150,-0.110
5010,-0.155,-0.115
5011,-0.160,-0.125
5012,-0.165,-0.135
5013,-0.170,-0.130
5014,-0.170,-0.125
5015,-0.155,-0.115
5016,-0.145,-0.105
5017,-0.145,-0.110
5018,-0.145,-0.115
5019,-0.150,-0.120
5020,-0.155,-0.125
5021,-0.140,-0.125
5022,-0.135,-0.125
5023,-0.135,-0.120
5024,-0.135,-0.115
5025,-0.135,-0.115
5026,-0.135,-0.115
5027,-0.135,-0.120
5028,-0.140,-0.125
5029,-0.150,-0.125
5030,-0.155,-0.125
5031,-0.155,-0.120
5032,-0.155,-0.115
5033,-0.150,-0.115
5034,-0.145,-0.115
5035,-0.145,-0.120
5036,-0.140,-0.125
5037,-0.130,-0.125
5038,-0.125,-0.125
5039,-0.125,-0.120
5040,-0.125,-0.115
5041,-0.130,-0.110
5042,-0.135,-0.115
5043,-0.135,-0.125
5044,-0.140,-0.120
5045,-0.145,-0.115
5046,-0.135,-0.110
5047,-0.125,-0.105
5048,-0.125,-0.105
5049,-0.125,-0.105
5050,-0.130,-0.120
5051,-0.135,-0.135
5052,-0.115,-0.130
5053,-0.090,-0.120
5054,-0.070,-0.100
5055,-0.045,-0.080
5056,-0.010,-0.055
5057,0.015,-0.035
5058,0.020,-0.035
5059,0.010,-0.045
5060,-0.030,-0.070
5061,-0.055,-0.085
5062,-0.050,-0.075
5063,-0.060,-0.075
5064,-0.090,-0.095
5065,-0.105,-0.110
5066,-0.110,-0.120
5067,-0.115,-0.125
5068,-0.115,-0.125
5069,-0.120,-0.125
5070,-0.140,-0.120
5071,-0.145,-0.115
5072,-0.145,-0.120
5073,-0.145,-0.125
5074,-0.140,-0.130
5075,-0.140,-0.135
5076,-0.150,-0.130
5077,-0.150,-0.125
5078,-0.140,-0.120
5079,-0.135,-0.115
5080,-0.140,-0.115
5081,-0.145,-0.120
5082,-0.140,-0.130
5083,-0.135,-0.135
5084,-0.125,-0.125
5085,-0.125,-0.115
5086,-0.125,-0.105
5087,-0.125,-0.105
5088,-0.125,-0.105
5089,-0.110,-0.110
5090,-0.100,-0.115
5091,-0.165,-0.100
5092,-0.230,-0.085
5093,-0.305,-0.065
5094,-0.345,-0.030
5095,-0.260,0.035
5096,-0.095,0.105
5097,0.260,0.180
5098,0.680,0.195
5099,1.230,0.080
5100,1.520,-0.040
5101,1.395,-0.155
5102,1.035,-0.320
5103,0.365,-0.540
5104,-0.105,-0.660
5105,-0.365,-0.675
5106,-0.485,-0.625
5107,-0.480,-0.505
5108,-0.425,-0.390
5109,-0.330,-0.280
5110,-0.255,-0.200
5111,-0.180,-0.140
5112,-0.145,-0.100
5113,-0.125,-0.075
5114,-0.115,-0.070
5115,-0.115,-0.080
5116,-0.130,-0.085
5117,-0.150,-0.085
5118,-0.155,-0.085
5119,-0.155,-0.085
5120,-0.155,-0.090
5121,-0.150,-0.100
5122,-0.145,-0.100
5123,-0.150,-0.090
5124,-0.155,-0.085
5125,-0.155,-0.085
5126,-0.140,-0.090
5127,-0.135,-0.095
5128,-0.145,-0.095
5129,-0.155,-0.095
5130,-0.150,-0.095
5131,-0.145,-0.095
5132,-0.130,-0.090
5133,-0.115,-0.085
5134,-0.120,-0.080
5135,-0.125,-0.075
5136,-0.130,-0.085
5137,-0.135,-0.095
5138,-0.125,-0.090
5139,-0.115,-0.085
5140,-0.115,-0.080
5141,-0.115,-0.075
5142,-0.105,-0.075
5143,-0.095,-0.075
5144,-0.100,-0.080
5145,-0.105,-0.085
5146,-0.100,-0.085
5147,-0.090,-0.080
5148,-0.080,-0.070
5149,-0.070,-0.065
5150,-0.060,-0.065
5151,-0.055,-0.065
5152,-0.055,-0.070
5153,-0.050,-0.075
5154,-0.040,-0.070
5155,-0.035,-0.065
5156,-0.030,-0.065
5157,-0.020,-0.060
5158,-0.010,-0.050
5159,-0.005,-0.045
5160,0.000,-0.050
5161,0.010,-0.055
5162,0.020,-0.055
5163,0.040,-0.055
5164,0.060,-0.050
5165,0.070,-0.045
5166,0.080,-0.040
5167,0.100,-0.040
5168,0.115,-0.045
5169,0.135,-0.045
5170,0.155,-0.045
5171,0.170,-0.035
5172,0.185,-0.025
5173,0.205,-0.020
5174,0.225,-0.015
5175,0.235,-0.020
5176,0.245,-0.025
5177,0.255,-0.020
5178,0.265,-0.015
5179,0.275,-0.005
5180,0.285,0.005
5181,0.275,0.010
5182,0.260,0.015
5183,0.235,0.005
5184,0.205,-0.005
5185,0.175,-0.005
5186,0.145,-0.005
5187,0.120,-0.005
5188,0.090,-0.010
5189,0.060,-0.020
5190,0.030,-0.035
5191,0.000,-0.055
5192,-0.015,-0.065
5193,-0.020,-0.070
5194,-0.040,-0.075
5195,-0.065,-0.080
5196,-0.085,-0.085
5197,-0.100,-0.090
5198,-0.110,-0.100
5199,-0.120,-0.110
5200,-0.125,-0.115
5201,-0.130,-0.115
5202,-0.135,-0.115
5203,-0.130,-0.110
5204,-0.125,-0.105
5205,-0.130,-0.110
5206,-0.135,-0.115
5207,-0.135,-0.120
5208,-0.135,-0.125
5209,-0.125,-0.115
5210,-0.125,-0.115
5211,-0.125,-0.115
5212,-0.130,-0.115
5213,-0.135,-0.115
5214,-0.135,-0.115
5215,-0.135,-0.115
5216,-0.135,-0.110
5217,-0.135,-0.105
5218,-0.135,-0.105
5219,-0.135,-0.105
5220,-0.135,-0.110
5221,-0.135,-0.115
5222,-0.135,-0.115
5223,-0.135,-0.115
5224,-0.130,-0.110
5225,-0.125,-0.105
5226,-0.130,-0.105
5227,-0.135,-0.105
5228,-0.140,-0.110
5229,-0.145,-0.115
5230,-0.145,-0.120
5231,-0.145,-0.120
5232,-0.145,-0.110
5233,-0.145,-0.105
5234,-0.145,-0.105
5235,-0.145,-0.110
5236,-0.150,-0.120
5237,-0.155,-0.125
5238,-0.150,-0.125
5239,-0.145,-0.125
5240,-0.140,-0.120
5241,-0.135,-0.115
5242,-0.140,-0.115
5243,-0.145,-0.115
5244,-0.150,-0.120
5245,-0.150,-0.125
5246,-0.140,-0.125
5247,-0.140,-0.125
5248,-0.150,-0.120
5249,-0.155,-0.115
5250,-0.155,-0.115
5251,-0.155,-0.120
5252,-0.155,-0.125
5253,-0.160,-0.130
5254,-0.165,-0.135
5255,-0.155,-0.130
5256,-0.145,-0.125
5257,-0.145,-0.125
5258,-0.145,-0.125
5259,-0.150,-0.125
5260,-0.155,-0.125
5261,-0.155,-0.130
5262,-0.155,-0.135
5263,-0.160,-0.135
5264,-0.165,-0.135
5265,-0.160,-0.130
5266,-0.155,-0.125
5267,-0.150,-0.125
5268,-0.145,-0.125
5269,-0.150,-0.135
5270,-0.155,-0.145
5271,-0.150,-0.140
5272,-0.145,-0.130
5273,-0.145,-0.120
5274,-0.145,-0.115
5275,-0.145,-0.115
5276,-0.145,-0.120
5277,-0.150,-0.130
5278,-0.155,-0.135
5279,-0.150,-0.135
5280,-0.140,-0.135
5281,-0.130,-0.130
5282,-0.105,-0.110
5283,-0.075,-0.085
5284,-0.045,-0.070
5285,-0.020,-0.060
5286,-0.030,-0.060
5287,-0.050,-0.070
5288,-0.065,-0.085
5289,-0.080,-0.100
5290,-0.090,-0.105
5291,-0.100,-0.100
5292,-0.115,-0.110
5293,-0.125,-0.125
5294,-0.135,-0.125
5295,-0.145,-0.125
5296,-0.160,-0.130
5297,-0.175,-0.135
5298,-0.170,-0.135
5299,-0.165,-0.135
5300,-0.165,-0.135
5301,-0.165,-0.135
5302,-0.165,-0.135
5303,-0.165,-0.135
5304,-0.160,-0.135
5305,-0.155,-0.135
5306,-0.155,-0.130
5307,-0.155,-0.125
5308,-0.155,-0.130
5309,-0.155,-0.135
5310,-0.155,-0.135
5311,-0.155,-0.135
5312,-0.160,-0.135
5313,-0.160,-0.135
5314,-0.150,-0.130
5315,-0.145,-0.125
5316,-0.145,-0.120
5317,-0.145,-0.115
5318,-0.140,-0.120
5319,-0.130,-0.125
5320,-0.110,-0.120
5321,-0.115,-0.110
5322,-0.130,-0.100
5323,-0.210,-0.080
5324,-0.310,-0.060
5325,-0.320,-0.035
5326,-0.300,-0.010
5327,-0.110,0.095
5328,0.115,0.215
5329,0.600,0.180
5330,1.120,0.115
5331,1.465,-0.005
5332,1.790,-0.130
5333,1.130,-0.305
5334,0.430,-0.485
5335,0.000,-0.620
5336,-0.405,-0.740
5337,-0.450,-0.615
5338,-0.490,-0.495
5339,-0.410,-0.375
5340,-0.335,-0.265
5341,-0.245,-0.200
5342,-0.170,-0.140
5343,-0.140,-0.100
5344,-0.115,-0.065
5345,-0.120,-0.070
5346,-0.125,-0.075
5347,-0.130,-0.085
5348,-0.135,-0.095
5349,-0.140,-0.095
5350,-0.145,-0.095
5351,-0.140,-0.090
5352,-0.135,-0.085
5353,-0.135,-0.080
5354,-0.135,-0.075
5355,-0.140,-0.090
5356,-0.145,-0.095
5357,-0.140,-0.095
5358,-0.135,-0.090
5359,-0.130,-0.080
5360,-0.125,-0.075
5361,-0.130,-0.075
5362,-0.135,-0.075
5363,-0.130,-0.080
5364,-0.120,-0.085
5365,-0.110,-0.080
5366,-0.105,-0.075
5367,-0.100,-0.070
5368,-0.095,-0.065
5369,-0.100,-0.065
5370,-0.105,-0.065
5371,-0.100,-0.070
5372,-0.095,-0.075
5373,-0.100,-0.070
5374,-0.090,-0.065
5375,-0.105,-0.065
5376,-0.065,-0.050
5377,-0.065,-0.045
5378,-0.065,-0.055
5379,-0.065,-0.065
5380,-0.050,-0.060
5381,-0.035,-0.055
5382,-0.030,-0.050
5383,-0.025,-0.045
5384,-0.020,-0.045
5385,-0.015,-0.045
5386,-0.005,-0.040
5387,0.005,-0.035
5388,0.010,-0.035
5389,0.020,-0.035
5390,0.040,-0.030
5391,0.055,-0.025
5392,0.065,-0.020
5393,0.080,-0.015
5394,0.095,-0.020
5395,0.110,-0.025
5396,0.135,-0.020
5397,0.150,-0.010
5398,0.160,0.000
5399,0.170,0.005
5400,0.185,0.005
5401,0.200,0.005
5402,0.215,0.000
5403,0.225,0.000
5404,0.230,0.010
5405,0.245,0.015
5406,0.260,0.020
5407,0.265,0.025
5408,0.265,0.025
5409,0.250,0.025
5410,0.230,0.030
5411,0.215,0.035
5412,0.200,0.035
5413,0.170,0.035
5414,0.140,0.030
5415,0.115,0.015
5416,0.090,0.000
5417,0.060,-0.015
5418,0.035,-0.025
5419,0.000,-0.035
5420,-0.035,-0.045
5421,-0.040,-0.045
5422,-0.045,-0.045
5423,-0.065,-0.060
5424,-0.085,-0.075
5425,-0.095,-0.085
5426,-0.105,-0.095
5427,-0.100,-0.090
5428,-0.095,-0.085
5429,-0.100,-0.080
5430,-0.105,-0.075
5431,-0.110,-0.085
5432,-0.115,-0.095
5433,-0.115,-0.100
5434,-0.115,-0.105
5435,-0.125,-0.100
5436,-0.135,-0.095
5437,-0.125,-0.090
5438,-0.115,-0.085
5439,-0.115,-0.085
5440,-0.115,-0.090
5441,-0.115,-0.100
5442,-0.115,-0.105
5443,-0.110,-0.100
5444,-0.105,-0.090
5445,-0.105,-0.080
5446,-0.105,-0.075
5447,-0.105,-0.080
5448,-0.105,-0.085
5449,-0.105,-0.090
5450,-0.110,-0.095
5451,-0.120,-0.090
5452,-0.120,-0.080
5453,-0.110,-0.070
5454,-0.105,-0.065
5455,-0.105,-0.070
5456,-0.105,-0.080
5457,-0.110,-0.090
5458,-0.115,-0.095
5459,-0.105,-0.085
5460,-0.100,-0.075
5461,-0.095,-0.065
5462,-0.100,-0.070
5463,-0.105,-0.075
5464,-0.115,-0.080
5465,-0.125,-0.085
5466,-0.115,-0.090
5467,-0.105,-0.095
5468,-0.115,-0.090
5469,-0.125,-0.085
5470,-0.120,-0.085
5471,-0.115,-0.085
5472,-0.120,-0.090
5473,-0.125,-0.095
5474,-0.125,-0.095
5475,-0.125,-0.095
5476,-0.120,-0.090
5477,-0.115,-0.085
5478,-0.120,-0.085
5479,-0.125,-0.085
5480,-0.125,-0.090
5481,-0.125,-0.095
5482,-0.125,-0.095
5483,-0.130,-0.095
5484,-0.140,-0.100
5485,-0.140,-0.100
5486,-0.130,-0.085
5487,-0.125,-0.080
5488,-0.130,-0.090
5489,-0.135,-0.095
5490,-0.130,-0.100
5491,-0.125,-0.105
5492,-0.120,-0.105
5493,-0.115,-0.100
5494,-0.115,-0.090
5495,-0.120,-0.085
5496,-0.130,-0.085
5497,-0.135,-0.085
5498,-0.130,-0.090
5499,-0.125,-0.095
5500,-0.125,-0.095
5501,-0.125,-0.095
5502,-0.115,-0.085
5503,-0.120,-0.085
5504,-0.125,-0.085
5505,-0.125,-0.095
5506,-0.125,-0.105
5507,-0.120,-0.100
5508,-0.115,-0.095
5509,-0.110,-0.090
5510,-0.105,-0.085
5511,-0.110,-0.085
5512,-0.115,-0.085
5513,-0.115,-0.095
5514,-0.115,-0.105
5515,-0.120,-0.100
5516,-0.120,-0.095
5517,-0.100,-0.085
5518,-0.085,-0.075
5519,-0.095,-0.085
5520,-0.105,-0.095
5521,-0.105,-0.100
5522,-0.100,-0.105
5523,-0.085,-0.105
5524,-0.065,-0.095
5525,-0.035,-0.065
5526,-0.015,-0.045
5527,0.005,-0.025
5528,0.005,-0.025
5529,-0.010,-0.040
5530,-0.030,-0.055
5531,-0.055,-0.075
5532,-0.065,-0.080
5533,-0.060,-0.070
5534,-0.065,-0.070
5535,-0.080,-0.080
5536,-0.085,-0.085
5537,-0.090,-0.090
5538,-0.095,-0.095
5539,-0.095,-0.100
5540,-0.100,-0.105
5541,-0.110,-0.100
5542,-0.115,-0.095
5543,-0.115,-0.095
5544,-0.115,-0.100
5545,-0.115,-0.105
5546,-0.120,-0.100
5547,-0.125,-0.095
5548,-0.120,-0.090
5549,-0.115,-0.085
5550,-0.110,-0.090
5551,-0.105,-0.095
5552,-0.105,-0.095
5553,-0.105,-0.095
5554,-0.100,-0.090
5555,-0.095,-0.085
5556,-0.090,-0.080
5557,-0.085,-0.075
5558,-0.095,-0.075
5559,-0.100,-0.075
5560,-0.080,-0.080
5561,-0.085,-0.080
5562,-0.130,-0.060
5563,-0.195,-0.035
5564,-0.275,-0.010
5565,-0.275,0.035
5566,-0.190,0.090
5567,0.045,0.160
5568,0.380,0.235
5569,0.840,0.170
5570,1.370,0.015
5571,1.475,-0.130
5572,1.380,-0.265
5573,0.845,-0.460
5574,0.150,-0.675
5575,-0.200,-0.685
5576,-0.450,-0.635
5577,-0.450,-0.490
5578,-0.395,-0.330
5579,-0.300,-0.220
5580,-0.195,-0.125
5581,-0.140,-0.080
5582,-0.090,-0.040
5583,-0.085,-0.035
5584,-0.085,-0.035
5585,-0.095,-0.040
5586,-0.105,-0.045
5587,-0.110,-0.045
5588,-0.115,-0.045
5589,-0.115,-0.055
5590,-0.115,-0.065
5591,-0.115,-0.055
5592,-0.115,-0.045
5593,-0.110,-0.045
5594,-0.105,-0.045
5595,-0.110,-0.045
5596,-0.115,-0.045
5597,-0.110,-0.050
5598,-0.105,-0.055
5599,-0.095,-0.045
5600,-0.085,-0.035
5601,-0.095,-0.035
5602,-0.105,-0.035
5603,-0.100,-0.035
5604,-0.095,-0.035
5605,-0.080,-0.035
5606,-0.080,-0.035
5607,-0.090,-0.035
5608,-0.090,-0.035
5609,-0.080,-0.030
5610,-0.075,-0.025
5611,-0.070,-0.030
5612,-0.065,-0.035
5613,-0.060,-0.035
5614,-0.050,-0.035
5615,-0.040,-0.030
5616,-0.035,-0.025
5617,-0.030,-0.025
5618,-0.025,-0.025
5619,-0.020,-0.020
5620,-0.015,-0.015
5621,-0.010,-0.020
5622,-0.005,-0.025
5623,-0.010,-0.020
5624,0.000,-0.010
5625,-0.015,-0.015
5626,0.035,0.000
5627,0.045,-0.005
5628,0.055,-0.005
5629,0.065,-0.005
5630,0.080,0.000
5631,0.095,0.005
5632,0.105,0.010
5633,0.115,0.015
5634,0.125,0.015
5635,0.135,0.015
5636,0.150,0.015
5637,0.165,0.015
5638,0.175,0.020
5639,0.190,0.025
5640,0.215,0.030
5641,0.240,0.035
5642,0.255,0.040
5643,0.265,0.045
5644,0.275,0.045
5645,0.290,0.045
5646,0.305,0.050
5647,0.315,0.060
5648,0.315,0.070
5649,0.315,0.075
5650,0.310,0.075
5651,0.295,0.070
5652,0.275,0.060
5653,0.240,0.055
5654,0.200,0.055
5655,0.175,0.050
5656,0.160,0.040
5657,0.135,0.035
5658,0.105,0.030
5659,0.075,0.010
5660,0.050,-0.010
5661,0.035,-0.015
5662,0.020,-0.020
5663,0.005,-0.025
5664,-0.010,-0.030
5665,-0.025,-0.035
5666,-0.040,-0.040
5667,-0.055,-0.055
5668,-0.065,-0.065
5669,-0.080,-0.070
5670,-0.095,-0.075
5671,-0.090,-0.065
5672,-0.085,-0.055
5673,-0.080,-0.060
5674,-0.075,-0.065
5675,-0.075,-0.070
5676,-0.075,-0.075
5677,-0.070,-0.075
5678,-0.065,-0.075
5679,-0.065,-0.065
5680,-0.065,-0.055
5681,-0.070,-0.055
5682,-0.075,-0.055
5683,-0.080,-0.065
5684,-0.085,-0.075
5685,-0.080,-0.070
5686,-0.075,-0.065
5687,-0.070,-0.060
5688,-0.065,-0.055
5689,-0.065,-0.055
5690,-0.065,-0.055
5691,-0.070,-0.060
5692,-0.075,-0.065
5693,-0.070,-0.060
5694,-0.065,-0.055
5695,-0.065,-0.055
5696,-0.065,-0.055
5697,-0.070,-0.055
5698,-0.075,-0.055
5699,-0.075,-0.055
5700,-0.075,-0.055
5701,-0.080,-0.060
5702,-0.085,-0.060
5703,-0.085,-0.050
5704,-0.085,-0.045
5705,-0.080,-0.050
5706,-0.075,-0.055
5707,-0.080,-0.060
5708,-0.085,-0.065
5709,-0.075,-0.065
5710,-0.075,-0.060
5711,-0.075,-0.055
5712,-0.075,-0.060
5713,-0.075,-0.065
5714,-0.080,-0.070
5715,-0.085,-0.075
5716,-0.095,-0.075
5717,-0.105,-0.075
5718,-0.095,-0.070
5719,-0.085,-0.065
5720,-0.090,-0.065
5721,-0.095,-0.065
5722,-0.095,-0.075
5723,-0.095,-0.085
5724,-0.085,-0.075
5725,-0.075,-0.065
5726,-0.075,-0.065
5727,-0.075,-0.065
5728,-0.080,-0.070
5729,-0.085,-0.075
5730,-0.085,-0.080
5731,-0.090,-0.085
5732,-0.100,-0.080
5733,-0.105,-0.075
5734,-0.100,-0.070
5735,-0.095,-0.065
5736,-0.090,-0.070
5737,-0.085,-0.075
5738,-0.090,-0.080
5739,-0.090,-0.085
5740,-0.080,-0.080
5741,-0.080,-0.075
5742,-0.090,-0.070
5743,-0.095,-0.065
5744,-0.095,-0.065
5745,-0.095,-0.070
5746,-0.095,-0.080
5747,-0.095,-0.085
5748,-0.100,-0.080
5749,-0.100,-0.075
5750,-0.105,-0.075
5751,-0.090,-0.065
5752,-0.095,-0.065
5753,-0.095,-0.075
5754,-0.095,-0.085
5755,-0.085,-0.075
5756,-0.075,-0.065
5757,-0.080,-0.070
5758,-0.085,-0.075
5759,-0.085,-0.075
5760,-0.085,-0.075
5761,-0.085,-0.080
5762,-0.085,-0.085
5763,-0.090,-0.080
5764,-0.095,-0.075
5765,-0.085,-0.070
5766,-0.075,-0.065
5767,-0.075,-0.070
5768,-0.075,-0.075
5769,-0.080,-0.080
5770,-0.085,-0.085
5771,-0.070,-0.080
5772,-0.070,-0.075
5773,-0.080,-0.070
5774,-0.085,-0.065
5775,-0.080,-0.065
5776,-0.075,-0.070
5777,-0.080,-0.080
5778,-0.085,-0.085
5779,-0.090,-0.080
5780,-0.090,-0.075
5781,-0.080,-0.070
5782,-0.075,-0.065
5783,-0.070,-0.065
5784,-0.065,-0.065
5785,-0.070,-0.070
5786,-0.075,-0.075
5787,-0.070,-0.075
5788,-0.065,-0.075
5789,-0.070,-0.070
5790,-0.075,-0.065
5791,-0.075,-0.065
5792,-0.075,-0.070
5793,-0.075,-0.075
5794,-0.080,-0.070
5795,-0.085,-0.065
5796,-0.075,-0.065
5797,-0.065,-0.065
5798,-0.060,-0.065
5799,-0.055,-0.065
5800,-0.065,-0.075
5801,-0.075,-0.085
5802,-0.055,-0.080
5803,-0.035,-0.075
5804,-0.020,-0.065
5805,0.000,-0.050
5806,0.035,-0.015
5807,0.060,0.005
5808,0.075,0.005
5809,0.070,0.000
5810,0.030,-0.020
5811,0.005,-0.035
5812,0.005,-0.035
5813,0.000,-0.035
5814,-0.010,-0.040
5815,-0.025,-0.055
5816,-0.045,-0.075
5817,-0.055,-0.085
5818,-0.050,-0.080
5819,-0.050,-0.075
5820,-0.060,-0.070
5821,-0.065,-0.070
5822,-0.070,-0.080
5823,-0.075,-0.085
5824,-0.080,-0.085
5825,-0.090,-0.085
5826,-0.100,-0.085
5827,-0.100,-0.085
5828,-0.090,-0.080
5829,-0.085,-0.075
5830,-0.085,-0.075
5831,-0.085,-0.075
5832,-0.085,-0.080
5833,-0.085,-0.085
5834,-0.085,-0.075
5835,-0.075,-0.070
5836,-0.065,-0.065
5837,-0.065,-0.065
5838,-0.065,-0.065
5839,-0.070,-0.065
5840,-0.075,-0.065
5841,-0.055,-0.065
5842,-0.040,-0.065
5843,-0.080,-0.045
5844,-0.135,-0.020
5845,-0.220,0.005
5846,-0.265,0.035
5847,-0.195,0.080
5848,-0.045,0.145
5849,0.260,0.235
5850,0.640,0.240
5851,1.145,0.090
5852,1.465,-0.050
5853,1.535,-0.175
5854,1.260,-0.330
5855,0.605,-0.515
5856,0.110,-0.630
5857,-0.245,-0.680
5858,-0.400,-0.630
5859,-0.415,-0.490
5860,-0.375,-0.355
5861,-0.285,-0.230
5862,-0.210,-0.145
5863,-0.140,-0.085
5864,-0.095,-0.050
5865,-0.065,-0.025
5866,-0.060,-0.015
5867,-0.070,-0.020
5868,-0.075,-0.025
5869,-0.080,-0.030
5870,-0.085,-0.035
5871,-0.090,-0.040
5872,-0.095,-0.045
5873,-0.090,-0.040
5874,-0.085,-0.035
5875,-0.085,-0.035
5876,-0.090,-0.025
5877,-0.085,-0.025
5878,-0.090,-0.030
5879,-0.095,-0.035
5880,-0.085,-0.030
5881,-0.075,-0.025
5882,-0.075,-0.025
5883,-0.075,-0.025
5884,-0.075,-0.025
5885,-0.075,-0.025
5886,-0.080,-0.030
5887,-0.085,-0.035
5888,-0.075,-0.030
5889,-0.065,-0.025
5890,-0.065,-0.020
5891,-0.065,-0.015
5892,-0.060,-0.020
5893,-0.055,-0.025
5894,-0.055,-0.030
5895,-0.050,-0.035
5896,-0.035,-0.020
5897,-0.025,-0.015
5898,-0.025,-0.010
5899,-0.025,-0.005
5900,-0.020,-0.005
5901,-0.015,-0.010
5902,-0.010,-0.020
5903,-0.005,-0.025
5904,-0.005,-0.020
5905,0.005,-0.010
5906,0.020,0.000
5907,0.030,0.005
5908,0.040,0.005
5909,0.045,0.005
5910,0.050,0.000
5911,0.070,0.000
5912,0.090,0.010
5913,0.095,0.015
5914,0.100,0.020
5915,0.115,0.025
5916,0.130,0.025
5917,0.150,0.025
5918,0.165,0.025
5919,0.170,0.025
5920,0.175,0.025
5921,0.200,0.040
5922,0.225,0.055
5923,0.240,0.055
5924,0.255,0.055
5925,0.270,0.050
5926,0.285,0.045
5927,0.305,0.055
5928,0.325,0.065
5929,0.330,0.075
5930,0.335,0.085
5931,0.315,0.085
5932,0.305,0.085
5933,0.295,0.075
5934,0.275,0.065
5935,0.245,0.065
5936,0.220,0.065
5937,0.200,0.065
5938,0.175,0.060
5939,0.150,0.045
5940,0.120,0.030
5941,0.090,0.015
5942,0.070,0.005
5943,0.055,0.000
5944,0.035,-0.010
5945,0.015,-0.020
5946,-0.005,-0.025
5947,-0.025,-0.030
5948,-0.040,-0.045
5949,-0.050,-0.060
5950,-0.060,-0.065
5951,-0.070,-0.065
5952,-0.070,-0.065
5953,-0.060,-0.060
5954,-0.055,-0.055
5955,-0.060,-0.055
5956,-0.065,-0.055
5957,-0.070,-0.060
5958,-0.075,-0.065
5959,-0.075,-0.065
5960,-0.070,-0.055
5961,-0.065,-0.045
5962,-0.065,-0.055
5963,-0.065,-0.065
5964,-0.070,-0.065
5965,-0.075,-0.065
5966,-0.070,-0.065
5967,-0.065,-0.065
5968,-0.070,-0.060
5969,-0.075,-0.055
5970,-0.070,-0.055
5971,-0.065,-0.055
5972,-0.070,-0.055
5973,-0.075,-0.055
5974,-0.075,-0.055
5975,-0.075,-0.055
5976,-0.075,-0.055
5977,-0.075,-0.055
5978,-0.075,-0.050
5979,-0.075,-0.045
5980,-0.080,-0.050
5981,-0.085,-0.055
5982,-0.080,-0.055
5983,-0.075,-0.055
5984,-0.080,-0.055
5985,-0.085,-0.055
5986,-0.085,-0.055
5987,-0.085,-0.055
5988,-0.085,-0.060
5989,-0.085,-0.065
5990,-0.090,-0.065
5991,-0.095,-0.065
5992,-0.090,-0.065
5993,-0.085,-0.065
5994,-0.090,-0.065
5995,-0.095,-0.065
5996,-0.095,-0.065
5997,-0.095,-0.070
5998,-0.090,-0.080
5999,-0.090,-0.085
6000,-0.085,-0.085
6001,-0.100,-0.070
6002,-0.095,-0.065
6003,-0.100,-0.070
6004,-0.105,-0.075
6005,-0.105,-0.080
6006,-0.105,-0.085
6007,-0.100,-0.080
6008,-0.095,-0.075
6009,-0.095,-0.075
6010,-0.095,-0.075
6011,-0.105,-0.080
6012,-0.115,-0.085
6013,-0.105,-0.085
6014,-0.095,-0.085
6015,-0.105,-0.085
6016,-0.115,-0.085
6017,-0.110,-0.080
6018,-0.105,-0.075
6019,-0.110,-0.080
6020,-0.115,-0.085
6021,-0.110,-0.085
6022,-0.105,-0.085
6023,-0.100,-0.080
6024,-0.095,-0.075
6025,-0.100,-0.080
6026,-0.105,-0.085
6027,-0.110,-0.090
6028,-0.110,-0.095
6029,-0.100,-0.090
6030,-0.095,-0.085
6031,-0.100,-0.080
6032,-0.105,-0.075
6033,-0.105,-0.080
6034,-0.105,-0.085
6035,-0.105,-0.090
6036,-0.105,-0.095
6037,-0.100,-0.095
6038,-0.095,-0.095
6039,-0.100,-0.090
6040,-0.105,-0.085
6041,-0.105,-0.085
6042,-0.105,-0.095
6043,-0.105,-0.105
6044,-0.115,-0.100
6045,-0.125,-0.095
6046,-0.115,-0.095
6047,-0.105,-0.095
6048,-0.105,-0.090
6049,-0.105,-0.085
6050,-0.105,-0.090
6051,-0.105,-0.095
6052,-0.100,-0.100
6053,-0.095,-0.105
6054,-0.100,-0.095
6055,-0.105,-0.085
6056,-0.100,-0.085
6057,-0.095,-0.085
6058,-0.100,-0.090
6059,-0.105,-0.095
6060,-0.110,-0.095
6061,-0.115,-0.095
6062,-0.110,-0.090
6063,-0.105,-0.085
6064,-0.100,-0.090
6065,-0.095,-0.095
6066,-0.095,-0.100
6067,-0.095,-0.105
6068,-0.090,-0.100
6069,-0.085,-0.095
6070,-0.085,-0.090
6071,-0.085,-0.085
6072,-0.090,-0.085
6073,-0.100,-0.090
6074,-0.110,-0.100
6075,-0.115,-0.105
6076,-0.115,-0.100
6077,-0.115,-0.095
6078,-0.110,-0.090
6079,-0.095,-0.085
6080,-0.080,-0.085
6081,-0.075,-0.085
6082,-0.080,-0.090
6083,-0.090,-0.095
6084,-0.105,-0.095
6085,-0.090,-0.095
6086,-0.075,-0.095
6087,-0.045,-0.080
6088,-0.015,-0.065
6089,0.010,-0.045
6090,0.035,-0.025
6091,0.035,-0.015
6092,0.035,-0.010
6093,0.015,-0.035
6094,-0.005,-0.055
6095,-0.015,-0.055
6096,-0.030,-0.060
6097,-0.050,-0.080
6098,-0.065,-0.095
6099,-0.075,-0.100
6100,-0.085,-0.105
6101,-0.095,-0.095
6102,-0.105,-0.085
6103,-0.105,-0.090
6104,-0.105,-0.095
6105,-0.110,-0.100
6106,-0.115,-0.105
6107,-0.120,-0.105
6108,-0.125,-0.105
6109,-0.120,-0.100
6110,-0.115,-0.095
6111,-0.110,-0.095
6112,-0.105,-0.095
6113,-0.110,-0.100
6114,-0.115,-0.105
6115,-0.115,-0.105
6116,-0.115,-0.105
6117,-0.110,-0.100
6118,-0.105,-0.095
6119,-0.110,-0.095
6120,-0.110,-0.095
6121,-0.100,-0.100
6122,-0.095,-0.105
6123,-0.090,-0.100
6124,-0.115,-0.075
6125,-0.085,-0.095
6126,-0.245,-0.030
6127,-0.335,-0.015
6128,-0.250,0.040
6129,-0.145,0.100
6130,0.220,0.175
6131,0.605,0.230
6132,1.130,0.105
6133,1.530,-0.015
6134,1.395,-0.150
6135,1.135,-0.305
6136,0.480,-0.535
6137,-0.065,-0.700
6138,-0.325,-0.675
6139,-0.495,-0.615
6140,-0.460,-0.495
6141,-0.405,-0.375
6142,-0.320,-0.270
6143,-0.240,-0.185
6144,-0.175,-0.125
6145,-0.125,-0.085
6146,-0.100,-0.060
6147,-0.090,-0.045
6148,-0.100,-0.050
6149,-0.110,-0.055
6150,-0.120,-0.060
6151,-0.125,-0.070
6152,-0.125,-0.080
6153,-0.130,-0.080
6154,-0.140,-0.070
6155,-0.145,-0.065
6156,-0.140,-0.065
6157,-0.135,-0.065
6158,-0.135,-0.065
6159,-0.135,-0.065
6160,-0.130,-0.070
6161,-0.120,-0.075
6162,-0.110,-0.070
6163,-0.105,-0.065
6164,-0.110,-0.060
6165,-0.115,-0.055
6166,-0.110,-0.060
6167,-0.110,-0.070
6168,-0.115,-0.075
6169,-0.120,-0.070
6170,-0.125,-0.065
6171,-0.115,-0.060
6172,-0.105,-0.055
6173,-0.105,-0.060
6174,-0.105,-0.065
6175,-0.100,-0.060
6176,-0.095,-0.055
6177,-0.090,-0.060
6178,-0.085,-0.065
6179,-0.075,-0.060
6180,-0.065,-0.055
6181,-0.065,-0.050
6182,-0.065,-0.045
6183,-0.060,-0.050
6184,-0.055,-0.055
6185,-0.055,-0.055
6186,-0.050,-0.055
6187,-0.035,-0.045
6188,-0.025,-0.035
6189,-0.020,-0.035
6190,-0.015,-0.035
6191,-0.010,-0.040
6192,0.000,-0.045
6193,0.015,-0.040
6194,0.035,-0.035
6195,0.055,-0.030
6196,0.065,-0.025
6197,0.070,-0.020
6198,0.085,-0.015
6199,0.100,-0.020
6200,0.105,-0.025
6201,0.110,-0.025
6202,0.135,-0.020
6203,0.160,-0.010
6204,0.180,-0.005
6205,0.200,0.000
6206,0.210,0.005
6207,0.220,0.000
6208,0.245,-0.005
6209,0.275,0.005
6210,0.285,0.015
6211,0.295,0.025
6212,0.285,0.030
6213,0.275,0.035
6214,0.270,0.030
6215,0.265,0.025
6216,0.245,0.025
6217,0.220,0.025
6218,0.195,0.025
6219,0.170,0.025
6220,0.140,0.015
6221,0.110,0.005
6222,0.080,-0.010
6223,0.050,-0.025
6224,0.035,-0.035
6225,0.015,-0.045
6226,-0.020,-0.050
6227,-0.045,-0.055
6228,-0.055,-0.065
6229,-0.070,-0.075
6230,-0.095,-0.090
6231,-0.105,-0.095
6232,-0.110,-0.095
6233,-0.115,-0.095
6234,-0.110,-0.090
6235,-0.110,-0.085
6236,-0.120,-0.090
6237,-0.125,-0.100
6238,-0.130,-0.110
6239,-0.125,-0.115
6240,-0.110,-0.110
6241,-0.105,-0.105
6242,-0.105,-0.100
6243,-0.110,-0.095
6244,-0.120,-0.095
6245,-0.125,-0.095
6246,-0.130,-0.100
6247,-0.135,-0.105
6248,-0.140,-0.105
6249,-0.140,-0.105
6250,-0.145,-0.105
6251,-0.125,-0.095
6252,-0.125,-0.095
6253,-0.125,-0.100
6254,-0.125,-0.105
6255,-0.125,-0.105
6256,-0.125,-0.105
6257,-0.125,-0.100
6258,-0.125,-0.095
6259,-0.125,-0.100
6260,-0.125,-0.105
6261,-0.130,-0.105
6262,-0.135,-0.105
6263,-0.140,-0.100
6264,-0.145,-0.095
6265,-0.145,-0.090
6266,-0.145,-0.085
6267,-0.135,-0.090
6268,-0.125,-0.095
6269,-0.130,-0.105
6270,-0.135,-0.115
6271,-0.135,-0.110
6272,-0.135,-0.105
6273,-0.135,-0.100
6274,-0.135,-0.095
6275,-0.140,-0.100
6276,-0.145,-0.105
6277,-0.145,-0.110
6278,-0.145,-0.115
6279,-0.150,-0.110
6280,-0.155,-0.105
6281,-0.150,-0.105
6282,-0.145,-0.105
6283,-0.145,-0.110
6284,-0.145,-0.115
6285,-0.150,-0.120
6286,-0.155,-0.125
6287,-0.150,-0.120
6288,-0.145,-0.115
6289,-0.140,-0.110
6290,-0.135,-0.105
6291,-0.140,-0.110
6292,-0.150,-0.120
6293,-0.155,-0.125
6294,-0.160,-0.120
6295,-0.165,-0.115
6296,-0.150,-0.110
6297,-0.135,-0.105
6298,-0.130,-0.105
6299,-0.125,-0.105
6300,-0.145,-0.115
6301,-0.165,-0.125
6302,-0.160,-0.120
6303,-0.155,-0.115
6304,-0.140,-0.115
6305,-0.120,-0.115
6306,-0.095,-0.110
6307,-0.070,-0.100
6308,-0.045,-0.075
6309,-0.025,-0.055
6310,-0.030,-0.050
6311,-0.040,-0.050
6312,-0.060,-0.065
6313,-0.075,-0.075
6314,-0.080,-0.080
6315,-0.090,-0.090
6316,-0.105,-0.105
6317,-0.120,-0.115
6318,-0.135,-0.120
6319,-0.150,-0.125
6320,-0.160,-0.120
6321,-0.160,-0.115
6322,-0.150,-0.120
6323,-0.150,-0.125
6324,-0.160,-0.130
6325,-0.170,-0.135
6326,-0.180,-0.130
6327,-0.175,-0.125
6328,-0.160,-0.120
6329,-0.155,-0.115
6330,-0.155,-0.120
6331,-0.155,-0.125
6332,-0.150,-0.130
6333,-0.145,-0.135
6334,-0.145,-0.125
6335,-0.145,-0.120
6336,-0.145,-0.115
6337,-0.145,-0.115
6338,-0.145,-0.115
6339,-0.145,-0.120
6340,-0.145,-0.125
6341,-0.145,-0.120
6342,-0.145,-0.115
6343,-0.130,-0.110
6344,-0.115,-0.105
6345,-0.115,-0.100
6346,-0.145,-0.095
6347,-0.245,-0.085
6348,-0.315,-0.070
6349,-0.315,-0.045
6350,-0.255,0.020
6351,-0.090,0.145
6352,0.220,0.215
6353,0.715,0.210
6354,1.205,0.140
6355,1.680,0.000
6356,1.615,-0.140
6357,1.070,-0.280
6358,0.515,-0.450
6359,-0.045,-0.640
6360,-0.340,-0.665
6361,-0.475,-0.575
6362,-0.495,-0.485
6363,-0.440,-0.395
6364,-0.360,-0.305
6365,-0.270,-0.220
6366,-0.200,-0.150
6367,-0.140,-0.090
6368,-0.125,-0.070
6369,-0.120,-0.060
6370,-0.120,-0.065
6371,-0.130,-0.080
6372,-0.145,-0.085
6373,-0.160,-0.090
6374,-0.165,-0.095
6375,-0.165,-0.095
6376,-0.155,-0.080
6377,-0.155,-0.075
6378,-0.155,-0.085
6379,-0.155,-0.095
6380,-0.145,-0.090
6381,-0.135,-0.085
6382,-0.135,-0.075
6383,-0.135,-0.065
6384,-0.135,-0.065
6385,-0.135,-0.065
6386,-0.135,-0.075
6387,-0.135,-0.085
6388,-0.135,-0.085
6389,-0.135,-0.085
6390,-0.125,-0.080
6391,-0.115,-0.075
6392,-0.115,-0.070
6393,-0.115,-0.065
6394,-0.110,-0.070
6395,-0.105,-0.075
6396,-0.090,-0.070
6397,-0.085,-0.065
6398,-0.085,-0.060
6399,-0.085,-0.055
6400,-0.085,-0.050
6401,-0.085,-0.050
6402,-0.085,-0.060
6403,-0.080,-0.065
6404,-0.070,-0.065
6405,-0.065,-0.060
6406,-0.060,-0.050
6407,-0.050,-0.045
6408,-0.040,-0.045
6409,-0.035,-0.045
6410,-0.030,-0.045
6411,-0.025,-0.045
6412,-0.020,-0.045
6413,-0.005,-0.045
6414,0.010,-0.040
6415,0.020,-0.035
6416,0.030,-0.035
6417,0.045,-0.035
6418,0.055,-0.035
6419,0.065,-0.030
6420,0.075,-0.025
6421,0.095,-0.015
6422,0.115,-0.005
6423,0.130,-0.010
6424,0.145,-0.015
6425,0.160,-0.015
6426,0.175,-0.015
6427,0.195,-0.015
6428,0.215,-0.015
6429,0.230,-0.005
6430,0.245,0.005
6431,0.250,0.010
6432,0.255,0.015
6433,0.255,0.015
6434,0.255,0.015
6435,0.250,0.020
6436,0.240,0.025
6437,0.220,0.030
6438,0.195,0.035
6439,0.175,0.030
6440,0.150,0.020
6441,0.120,0.005
6442,0.090,-0.005
6443,0.065,-0.010
6444,0.040,-0.015
6445,0.015,-0.020
6446,-0.010,-0.035
6447,-0.035,-0.050
6448,-0.060,-0.060
6449,-0.080,-0.070
6450,-0.085,-0.075
6451,-0.090,-0.080
6452,-0.100,-0.085
6453,-0.110,-0.080
6454,-0.115,-0.080
6455,-0.120,-0.090
6456,-0.125,-0.100
6457,-0.130,-0.110
6458,-0.125,-0.115
6459,-0.105,-0.105
6460,-0.110,-0.100
6461,-0.115,-0.095
6462,-0.125,-0.095
6463,-0.135,-0.095
6464,-0.135,-0.100
6465,-0.135,-0.105
