'sample interval','ECG1','ECG2'
'0.004 sec','mV','mV'
0,-0.155,-0.045
1,-0.150,-0.045
2,-0.145,-0.045
3,-0.160,-0.055
4,-0.175,-0.065
5,-0.165,-0.060
6,-0.155,-0.055
7,-0.155,-0.055
8,-0.155,-0.055
9,-0.145,-0.060
10,-0.135,-0.065
11,-0.150,-0.065
12,-0.165,-0.065
13,-0.160,-0.070
14,-0.155,-0.075
15,-0.155,-0.070
16,-0.155,-0.065
17,-0.160,-0.075
18,-0.165,-0.085
19,-0.175,-0.090
20,-0.185,-0.095
21,-0.185,-0.090
22,-0.185,-0.085
23,-0.185,-0.085
24,-0.190,-0.085
25,-0.200,-0.085
26,-0.200,-0.085
27,-0.190,-0.090
28,-0.185,-0.095
29,-0.190,-0.095
30,-0.185,-0.095
31,-0.170,-0.090
32,-0.165,-0.090
33,-0.170,-0.100
34,-0.185,-0.105
35,-0.200,-0.105
36,-0.200,-0.105
37,-0.190,-0.105
38,-0.185,-0.105
39,-0.185,-0.100
40,-0.185,-0.095
41,-0.185,-0.095
42,-0.190,-0.105
43,-0.195,-0.115
44,-0.190,-0.115
45,-0.185,-0.115
46,-0.185,-0.105
47,-0.185,-0.095
48,-0.185,-0.095
49,-0.185,-0.095
50,-0.190,-0.110
51,-0.195,-0.125
52,-0.185,-0.115
53,-0.175,-0.105
54,-0.170,-0.105
55,-0.165,-0.105
56,-0.170,-0.105
57,-0.175,-0.105
58,-0.180,-0.110
59,-0.185,-0.115
60,-0.175,-0.115
61,-0.165,-0.115
62,-0.160,-0.110
63,-0.155,-0.105
64,-0.160,-0.105
65,-0.165,-0.105
66,-0.170,-0.110
67,-0.170,-0.115
68,-0.160,-0.110
69,-0.160,-0.105
70,-0.170,-0.105
71,-0.165,-0.105
72,-0.150,-0.105
73,-0.145,-0.105
74,-0.150,-0.110
75,-0.155,-0.115
76,-0.160,-0.115
77,-0.160,-0.115
78,-0.150,-0.110
79,-0.145,-0.105
80,-0.150,-0.105
81,-0.155,-0.105
82,-0.155,-0.110
83,-0.150,-0.115
84,-0.135,-0.115
85,-0.140,-0.110
86,-0.145,-0.105
87,-0.140,-0.105
88,-0.135,-0.105
89,-0.140,-0.115
90,-0.145,-0.125
91,-0.140,-0.125
92,-0.135,-0.125
93,-0.130,-0.115
94,-0.125,-0.105
95,-0.130,-0.105
96,-0.135,-0.105
97,-0.135,-0.115
98,-0.135,-0.125
99,-0.130,-0.115
100,-0.125,-0.105
101,-0.130,-0.110
102,-0.135,-0.115
103,-0.125,-0.110
104,-0.115,-0.105
105,-0.130,-0.110
106,-0.135,-0.115
107,-0.130,-0.115
108,-0.120,-0.110
109,-0.110,-0.100
110,-0.105,-0.095
111,-0.110,-0.100
112,-0.115,-0.105
113,-0.120,-0.100
114,-0.115,-0.095
115,-0.100,-0.100
116,-0.095,-0.105
117,-0.090,-0.100
118,-0.065,-0.075
119,-0.030,-0.040
120,-0.025,-0.045
121,-0.020,-0.060
122,-0.015,-0.080
123,-0.015,-0.100
124,0.040,-0.085
125,-0.015,-0.105
126,0.090,-0.080
127,0.075,-0.105
128,0.015,-0.115
129,-0.045,-0.125
130,-0.050,-0.115
131,-0.055,-0.105
132,-0.060,-0.120
133,-0.065,-0.135
134,-0.075,-0.130
135,-0.085,-0.125
136,-0.110,-0.115
137,-0.125,-0.105
138,-0.130,-0.115
139,-0.135,-0.125
140,-0.135,-0.120
141,-0.135,-0.115
142,-0.135,-0.115
143,-0.135,-0.115
144,-0.135,-0.120
145,-0.135,-0.120
146,-0.135,-0.105
147,-0.140,-0.095
148,-0.150,-0.100
149,-0.150,-0.100
150,-0.140,-0.090
151,-0.140,-0.090
152,-0.150,-0.105
153,-0.155,-0.115
154,-0.150,-0.110
155,-0.130,-0.100
156,-0.105,-0.090
157,-0.125,-0.030
158,-0.175,0.045
159,-0.350,0.060
160,-0.560,0.050
161,-0.590,0.045
162,-0.580,0.040
163,-0.045,-0.350
164,0.555,-0.785
165,1.245,-0.890
166,1.940,-0.970
167,2.305,-0.735
168,2.655,-0.495
169,2.580,-0.570
170,2.430,-0.630
171,1.470,-0.440
172,0.585,-0.250
173,0.240,-0.125
174,-0.045,-0.015
175,-0.040,0.015
176,-0.040,0.035
177,-0.070,0.025
178,-0.100,0.015
179,-0.120,0.010
180,-0.140,0.005
181,-0.160,0.005
182,-0.180,0.005
183,-0.195,0.000
184,-0.205,-0.005
185,-0.200,-0.005
186,-0.195,-0.005
187,-0.190,0.005
188,-0.185,0.015
189,-0.190,0.015
190,-0.195,0.010
191,-0.195,0.000
192,-0.195,-0.005
193,-0.195,0.000
194,-0.195,0.005
195,-0.190,0.005
196,-0.185,0.005
197,-0.185,0.005
198,-0.185,0.005
199,-0.190,0.005
200,-0.185,0.005
201,-0.170,0.010
202,-0.155,0.015
203,-0.140,0.020
204,-0.135,0.025
205,-0.140,0.020
206,-0.145,0.015
207,-0.145,0.010
208,-0.145,0.010
209,-0.145,0.025
210,-0.125,0.025
211,-0.105,0.025
212,-0.095,0.030
213,-0.085,0.035
214,-0.080,0.030
215,-0.075,0.025
216,-0.060,0.030
217,-0.045,0.035
218,-0.025,0.040
219,-0.005,0.045
220,0.010,0.050
221,0.030,0.055
222,0.050,0.050
223,0.070,0.045
224,0.090,0.050
225,0.115,0.055
226,0.150,0.065
227,0.190,0.075
228,0.225,0.085
229,0.255,0.095
230,0.290,0.090
231,0.320,0.085
232,0.350,0.090
233,0.385,0.100
234,0.420,0.110
235,0.450,0.115
236,0.475,0.110
237,0.500,0.105
238,0.525,0.105
239,0.545,0.110
240,0.570,0.120
241,0.575,0.125
242,0.580,0.120
243,0.570,0.115
244,0.550,0.110
245,0.495,0.090
246,0.435,0.070
247,0.375,0.060
248,0.320,0.050
249,0.255,0.040
250,0.315,0.045
251,0.120,0.005
252,0.055,-0.015
253,-0.005,-0.030
254,-0.065,-0.045
255,-0.095,-0.045
256,-0.125,-0.045
257,-0.135,-0.050
258,-0.145,-0.055
259,-0.160,-0.060
260,-0.175,-0.065
261,-0.185,-0.070
262,-0.195,-0.075
263,-0.200,-0.075
264,-0.205,-0.075
265,-0.195,-0.065
266,-0.185,-0.055
267,-0.195,-0.065
268,-0.205,-0.075
269,-0.210,-0.075
270,-0.215,-0.075
271,-0.210,-0.070
272,-0.205,-0.065
273,-0.200,-0.065
274,-0.195,-0.065
275,-0.195,-0.060
276,-0.195,-0.060
277,-0.195,-0.070
278,-0.195,-0.075
279,-0.195,-0.070
280,-0.190,-0.065
281,-0.180,-0.060
282,-0.175,-0.055
283,-0.180,-0.060
284,-0.185,-0.065
285,-0.180,-0.070
286,-0.175,-0.075
287,-0.175,-0.070
288,-0.175,-0.065
289,-0.175,-0.065
290,-0.175,-0.065
291,-0.175,-0.060
292,-0.180,-0.065
293,-0.185,-0.075
294,-0.180,-0.070
295,-0.175,-0.065
296,-0.170,-0.065
297,-0.165,-0.065
298,-0.175,-0.070
299,-0.185,-0.075
300,-0.185,-0.075
301,-0.185,-0.075
302,-0.190,-0.080
303,-0.195,-0.085
304,-0.190,-0.085
305,-0.185,-0.085
306,-0.185,-0.090
307,-0.185,-0.095
308,-0.195,-0.095
309,-0.205,-0.095
310,-0.200,-0.095
311,-0.195,-0.095
312,-0.185,-0.090
313,-0.180,-0.090
314,-0.190,-0.100
315,-0.200,-0.105
316,-0.210,-0.110
317,-0.215,-0.115
318,-0.210,-0.115
319,-0.205,-0.115
320,-0.205,-0.115
321,-0.205,-0.115
322,-0.200,-0.110
323,-0.200,-0.110
324,-0.210,-0.120
325,-0.210,-0.125
326,-0.200,-0.120
327,-0.195,-0.115
328,-0.190,-0.110
329,-0.190,-0.105
330,-0.200,-0.110
331,-0.205,-0.115
332,-0.205,-0.120
333,-0.205,-0.125
334,-0.205,-0.125
335,-0.200,-0.120
336,-0.195,-0.115
337,-0.190,-0.110
338,-0.185,-0.105
339,-0.195,-0.115
340,-0.205,-0.125
341,-0.200,-0.125
342,-0.195,-0.125
343,-0.180,-0.115
344,-0.165,-0.105
345,-0.175,-0.110
346,-0.185,-0.115
347,-0.185,-0.120
348,-0.185,-0.125
349,-0.180,-0.120
350,-0.175,-0.115
351,-0.175,-0.115
352,-0.175,-0.115
353,-0.180,-0.115
354,-0.185,-0.115
355,-0.185,-0.130
356,-0.185,-0.135
357,-0.180,-0.130
358,-0.175,-0.120
359,-0.175,-0.110
360,-0.175,-0.105
361,-0.175,-0.110
362,-0.180,-0.120
363,-0.190,-0.130
364,-0.185,-0.135
365,-0.170,-0.130
366,-0.165,-0.125
367,-0.165,-0.120
368,-0.165,-0.115
369,-0.160,-0.110
370,-0.160,-0.110
371,-0.170,-0.120
372,-0.175,-0.125
373,-0.170,-0.125
374,-0.160,-0.120
375,-0.165,-0.125
376,-0.155,-0.110
377,-0.165,-0.115
378,-0.170,-0.115
379,-0.175,-0.115
380,-0.165,-0.115
381,-0.155,-0.115
382,-0.155,-0.115
383,-0.155,-0.115
384,-0.155,-0.115
385,-0.155,-0.115
386,-0.155,-0.120
387,-0.155,-0.125
388,-0.160,-0.125
389,-0.160,-0.125
390,-0.140,-0.115
391,-0.125,-0.105
392,-0.130,-0.110
393,-0.135,-0.115
394,-0.140,-0.115
395,-0.145,-0.115
396,-0.140,-0.120
397,-0.135,-0.120
398,-0.135,-0.110
399,-0.135,-0.100
400,-0.130,-0.090
401,-0.125,-0.085
402,-0.120,-0.090
403,-0.115,-0.105
404,-0.120,-0.120
405,-0.100,-0.095
406,-0.060,-0.050
407,-0.040,-0.035
408,-0.030,-0.040
409,-0.030,-0.065
410,-0.040,-0.100
411,-0.020,-0.095
412,0.010,-0.080
413,0.060,-0.075
414,0.110,-0.070
415,0.070,-0.085
416,0.020,-0.110
417,-0.035,-0.125
418,-0.085,-0.135
419,-0.080,-0.135
420,-0.075,-0.135
421,-0.080,-0.135
422,-0.085,-0.135
423,-0.110,-0.120
424,-0.135,-0.105
425,-0.135,-0.110
426,-0.135,-0.115
427,-0.140,-0.120
428,-0.145,-0.125
429,-0.150,-0.125
430,-0.155,-0.125
431,-0.150,-0.105
432,-0.145,-0.095
433,-0.145,-0.105
434,-0.145,-0.115
435,-0.150,-0.115
436,-0.155,-0.115
437,-0.150,-0.110
438,-0.145,-0.105
439,-0.145,-0.105
440,-0.150,-0.105
441,-0.160,-0.110
442,-0.160,-0.115
443,-0.145,-0.110
444,-0.135,-0.075
445,-0.140,-0.025
446,-0.270,0.015
447,-0.455,0.055
448,-0.560,0.065
449,-0.635,0.060
450,-0.335,-0.195
451,0.080,-0.515
452,0.795,-0.795
453,1.575,-1.070
454,2.060,-0.815
455,2.510,-0.485
456,2.640,-0.510
457,2.750,-0.570
458,1.970,-0.520
459,1.160,-0.455
460,0.565,-0.265
461,0.005,-0.085
462,-0.015,-0.020
463,-0.035,0.035
464,-0.045,0.025
465,-0.060,0.015
466,-0.095,0.000
467,-0.125,-0.015
468,-0.140,-0.005
469,-0.155,0.005
470,-0.170,0.000
471,-0.185,-0.005
472,-0.200,-0.010
473,-0.215,-0.015
474,-0.215,-0.010
475,-0.215,-0.005
476,-0.215,-0.005
477,-0.215,-0.005
478,-0.210,-0.005
479,-0.205,-0.005
480,-0.205,-0.005
481,-0.205,-0.005
482,-0.200,-0.005
483,-0.195,-0.005
484,-0.190,0.000
485,-0.185,0.005
486,-0.190,0.000
487,-0.195,-0.005
488,-0.200,-0.010
489,-0.200,-0.010
490,-0.190,0.000
491,-0.175,0.005
492,-0.160,0.000
493,-0.155,-0.005
494,-0.155,0.000
495,-0.155,0.000
496,-0.160,-0.010
497,-0.160,-0.010
498,-0.150,0.000
499,-0.120,0.005
500,-0.145,0.005
501,-0.085,0.015
502,-0.085,0.015
503,-0.085,0.015
504,-0.085,0.015
505,-0.065,0.010
506,-0.045,0.005
507,-0.030,0.015
508,-0.015,0.025
509,0.005,0.030
510,0.025,0.035
511,0.035,0.030
512,0.050,0.025
513,0.080,0.035
514,0.115,0.045
515,0.155,0.055
516,0.190,0.065
517,0.220,0.060
518,0.235,0.055
519,0.245,0.050
520,0.275,0.050
521,0.330,0.065
522,0.375,0.075
523,0.415,0.080
524,0.445,0.085
525,0.465,0.090
526,0.485,0.095
527,0.505,0.090
528,0.525,0.085
529,0.540,0.090
530,0.555,0.095
531,0.575,0.100
532,0.555,0.100
533,0.515,0.090
534,0.465,0.075
535,0.415,0.060
536,0.360,0.045
537,0.305,0.030
538,0.240,0.010
539,0.170,-0.010
540,0.095,-0.015
541,0.020,-0.020
542,-0.025,-0.045
543,-0.065,-0.065
544,-0.105,-0.075
545,-0.145,-0.085
546,-0.155,-0.080
547,-0.165,-0.075
548,-0.180,-0.080
549,-0.195,-0.085
550,-0.210,-0.095
551,-0.225,-0.105
552,-0.220,-0.100
553,-0.215,-0.095
554,-0.220,-0.095
555,-0.225,-0.095
556,-0.225,-0.095
557,-0.230,-0.095
558,-0.250,-0.095
559,-0.260,-0.095
560,-0.240,-0.095
561,-0.225,-0.095
562,-0.220,-0.085
563,-0.215,-0.075
564,-0.215,-0.080
565,-0.220,-0.090
566,-0.230,-0.100
567,-0.230,-0.100
568,-0.215,-0.090
569,-0.205,-0.085
570,-0.205,-0.090
571,-0.205,-0.095
572,-0.205,-0.090
573,-0.205,-0.085
574,-0.205,-0.090
575,-0.210,-0.095
576,-0.220,-0.095
577,-0.205,-0.090
578,-0.180,-0.080
579,-0.180,-0.080
580,-0.190,-0.090
581,-0.205,-0.095
582,-0.220,-0.100
583,-0.225,-0.105
584,-0.215,-0.115
585,-0.215,-0.110
586,-0.215,-0.105
587,-0.210,-0.105
588,-0.205,-0.105
589,-0.205,-0.115
590,-0.205,-0.125
591,-0.210,-0.120
592,-0.215,-0.115
593,-0.200,-0.105
594,-0.190,-0.095
595,-0.215,-0.110
596,-0.235,-0.125
597,-0.235,-0.135
598,-0.235,-0.145
599,-0.230,-0.140
600,-0.225,-0.135
601,-0.230,-0.135
602,-0.235,-0.135
603,-0.235,-0.130
604,-0.235,-0.125
605,-0.235,-0.130
606,-0.235,-0.135
607,-0.235,-0.140
608,-0.230,-0.145
609,-0.220,-0.140
610,-0.220,-0.135
611,-0.235,-0.135
612,-0.240,-0.135
613,-0.230,-0.140
614,-0.225,-0.145
615,-0.220,-0.140
616,-0.225,-0.135
617,-0.240,-0.135
618,-0.235,-0.135
619,-0.220,-0.135
620,-0.220,-0.140
621,-0.230,-0.150
622,-0.230,-0.150
623,-0.220,-0.140
624,-0.215,-0.135
625,-0.215,-0.135
626,-0.215,-0.135
627,-0.225,-0.135
628,-0.230,-0.145
629,-0.235,-0.155
630,-0.220,-0.150
631,-0.205,-0.145
632,-0.205,-0.150
633,-0.205,-0.155
634,-0.215,-0.150
635,-0.225,-0.145
636,-0.210,-0.145
637,-0.195,-0.145
638,-0.195,-0.140
639,-0.195,-0.135
640,-0.200,-0.140
641,-0.205,-0.145
642,-0.205,-0.145
643,-0.205,-0.145
644,-0.200,-0.150
645,-0.195,-0.155
646,-0.195,-0.150
647,-0.200,-0.145
648,-0.210,-0.145
649,-0.210,-0.145
650,-0.195,-0.145
651,-0.185,-0.145
652,-0.185,-0.145
653,-0.185,-0.145
654,-0.180,-0.140
655,-0.175,-0.135
656,-0.170,-0.135
657,-0.165,-0.135
658,-0.170,-0.140
659,-0.175,-0.145
660,-0.180,-0.145
661,-0.185,-0.145
662,-0.180,-0.145
663,-0.175,-0.145
664,-0.175,-0.140
665,-0.175,-0.135
666,-0.170,-0.130
667,-0.170,-0.135
668,-0.175,-0.145
669,-0.170,-0.145
670,-0.165,-0.145
671,-0.165,-0.135
672,-0.165,-0.125
673,-0.165,-0.130
674,-0.165,-0.135
675,-0.170,-0.140
676,-0.175,-0.145
677,-0.165,-0.135
678,-0.155,-0.125
679,-0.150,-0.130
680,-0.145,-0.135
681,-0.135,-0.130
682,-0.120,-0.120
683,-0.095,-0.100
684,-0.075,-0.085
685,-0.070,-0.085
686,-0.070,-0.090
687,-0.085,-0.110
688,-0.060,-0.120
689,0.010,-0.105
690,0.045,-0.100
691,0.050,-0.115
692,0.025,-0.125
693,-0.025,-0.130
694,-0.050,-0.135
695,-0.060,-0.135
696,-0.075,-0.140
697,-0.090,-0.150
698,-0.110,-0.155
699,-0.135,-0.155
700,-0.145,-0.145
701,-0.145,-0.130
702,-0.145,-0.125
703,-0.145,-0.130
704,-0.160,-0.140
705,-0.180,-0.150
706,-0.180,-0.155
707,-0.170,-0.155
708,-0.165,-0.155
709,-0.165,-0.145
710,-0.160,-0.140
711,-0.155,-0.135
712,-0.155,-0.135
713,-0.155,-0.135
714,-0.180,-0.140
715,-0.205,-0.145
716,-0.185,-0.140
717,-0.165,-0.135
718,-0.155,-0.130
719,-0.145,-0.125
720,-0.140,-0.125
721,-0.150,-0.110
722,-0.200,-0.055
723,-0.300,-0.015
724,-0.495,-0.010
725,-0.615,-0.005
726,-0.610,-0.005
727,-0.335,-0.155
728,0.290,-0.495
729,0.965,-0.670
730,1.700,-0.645
731,2.220,-0.575
732,2.550,-0.455
733,2.650,-0.460
734,2.570,-0.555
735,1.965,-0.550
736,1.050,-0.475
737,0.455,-0.335
738,0.020,-0.175
739,-0.080,-0.085
740,-0.045,-0.020
741,-0.050,-0.015
742,-0.080,-0.030
743,-0.105,-0.035
744,-0.130,-0.030
745,-0.150,-0.030
746,-0.170,-0.040
747,-0.175,-0.045
748,-0.180,-0.050
749,-0.185,-0.045
750,-0.185,-0.055
751,-0.200,-0.030
752,-0.205,-0.035
753,-0.220,-0.040
754,-0.235,-0.045
755,-0.220,-0.040
756,-0.205,-0.035
757,-0.205,-0.040
758,-0.205,-0.045
759,-0.200,-0.050
760,-0.195,-0.055
761,-0.190,-0.055
762,-0.185,-0.055
763,-0.175,-0.045
764,-0.165,-0.035
765,-0.160,-0.030
766,-0.160,-0.025
767,-0.175,-0.035
768,-0.185,-0.045
769,-0.190,-0.045
770,-0.185,-0.045
771,-0.160,-0.045
772,-0.145,-0.045
773,-0.145,-0.040
774,-0.135,-0.035
775,-0.115,-0.040
776,-0.110,-0.045
777,-0.125,-0.050
778,-0.115,-0.050
779,-0.085,-0.040
780,-0.065,-0.035
781,-0.050,-0.030
782,-0.040,-0.025
783,-0.030,-0.025
784,-0.015,-0.025
785,0.000,-0.030
786,0.020,-0.030
787,0.040,-0.020
788,0.070,-0.015
789,0.100,-0.015
790,0.115,-0.015
791,0.130,-0.015
792,0.170,-0.020
793,0.205,-0.025
794,0.235,-0.015
795,0.265,-0.005
796,0.305,0.005
797,0.345,0.015
798,0.385,0.010
799,0.415,0.005
800,0.430,0.000
801,0.450,-0.005
802,0.480,0.000
803,0.510,0.005
804,0.540,0.015
805,0.565,0.025
806,0.575,0.025
807,0.580,0.025
808,0.555,0.020
809,0.525,0.015
810,0.500,0.010
811,0.460,0.005
812,0.400,0.010
813,0.325,0.010
814,0.245,-0.005
815,0.170,-0.020
816,0.105,-0.035
817,0.045,-0.050
818,-0.005,-0.060
819,-0.050,-0.065
820,-0.090,-0.070
821,-0.120,-0.075
822,-0.145,-0.080
823,-0.165,-0.085
824,-0.180,-0.090
825,-0.190,-0.095
826,-0.200,-0.100
827,-0.215,-0.105
828,-0.230,-0.100
829,-0.225,-0.095
830,-0.210,-0.095
831,-0.210,-0.095
832,-0.220,-0.095
833,-0.225,-0.095
834,-0.215,-0.095
835,-0.215,-0.095
836,-0.215,-0.095
837,-0.215,-0.090
838,-0.215,-0.085
839,-0.210,-0.090
840,-0.205,-0.095
841,-0.205,-0.090
842,-0.205,-0.085
843,-0.210,-0.080
844,-0.215,-0.075
845,-0.215,-0.080
846,-0.215,-0.085
847,-0.215,-0.085
848,-0.215,-0.085
849,-0.205,-0.095
850,-0.200,-0.105
851,-0.215,-0.095
852,-0.225,-0.085
853,-0.220,-0.085
854,-0.215,-0.085
855,-0.220,-0.090
856,-0.225,-0.095
857,-0.220,-0.100
858,-0.210,-0.105
859,-0.195,-0.100
860,-0.190,-0.095
861,-0.200,-0.095
862,-0.210,-0.095
863,-0.220,-0.100
864,-0.225,-0.105
865,-0.220,-0.110
866,-0.215,-0.115
867,-0.210,-0.110
868,-0.210,-0.105
869,-0.220,-0.110
870,-0.225,-0.115
871,-0.230,-0.120
872,-0.235,-0.125
873,-0.230,-0.125
874,-0.225,-0.120
875,-0.225,-0.125
876,-0.230,-0.110
877,-0.225,-0.115
878,-0.235,-0.125
879,-0.245,-0.135
880,-0.245,-0.135
881,-0.245,-0.135
882,-0.250,-0.135
883,-0.255,-0.135
884,-0.255,-0.130
885,-0.255,-0.125
886,-0.260,-0.130
887,-0.265,-0.135
888,-0.255,-0.140
889,-0.245,-0.145
890,-0.240,-0.135
891,-0.235,-0.125
892,-0.235,-0.130
893,-0.235,-0.135
894,-0.245,-0.135
895,-0.255,-0.135
896,-0.250,-0.130
897,-0.245,-0.125
898,-0.240,-0.125
899,-0.235,-0.125
900,-0.235,-0.130
901,-0.235,-0.135
902,-0.240,-0.140
903,-0.245,-0.145
904,-0.245,-0.145
905,-0.240,-0.140
906,-0.230,-0.130
907,-0.225,-0.125
908,-0.225,-0.130
909,-0.225,-0.135
910,-0.230,-0.140
911,-0.235,-0.145
912,-0.235,-0.145
913,-0.230,-0.145
914,-0.220,-0.140
915,-0.215,-0.135
916,-0.210,-0.135
917,-0.220,-0.140
918,-0.235,-0.145
919,-0.225,-0.135
920,-0.215,-0.125
921,-0.200,-0.120
922,-0.185,-0.115
923,-0.175,-0.110
924,-0.165,-0.105
925,-0.135,-0.085
926,-0.115,-0.065
927,-0.110,-0.070
928,-0.105,-0.075
929,-0.115,-0.090
930,-0.110,-0.105
931,-0.055,-0.085
932,-0.015,-0.080
933,-0.005,-0.100
934,-0.005,-0.115
935,-0.045,-0.125
936,-0.065,-0.130
937,-0.065,-0.115
938,-0.080,-0.115
939,-0.115,-0.135
940,-0.145,-0.150
941,-0.170,-0.160
942,-0.185,-0.160
943,-0.190,-0.145
944,-0.195,-0.140
945,-0.190,-0.150
946,-0.185,-0.155
947,-0.190,-0.155
948,-0.195,-0.155
949,-0.200,-0.155
950,-0.205,-0.155
951,-0.200,-0.155
952,-0.190,-0.145
953,-0.180,-0.130
954,-0.180,-0.130
955,-0.190,-0.140
956,-0.195,-0.145
957,-0.200,-0.150
958,-0.200,-0.155
959,-0.185,-0.145
960,-0.190,-0.145
961,-0.195,-0.145
962,-0.180,-0.140
963,-0.165,-0.135
964,-0.160,-0.110
965,-0.180,-0.075
966,-0.360,-0.005
967,-0.520,0.060
968,-0.600,0.090
969,-0.590,0.065
970,-0.275,-0.145
971,0.185,-0.395
972,1.010,-0.750
973,1.725,-0.905
974,2.235,-0.665
975,2.590,-0.530
976,2.715,-0.570
977,2.435,-0.575
978,1.625,-0.525
979,0.900,-0.415
980,0.275,-0.240
981,-0.035,-0.115
982,-0.055,-0.040
983,-0.065,-0.005
984,-0.060,-0.005
985,-0.080,-0.010
986,-0.120,-0.025
987,-0.145,-0.040
988,-0.160,-0.050
989,-0.170,-0.050
990,-0.180,-0.040
991,-0.185,-0.035
992,-0.190,-0.035
993,-0.195,-0.035
994,-0.195,-0.030
995,-0.195,-0.030
996,-0.200,-0.040
997,-0.205,-0.045
998,-0.205,-0.040
999,-0.200,-0.030
1000,-0.205,-0.035
1001,-0.190,-0.020
1002,-0.195,-0.025
1003,-0.190,-0.030
1004,-0.185,-0.035
1005,-0.180,-0.035
1006,-0.175,-0.035
1007,-0.175,-0.030
1008,-0.175,-0.025
1009,-0.170,-0.020
1010,-0.165,-0.015
1011,-0.165,-0.025
1012,-0.165,-0.035
1013,-0.150,-0.030
1014,-0.130,-0.025
1015,-0.115,-0.015
1016,-0.105,-0.005
1017,-0.105,-0.015
1018,-0.105,-0.025
1019,-0.100,-0.025
1020,-0.090,-0.025
1021,-0.075,-0.020
1022,-0.060,-0.015
1023,-0.045,-0.010
1024,-0.030,-0.005
1025,-0.020,-0.005
1026,-0.010,-0.005
1027,0.000,-0.005
1028,0.025,-0.005
1029,0.055,0.000
1030,0.085,0.010
1031,0.115,0.020
1032,0.140,0.025
1033,0.160,0.020
1034,0.185,0.015
1035,0.220,0.015
1036,0.255,0.015
1037,0.290,0.020
1038,0.320,0.025
1039,0.350,0.030
1040,0.385,0.035
1041,0.420,0.035
1042,0.450,0.030
1043,0.475,0.025
1044,0.505,0.025
1045,0.535,0.025
1046,0.570,0.040
1047,0.605,0.055
1048,0.605,0.055
1049,0.605,0.055
1050,0.585,0.055
1051,0.555,0.055
1052,0.510,0.050
1053,0.460,0.045
1054,0.400,0.045
1055,0.335,0.045
1056,0.265,0.035
1057,0.190,0.020
1058,0.115,0.000
1059,0.045,-0.015
1060,-0.010,-0.025
1061,-0.055,-0.035
1062,-0.080,-0.040
1063,-0.105,-0.045
1064,-0.130,-0.050
1065,-0.150,-0.055
1066,-0.165,-0.060
1067,-0.175,-0.065
1068,-0.175,-0.065
1069,-0.175,-0.065
1070,-0.180,-0.065
1071,-0.185,-0.065
1072,-0.190,-0.065
1073,-0.195,-0.065
1074,-0.200,-0.065
1075,-0.205,-0.065
1076,-0.205,-0.065
1077,-0.200,-0.060
1078,-0.190,-0.050
1079,-0.185,-0.045
1080,-0.190,-0.045
1081,-0.195,-0.050
1082,-0.195,-0.060
1083,-0.195,-0.065
1084,-0.185,-0.055
1085,-0.190,-0.055
1086,-0.195,-0.055
1087,-0.190,-0.050
1088,-0.185,-0.045
1089,-0.185,-0.050
1090,-0.185,-0.055
1091,-0.185,-0.055
1092,-0.185,-0.055
1093,-0.180,-0.045
1094,-0.175,-0.035
1095,-0.170,-0.045
1096,-0.165,-0.055
1097,-0.175,-0.055
1098,-0.185,-0.055
1099,-0.180,-0.055
1100,-0.175,-0.055
1101,-0.180,-0.055
1102,-0.185,-0.055
1103,-0.180,-0.055
1104,-0.175,-0.055
1105,-0.180,-0.060
1106,-0.185,-0.065
1107,-0.190,-0.065
1108,-0.195,-0.065
1109,-0.190,-0.070
1110,-0.185,-0.075
1111,-0.190,-0.070
1112,-0.200,-0.075
1113,-0.210,-0.090
1114,-0.210,-0.095
1115,-0.200,-0.095
1116,-0.200,-0.090
1117,-0.210,-0.080
1118,-0.215,-0.075
1119,-0.210,-0.080
1120,-0.205,-0.090
1121,-0.210,-0.100
1122,-0.215,-0.105
1123,-0.210,-0.100
1124,-0.205,-0.095
1125,-0.205,-0.095
1126,-0.210,-0.090
1127,-0.215,-0.095
1128,-0.220,-0.105
1129,-0.225,-0.115
1130,-0.220,-0.110
1131,-0.215,-0.105
1132,-0.215,-0.105
1133,-0.215,-0.105
1134,-0.210,-0.100
1135,-0.205,-0.095
1136,-0.210,-0.105
1137,-0.215,-0.115
1138,-0.215,-0.115
1139,-0.210,-0.115
1140,-0.195,-0.105
1141,-0.185,-0.095
1142,-0.195,-0.100
1143,-0.205,-0.105
1144,-0.210,-0.105
1145,-0.215,-0.105
1146,-0.200,-0.105
1147,-0.195,-0.105
1148,-0.195,-0.110
1149,-0.195,-0.115
1150,-0.195,-0.110
1151,-0.200,-0.105
1152,-0.210,-0.110
1153,-0.205,-0.115
1154,-0.190,-0.115
1155,-0.185,-0.110
1156,-0.180,-0.100
1157,-0.175,-0.095
1158,-0.180,-0.100
1159,-0.185,-0.105
1160,-0.190,-0.110
1161,-0.195,-0.115
1162,-0.190,-0.110
1163,-0.185,-0.105
1164,-0.185,-0.105
1165,-0.185,-0.105
1166,-0.185,-0.100
1167,-0.180,-0.095
1168,-0.175,-0.095
1169,-0.175,-0.095
1170,-0.175,-0.095
1171,-0.145,-0.080
1172,-0.115,-0.065
1173,-0.095,-0.045
1174,-0.075,-0.025
1175,-0.085,-0.035
1176,-0.095,-0.050
1177,-0.090,-0.075
1178,-0.070,-0.095
1179,-0.010,-0.090
1180,0.035,-0.085
1181,0.015,-0.090
1182,-0.010,-0.095
1183,-0.055,-0.100
1184,-0.090,-0.105
1185,-0.105,-0.105
1186,-0.115,-0.105
1187,-0.110,-0.110
1188,-0.115,-0.115
1189,-0.140,-0.120
1190,-0.160,-0.120
1191,-0.170,-0.105
1192,-0.175,-0.100
1193,-0.180,-0.110
1194,-0.190,-0.115
1195,-0.200,-0.120
1196,-0.200,-0.125
1197,-0.190,-0.120
1198,-0.185,-0.115
1199,-0.190,-0.115
1200,-0.195,-0.115
1201,-0.195,-0.115
1202,-0.195,-0.110
1203,-0.190,-0.100
1204,-0.185,-0.095
1205,-0.190,-0.100
1206,-0.195,-0.110
1207,-0.195,-0.120
1208,-0.195,-0.125
1209,-0.185,-0.115
1210,-0.180,-0.120
1211,-0.175,-0.125
1212,-0.160,-0.110
1213,-0.150,-0.085
1214,-0.230,0.020
1215,-0.320,0.115
1216,-0.505,0.120
1217,-0.635,0.110
1218,-0.515,0.030
1219,-0.245,-0.160
1220,0.480,-0.660
1221,1.180,-1.005
1222,1.805,-0.970
1223,2.315,-0.885
1224,2.605,-0.700
1225,2.605,-0.590
1226,2.145,-0.610
1227,1.520,-0.520
1228,0.675,-0.275
1229,0.160,-0.105
1230,0.000,-0.020
1231,-0.075,0.025
1232,-0.070,0.025
1233,-0.075,0.025
1234,-0.105,0.020
1235,-0.135,0.015
1236,-0.170,0.010
1237,-0.195,0.005
1238,-0.215,0.000
1239,-0.225,0.000
1240,-0.230,0.010
1241,-0.235,0.015
1242,-0.235,0.010
1243,-0.235,0.005
1244,-0.235,0.010
1245,-0.235,0.010
1246,-0.235,0.000
1247,-0.235,-0.005
1248,-0.235,0.000
1249,-0.235,0.005
1250,-0.235,0.005
1251,-0.225,0.010
1252,-0.225,0.005
1253,-0.220,0.005
1254,-0.215,0.005
1255,-0.210,0.000
1256,-0.205,-0.005
1257,-0.200,0.005
1258,-0.195,0.015
1259,-0.190,0.015
1260,-0.185,0.015
1261,-0.180,0.010
1262,-0.175,0.005
1263,-0.175,0.010
1264,-0.175,0.015
1265,-0.165,0.020
1266,-0.150,0.025
1267,-0.135,0.030
1268,-0.125,0.035
1269,-0.120,0.030
1270,-0.115,0.025
1271,-0.100,0.030
1272,-0.085,0.035
1273,-0.065,0.040
1274,-0.050,0.045
1275,-0.035,0.045
1276,-0.020,0.045
1277,-0.005,0.045
1278,0.015,0.045
1279,0.035,0.050
1280,0.070,0.060
1281,0.105,0.070
1282,0.130,0.075
1283,0.155,0.080
1284,0.185,0.085
1285,0.220,0.080
1286,0.255,0.080
1287,0.290,0.090
1288,0.325,0.095
1289,0.360,0.100
1290,0.385,0.105
1291,0.410,0.100
1292,0.445,0.095
1293,0.475,0.095
1294,0.500,0.100
1295,0.525,0.105
1296,0.555,0.115
1297,0.585,0.125
1298,0.580,0.120
1299,0.570,0.115
1300,0.540,0.100
1301,0.505,0.085
1302,0.460,0.075
1303,0.410,0.065
1304,0.345,0.055
1305,0.275,0.045
1306,0.210,0.035
1307,0.140,0.020
1308,0.070,0.000
1309,0.010,-0.020
1310,-0.035,-0.035
1311,-0.075,-0.045
1312,-0.105,-0.050
1313,-0.140,-0.055
1314,-0.170,-0.060
1315,-0.190,-0.070
1316,-0.205,-0.080
1317,-0.215,-0.085
1318,-0.215,-0.080
1319,-0.215,-0.075
1320,-0.215,-0.075
1321,-0.215,-0.075
1322,-0.220,-0.075
1323,-0.225,-0.075
1324,-0.225,-0.080
1325,-0.225,-0.085
1326,-0.220,-0.085
1327,-0.215,-0.080
1328,-0.215,-0.070
1329,-0.215,-0.065
1330,-0.215,-0.070
1331,-0.215,-0.075
1332,-0.215,-0.075
1333,-0.215,-0.075
1334,-0.205,-0.085
1335,-0.200,-0.075
1336,-0.195,-0.065
1337,-0.195,-0.065
1338,-0.195,-0.065
1339,-0.195,-0.070
1340,-0.195,-0.075
1341,-0.195,-0.070
1342,-0.195,-0.065
1343,-0.190,-0.060
1344,-0.185,-0.055
1345,-0.185,-0.050
1346,-0.185,-0.045
1347,-0.190,-0.060
1348,-0.195,-0.075
1349,-0.190,-0.065
1350,-0.185,-0.055
1351,-0.185,-0.055
1352,-0.185,-0.055
1353,-0.185,-0.055
1354,-0.185,-0.055
1355,-0.190,-0.070
1356,-0.190,-0.075
1357,-0.180,-0.075
1358,-0.175,-0.075
1359,-0.180,-0.070
1360,-0.190,-0.065
1361,-0.200,-0.065
1362,-0.205,-0.075
1363,-0.205,-0.090
1364,-0.205,-0.095
1365,-0.205,-0.095
1366,-0.205,-0.095
1367,-0.205,-0.090
1368,-0.205,-0.085
1369,-0.205,-0.085
1370,-0.205,-0.085
1371,-0.210,-0.090
1372,-0.215,-0.095
1373,-0.215,-0.100
1374,-0.215,-0.105
1375,-0.215,-0.105
1376,-0.210,-0.105
1377,-0.215,-0.105
1378,-0.215,-0.110
1379,-0.215,-0.115
1380,-0.215,-0.110
1381,-0.215,-0.105
1382,-0.215,-0.105
1383,-0.215,-0.105
1384,-0.210,-0.100
1385,-0.205,-0.095
1386,-0.210,-0.110
1387,-0.215,-0.125
1388,-0.210,-0.120
1389,-0.205,-0.115
1390,-0.200,-0.110
1391,-0.195,-0.105
1392,-0.195,-0.105
1393,-0.195,-0.105
1394,-0.195,-0.110
1395,-0.195,-0.115
1396,-0.200,-0.115
1397,-0.205,-0.115
1398,-0.200,-0.115
1399,-0.195,-0.115
1400,-0.190,-0.115
1401,-0.185,-0.115
1402,-0.190,-0.120
1403,-0.195,-0.125
1404,-0.190,-0.120
1405,-0.185,-0.115
1406,-0.185,-0.110
1407,-0.185,-0.105
1408,-0.180,-0.105
1409,-0.175,-0.110
1410,-0.180,-0.120
1411,-0.180,-0.125
1412,-0.170,-0.120
1413,-0.165,-0.115
1414,-0.165,-0.110
1415,-0.165,-0.105
1416,-0.165,-0.105
1417,-0.160,-0.110
1418,-0.155,-0.115
1419,-0.160,-0.115
1420,-0.165,-0.115
1421,-0.160,-0.110
1422,-0.155,-0.105
1423,-0.155,-0.105
1424,-0.155,-0.105
1425,-0.155,-0.110
1426,-0.155,-0.115
1427,-0.145,-0.110
1428,-0.135,-0.105
1429,-0.135,-0.105
1430,-0.135,-0.105
1431,-0.135,-0.105
1432,-0.135,-0.105
1433,-0.145,-0.110
1434,-0.155,-0.115
1435,-0.145,-0.115
1436,-0.135,-0.115
1437,-0.130,-0.105
1438,-0.125,-0.095
1439,-0.130,-0.100
1440,-0.135,-0.105
1441,-0.135,-0.110
1442,-0.135,-0.115
1443,-0.130,-0.110
1444,-0.125,-0.105
1445,-0.125,-0.110
1446,-0.125,-0.110
1447,-0.120,-0.100
1448,-0.115,-0.095
1449,-0.120,-0.100
1450,-0.125,-0.105
1451,-0.120,-0.105
1452,-0.115,-0.105
1453,-0.110,-0.100
1454,-0.105,-0.095
1455,-0.110,-0.095
1456,-0.115,-0.095
1457,-0.120,-0.100
1458,-0.125,-0.105
1459,-0.115,-0.095
1460,-0.110,-0.095
1461,-0.105,-0.095
1462,-0.105,-0.090
1463,-0.105,-0.085
1464,-0.110,-0.090
1465,-0.115,-0.095
1466,-0.115,-0.095
1467,-0.115,-0.095
1468,-0.100,-0.090
1469,-0.085,-0.085
1470,-0.090,-0.085
1471,-0.095,-0.085
1472,-0.100,-0.095
1473,-0.105,-0.105
1474,-0.095,-0.100
1475,-0.085,-0.095
1476,-0.085,-0.095
1477,-0.085,-0.095
1478,-0.090,-0.085
1479,-0.095,-0.075
1480,-0.100,-0.090
1481,-0.105,-0.095
1482,-0.100,-0.095
1483,-0.090,-0.095
1484,-0.080,-0.090
1485,-0.075,-0.085
1486,-0.080,-0.085
1487,-0.085,-0.085
1488,-0.090,-0.090
1489,-0.095,-0.095
1490,-0.090,-0.090
1491,-0.085,-0.085
1492,-0.085,-0.085
1493,-0.085,-0.085
1494,-0.085,-0.085
1495,-0.085,-0.085
1496,-0.090,-0.085
1497,-0.090,-0.085
1498,-0.080,-0.085
1499,-0.075,-0.080
1500,-0.075,-0.085
1501,-0.070,-0.065
1502,-0.075,-0.065
1503,-0.080,-0.080
1504,-0.085,-0.095
1505,-0.080,-0.090
1506,-0.075,-0.085
1507,-0.075,-0.080
1508,-0.075,-0.075
1509,-0.075,-0.070
1510,-0.075,-0.065
1511,-0.075,-0.070
1512,-0.075,-0.075
1513,-0.075,-0.070
1514,-0.075,-0.065
1515,-0.070,-0.065
1516,-0.060,-0.065
1517,-0.040,-0.055
1518,-0.015,-0.045
1519,0.010,-0.035
1520,0.025,-0.025
1521,0.010,-0.040
1522,0.025,-0.040
1523,0.065,-0.025
1524,0.095,-0.025
1525,0.115,-0.055
1526,0.085,-0.080
1527,0.020,-0.105
1528,-0.015,-0.110
1529,-0.030,-0.100
1530,-0.035,-0.095
1531,-0.040,-0.090
1532,-0.045,-0.090
1533,-0.050,-0.100
1534,-0.070,-0.095
1535,-0.090,-0.080
1536,-0.095,-0.075
1537,-0.100,-0.080
1538,-0.100,-0.085
1539,-0.090,-0.085
1540,-0.085,-0.085
1541,-0.085,-0.085
1542,-0.085,-0.085
1543,-0.085,-0.085
1544,-0.075,-0.075
1545,-0.065,-0.065
1546,-0.080,-0.070
1547,-0.095,-0.075
1548,-0.095,-0.075
1549,-0.095,-0.075
1550,-0.095,-0.080
1551,-0.095,-0.085
1552,-0.090,-0.080
1553,-0.085,-0.075
1554,-0.085,-0.075
1555,-0.085,-0.075
1556,-0.075,-0.075
1557,-0.075,-0.050
1558,-0.110,0.020
1559,-0.215,0.070
1560,-0.420,0.085
1561,-0.535,0.095
1562,-0.525,0.090
1563,-0.245,-0.110
1564,0.295,-0.505
1565,0.920,-0.815
1566,1.605,-1.065
1567,2.105,-0.960
1568,2.485,-0.615
1569,2.635,-0.510
1570,2.655,-0.560
1571,2.040,-0.485
1572,1.130,-0.355
1573,0.555,-0.200
1574,0.105,-0.040
1575,0.020,0.030
1576,0.040,0.075
1577,0.025,0.075
1578,0.000,0.060
1579,-0.035,0.055
1580,-0.070,0.050
1581,-0.095,0.040
1582,-0.120,0.030
1583,-0.135,0.030
1584,-0.155,0.045
1585,-0.155,0.050
1586,-0.155,0.055
1587,-0.160,0.050
1588,-0.165,0.045
1589,-0.170,0.035
1590,-0.175,0.025
1591,-0.175,0.035
1592,-0.175,0.045
1593,-0.170,0.045
1594,-0.165,0.045
1595,-0.165,0.045
1596,-0.165,0.045
1597,-0.170,0.035
1598,-0.175,0.025
1599,-0.165,0.025
1600,-0.155,0.025
1601,-0.150,0.035
1602,-0.145,0.045
1603,-0.145,0.045
1604,-0.145,0.045
1605,-0.145,0.030
1606,-0.140,0.030
1607,-0.125,0.040
1608,-0.115,0.045
1609,-0.110,0.050
1610,-0.105,0.055
1611,-0.100,0.050
1612,-0.095,0.045
1613,-0.090,0.040
1614,-0.080,0.035
1615,-0.070,0.040
1616,-0.055,0.045
1617,-0.040,0.050
1618,-0.025,0.055
1619,-0.010,0.060
1620,0.005,0.060
1621,0.020,0.050
1622,0.040,0.050
1623,0.060,0.060
1624,0.080,0.070
1625,0.065,0.065
1626,0.125,0.090
1627,0.145,0.095
1628,0.170,0.090
1629,0.195,0.085
1630,0.230,0.095
1631,0.270,0.105
1632,0.305,0.115
1633,0.340,0.125
1634,0.370,0.125
1635,0.400,0.125
1636,0.425,0.125
1637,0.450,0.125
1638,0.480,0.130
1639,0.515,0.135
1640,0.545,0.145
1641,0.570,0.155
1642,0.600,0.150
1643,0.615,0.145
1644,0.610,0.135
1645,0.595,0.125
1646,0.560,0.120
1647,0.525,0.110
1648,0.480,0.095
1649,0.425,0.080
1650,0.370,0.065
1651,0.305,0.045
1652,0.230,0.025
1653,0.165,0.005
1654,0.105,-0.010
1655,0.055,-0.020
1656,0.010,-0.030
1657,-0.035,-0.040
1658,-0.075,-0.050
1659,-0.100,-0.060
1660,-0.120,-0.070
1661,-0.135,-0.075
1662,-0.150,-0.080
1663,-0.155,-0.085
1664,-0.160,-0.080
1665,-0.165,-0.075
1666,-0.165,-0.080
1667,-0.170,-0.090
1668,-0.175,-0.095
1669,-0.180,-0.090
1670,-0.185,-0.085
1671,-0.180,-0.080
1672,-0.175,-0.075
1673,-0.175,-0.085
1674,-0.175,-0.095
1675,-0.180,-0.095
1676,-0.185,-0.095
1677,-0.180,-0.090
1678,-0.175,-0.085
1679,-0.170,-0.080
1680,-0.165,-0.075
1681,-0.165,-0.075
1682,-0.165,-0.075
1683,-0.165,-0.080
1684,-0.165,-0.085
1685,-0.160,-0.080
1686,-0.155,-0.075
1687,-0.155,-0.070
1688,-0.155,-0.065
1689,-0.160,-0.065
1690,-0.165,-0.065
1691,-0.165,-0.065
1692,-0.165,-0.065
1693,-0.165,-0.065
1694,-0.165,-0.065
1695,-0.165,-0.065
1696,-0.165,-0.065
1697,-0.165,-0.070
1698,-0.165,-0.075
1699,-0.165,-0.080
1700,-0.165,-0.085
1701,-0.165,-0.080
1702,-0.165,-0.075
1703,-0.165,-0.080
1704,-0.165,-0.085
1705,-0.170,-0.085
1706,-0.175,-0.095
1707,-0.180,-0.110
1708,-0.185,-0.110
1709,-0.175,-0.095
1710,-0.175,-0.095
1711,-0.175,-0.095
1712,-0.180,-0.095
1713,-0.185,-0.095
1714,-0.190,-0.105
1715,-0.195,-0.115
1716,-0.190,-0.120
1717,-0.185,-0.125
1718,-0.185,-0.115
1719,-0.185,-0.105
1720,-0.190,-0.115
1721,-0.195,-0.125
1722,-0.195,-0.130
1723,-0.195,-0.135
1724,-0.200,-0.125
1725,-0.205,-0.115
1726,-0.195,-0.120
1727,-0.185,-0.125
1728,-0.185,-0.130
1729,-0.185,-0.135
1730,-0.190,-0.140
1731,-0.195,-0.145
1732,-0.200,-0.140
1733,-0.205,-0.135
1734,-0.200,-0.130
1735,-0.195,-0.125
1736,-0.195,-0.130
1737,-0.195,-0.135
1738,-0.195,-0.140
1739,-0.195,-0.145
1740,-0.195,-0.145
1741,-0.195,-0.135
1742,-0.190,-0.120
1743,-0.185,-0.120
1744,-0.185,-0.130
1745,-0.195,-0.135
1746,-0.210,-0.140
1747,-0.210,-0.145
1748,-0.200,-0.140
1749,-0.195,-0.135
1750,-0.195,-0.135
1751,-0.185,-0.120
1752,-0.185,-0.115
1753,-0.190,-0.125
1754,-0.195,-0.135
1755,-0.185,-0.130
1756,-0.175,-0.125
1757,-0.175,-0.125
1758,-0.175,-0.125
1759,-0.175,-0.125
1760,-0.175,-0.125
1761,-0.180,-0.135
1762,-0.185,-0.145
1763,-0.180,-0.135
1764,-0.175,-0.125
1765,-0.170,-0.125
1766,-0.165,-0.125
1767,-0.170,-0.130
1768,-0.175,-0.135
1769,-0.180,-0.135
1770,-0.185,-0.135
1771,-0.170,-0.135
1772,-0.165,-0.135
1773,-0.165,-0.135
1774,-0.165,-0.135
1775,-0.170,-0.130
1776,-0.175,-0.130
1777,-0.175,-0.140
1778,-0.170,-0.145
1779,-0.160,-0.140
1780,-0.155,-0.135
1781,-0.150,-0.130
1782,-0.145,-0.125
1783,-0.150,-0.125
1784,-0.155,-0.125
1785,-0.160,-0.130
1786,-0.165,-0.135
1787,-0.165,-0.135
1788,-0.155,-0.135
1789,-0.140,-0.135
1790,-0.145,-0.135
1791,-0.160,-0.130
1792,-0.165,-0.130
1793,-0.165,-0.135
1794,-0.155,-0.130
1795,-0.145,-0.125
1796,-0.140,-0.125
1797,-0.135,-0.125
1798,-0.140,-0.125
1799,-0.145,-0.125
1800,-0.145,-0.130
1801,-0.145,-0.135
1802,-0.140,-0.135
1803,-0.135,-0.135
1804,-0.135,-0.130
1805,-0.135,-0.125
1806,-0.125,-0.120
1807,-0.115,-0.120
1808,-0.125,-0.135
1809,-0.135,-0.140
1810,-0.125,-0.120
1811,-0.100,-0.100
1812,-0.060,-0.080
1813,-0.040,-0.070
1814,-0.055,-0.080
1815,-0.055,-0.085
1816,-0.030,-0.080
1817,0.010,-0.080
1818,0.055,-0.090
1819,0.045,-0.110
1820,-0.005,-0.145
1821,-0.035,-0.150
1822,-0.055,-0.140
1823,-0.075,-0.140
1824,-0.090,-0.150
1825,-0.100,-0.155
1826,-0.110,-0.155
1827,-0.120,-0.150
1828,-0.130,-0.140
1829,-0.140,-0.135
1830,-0.150,-0.135
1831,-0.160,-0.135
1832,-0.170,-0.140
1833,-0.170,-0.145
1834,-0.155,-0.135
1835,-0.150,-0.130
1836,-0.145,-0.125
1837,-0.145,-0.125
1838,-0.145,-0.125
1839,-0.155,-0.130
1840,-0.165,-0.135
1841,-0.170,-0.130
1842,-0.175,-0.125
1843,-0.165,-0.130
1844,-0.155,-0.135
1845,-0.155,-0.130
1846,-0.155,-0.125
1847,-0.150,-0.125
1848,-0.140,-0.120
1849,-0.120,-0.105
1850,-0.155,-0.070
1851,-0.280,-0.005
1852,-0.415,0.035
1853,-0.565,0.040
1854,-0.565,0.010
1855,-0.390,-0.065
1856,0.135,-0.305
1857,0.965,-0.685
1858,1.630,-0.735
1859,2.175,-0.540
1860,2.525,-0.465
1861,2.750,-0.460
1862,2.430,-0.520
1863,1.835,-0.615
1864,1.125,-0.510
1865,0.365,-0.315
1866,0.095,-0.180
1867,-0.020,-0.070
1868,-0.035,-0.025
1869,-0.020,0.010
1870,-0.045,-0.005
1871,-0.080,-0.030
1872,-0.110,-0.035
1873,-0.140,-0.040
1874,-0.150,-0.040
1875,-0.145,-0.045
1876,-0.180,-0.030
1877,-0.195,-0.035
1878,-0.200,-0.040
1879,-0.205,-0.045
1880,-0.200,-0.040
1881,-0.195,-0.035
1882,-0.190,-0.035
1883,-0.185,-0.035
1884,-0.185,-0.035
1885,-0.185,-0.035
1886,-0.185,-0.035
1887,-0.185,-0.035
1888,-0.185,-0.035
1889,-0.185,-0.035
1890,-0.180,-0.040
1891,-0.175,-0.045
1892,-0.180,-0.045
1893,-0.185,-0.045
1894,-0.175,-0.045
1895,-0.165,-0.045
1896,-0.150,-0.045
1897,-0.145,-0.045
1898,-0.140,-0.045
1899,-0.135,-0.045
1900,-0.135,-0.045
1901,-0.135,-0.045
1902,-0.135,-0.050
1903,-0.125,-0.055
1904,-0.110,-0.055
1905,-0.100,-0.050
1906,-0.090,-0.040
1907,-0.085,-0.035
1908,-0.080,-0.035
1909,-0.070,-0.040
1910,-0.060,-0.050
1911,-0.035,-0.050
1912,-0.010,-0.040
1913,0.000,-0.035
1914,0.010,-0.035
1915,0.030,-0.030
1916,0.050,-0.020
1917,0.070,-0.025
1918,0.085,-0.035
1919,0.115,-0.025
1920,0.145,-0.015
1921,0.180,-0.005
1922,0.215,0.005
1923,0.245,0.005
1924,0.280,0.005
1925,0.315,0.000
1926,0.350,-0.005
1927,0.390,-0.010
1928,0.430,-0.015
1929,0.460,-0.005
1930,0.490,0.005
1931,0.515,0.005
1932,0.540,0.005
1933,0.555,0.010
1934,0.570,0.015
1935,0.590,0.010
1936,0.605,0.010
1937,0.605,0.025
1938,0.580,0.030
1939,0.530,0.020
1940,0.475,0.015
1941,0.420,0.010
1942,0.360,0.000
1943,0.290,-0.015
1944,0.225,-0.030
1945,0.160,-0.040
1946,0.095,-0.050
1947,0.035,-0.060
1948,-0.015,-0.075
1949,-0.060,-0.090
1950,-0.090,-0.095
1951,-0.110,-0.100
1952,-0.130,-0.100
1953,-0.150,-0.090
1954,-0.165,-0.090
1955,-0.180,-0.100
1956,-0.190,-0.110
1957,-0.200,-0.120
1958,-0.205,-0.125
1959,-0.205,-0.115
1960,-0.205,-0.110
1961,-0.205,-0.105
1962,-0.205,-0.105
1963,-0.205,-0.105
1964,-0.210,-0.110
1965,-0.215,-0.115
1966,-0.215,-0.120
1967,-0.215,-0.125
1968,-0.205,-0.110
1969,-0.195,-0.095
1970,-0.200,-0.100
1971,-0.205,-0.105
1972,-0.205,-0.105
1973,-0.205,-0.105
1974,-0.200,-0.110
1975,-0.195,-0.115
1976,-0.190,-0.105
1977,-0.185,-0.095
1978,-0.195,-0.100
1979,-0.205,-0.105
1980,-0.205,-0.110
1981,-0.205,-0.115
1982,-0.200,-0.110
1983,-0.190,-0.105
1984,-0.180,-0.100
1985,-0.175,-0.095
1986,-0.180,-0.100
1987,-0.190,-0.105
1988,-0.200,-0.110
1989,-0.200,-0.115
1990,-0.190,-0.110
1991,-0.185,-0.105
1992,-0.185,-0.105
1993,-0.185,-0.105
1994,-0.190,-0.105
1995,-0.195,-0.110
1996,-0.195,-0.120
1997,-0.195,-0.125
1998,-0.200,-0.125
1999,-0.205,-0.125
2000,-0.205,-0.125
2001,-0.210,-0.125
2002,-0.215,-0.135
2003,-0.215,-0.135
2004,-0.215,-0.135
2005,-0.210,-0.135
2006,-0.205,-0.135
2007,-0.215,-0.130
2008,-0.225,-0.125
2009,-0.220,-0.130
2010,-0.215,-0.135
2011,-0.220,-0.145
2012,-0.225,-0.155
2013,-0.225,-0.150
2014,-0.225,-0.145
2015,-0.215,-0.140
2016,-0.205,-0.135
2017,-0.215,-0.135
2018,-0.225,-0.135
2019,-0.225,-0.145
2020,-0.225,-0.155
2021,-0.225,-0.150
2022,-0.225,-0.145
2023,-0.220,-0.140
2024,-0.215,-0.135
2025,-0.215,-0.135
2026,-0.215,-0.140
2027,-0.215,-0.150
2028,-0.215,-0.155
2029,-0.220,-0.155
2030,-0.225,-0.155
2031,-0.220,-0.150
2032,-0.215,-0.145
2033,-0.215,-0.145
2034,-0.215,-0.145
2035,-0.210,-0.150
2036,-0.205,-0.155
2037,-0.205,-0.150
2038,-0.205,-0.145
2039,-0.205,-0.145
2040,-0.205,-0.145
2041,-0.205,-0.145
2042,-0.205,-0.150
2043,-0.205,-0.155
2044,-0.200,-0.150
2045,-0.195,-0.145
2046,-0.195,-0.145
2047,-0.195,-0.145
2048,-0.195,-0.145
2049,-0.195,-0.145
2050,-0.190,-0.150
2051,-0.185,-0.155
2052,-0.185,-0.150
2053,-0.185,-0.145
2054,-0.180,-0.145
2055,-0.175,-0.145
2056,-0.175,-0.145
2057,-0.175,-0.145
2058,-0.180,-0.145
2059,-0.185,-0.145
2060,-0.175,-0.145
2061,-0.165,-0.145
2062,-0.155,-0.145
2063,-0.145,-0.140
2064,-0.140,-0.125
2065,-0.125,-0.115
2066,-0.100,-0.110
2067,-0.085,-0.105
2068,-0.090,-0.110
2069,-0.080,-0.110
2070,-0.045,-0.090
2071,-0.015,-0.095
2072,0.025,-0.110
2073,0.005,-0.135
2074,-0.040,-0.165
2075,-0.070,-0.165
2076,-0.090,-0.150
2077,-0.095,-0.145
2078,-0.100,-0.150
2079,-0.105,-0.155
2080,-0.110,-0.160
2081,-0.135,-0.160
2082,-0.160,-0.150
2083,-0.165,-0.145
2084,-0.165,-0.155
2085,-0.160,-0.155
2086,-0.155,-0.155
2087,-0.155,-0.155
2088,-0.155,-0.155
2089,-0.165,-0.155
2090,-0.175,-0.155
2091,-0.170,-0.155
2092,-0.165,-0.155
2093,-0.160,-0.145
2094,-0.155,-0.135
2095,-0.155,-0.140
2096,-0.155,-0.145
2097,-0.160,-0.150
2098,-0.165,-0.155
2099,-0.160,-0.150
2100,-0.155,-0.145
2101,-0.145,-0.145
2102,-0.135,-0.140
2103,-0.125,-0.120
2104,-0.155,-0.070
2105,-0.250,0.005
2106,-0.380,0.045
2107,-0.545,0.050
2108,-0.575,0.055
2109,-0.505,0.050
2110,0.000,-0.230
2111,0.760,-0.675
2112,1.450,-0.805
2113,2.100,-0.775
2114,2.480,-0.700
2115,2.760,-0.610
2116,2.485,-0.605
2117,2.040,-0.635
2118,1.285,-0.495
2119,0.455,-0.305
2120,0.160,-0.180
2121,-0.045,-0.070
2122,-0.045,-0.035
2123,-0.020,-0.010
2124,-0.035,-0.005
2125,-0.015,-0.005
2126,-0.100,-0.025
2127,-0.135,-0.035
2128,-0.160,-0.040
2129,-0.185,-0.045
2130,-0.180,-0.040
2131,-0.175,-0.035
2132,-0.175,-0.030
2133,-0.175,-0.025
2134,-0.180,-0.020
2135,-0.185,-0.015
2136,-0.190,-0.025
2137,-0.195,-0.035
2138,-0.190,-0.035
2139,-0.180,-0.035
2140,-0.165,-0.025
2141,-0.155,-0.015
2142,-0.165,-0.015
2143,-0.175,-0.015
2144,-0.175,-0.025
2145,-0.175,-0.035
2146,-0.170,-0.035
2147,-0.165,-0.035
2148,-0.160,-0.035
2149,-0.150,-0.035
2150,-0.140,-0.030
2151,-0.135,-0.025
2152,-0.135,-0.025
2153,-0.130,-0.025
2154,-0.120,-0.025
2155,-0.105,-0.020
2156,-0.090,-0.010
2157,-0.085,-0.005
2158,-0.085,-0.010
2159,-0.085,-0.015
2160,-0.080,-0.015
2161,-0.060,-0.015
2162,-0.040,-0.015
2163,-0.030,-0.015
2164,-0.020,-0.010
2165,0.000,0.000
2166,0.020,0.010
2167,0.035,0.010
2168,0.045,0.005
2169,0.070,0.005
2170,0.095,0.005
2171,0.130,0.015
2172,0.165,0.025
2173,0.180,0.030
2174,0.200,0.035
2175,0.235,0.030
2176,0.270,0.025
2177,0.300,0.035
2178,0.335,0.045
2179,0.380,0.045
2180,0.420,0.045
2181,0.445,0.050
2182,0.470,0.055
2183,0.495,0.050
2184,0.525,0.045
2185,0.550,0.045
2186,0.580,0.045
2187,0.615,0.055
2188,0.635,0.065
2189,0.630,0.070
2190,0.610,0.075
2191,0.580,0.070
2192,0.535,0.060
2193,0.485,0.050
2194,0.420,0.045
2195,0.340,0.040
2196,0.265,0.025
2197,0.190,0.010
2198,0.120,-0.010
2199,0.050,-0.030
2200,-0.005,-0.035
2201,-0.055,-0.040
2202,-0.085,-0.045
2203,-0.110,-0.045
2204,-0.125,-0.050
2205,-0.140,-0.060
2206,-0.160,-0.070
2207,-0.180,-0.080
2208,-0.185,-0.085
2209,-0.185,-0.075
2210,-0.190,-0.075
2211,-0.195,-0.075
2212,-0.190,-0.075
2213,-0.185,-0.075
2214,-0.190,-0.080
2215,-0.195,-0.085
2216,-0.195,-0.080
2217,-0.195,-0.075
2218,-0.190,-0.070
2219,-0.185,-0.065
2220,-0.190,-0.065
2221,-0.195,-0.065
2222,-0.195,-0.070
2223,-0.195,-0.075
2224,-0.195,-0.070
2225,-0.195,-0.065
2226,-0.190,-0.065
2227,-0.185,-0.065
2228,-0.180,-0.060
2229,-0.175,-0.055
2230,-0.175,-0.060
2231,-0.175,-0.065
2232,-0.175,-0.065
2233,-0.170,-0.060
2234,-0.160,-0.050
2235,-0.155,-0.045
2236,-0.160,-0.050
2237,-0.165,-0.055
2238,-0.170,-0.060
2239,-0.175,-0.065
2240,-0.170,-0.065
2241,-0.165,-0.065
2242,-0.165,-0.060
2243,-0.165,-0.055
2244,-0.165,-0.060
2245,-0.165,-0.065
2246,-0.170,-0.065
2247,-0.175,-0.065
2248,-0.175,-0.065
2249,-0.175,-0.065
2250,-0.175,-0.065
2251,-0.185,-0.070
2252,-0.185,-0.075
2253,-0.190,-0.080
2254,-0.195,-0.085
2255,-0.185,-0.085
2256,-0.175,-0.085
2257,-0.180,-0.080
2258,-0.185,-0.075
2259,-0.185,-0.085
2260,-0.185,-0.095
2261,-0.190,-0.100
2262,-0.195,-0.105
2263,-0.195,-0.105
2264,-0.195,-0.105
2265,-0.195,-0.100
2266,-0.195,-0.095
2267,-0.195,-0.095
2268,-0.195,-0.095
2269,-0.200,-0.105
2270,-0.205,-0.115
2271,-0.205,-0.110
2272,-0.205,-0.105
2273,-0.200,-0.100
2274,-0.195,-0.095
2275,-0.195,-0.095
2276,-0.195,-0.100
2277,-0.200,-0.110
2278,-0.205,-0.115
2279,-0.205,-0.110
2280,-0.200,-0.105
2281,-0.190,-0.100
2282,-0.190,-0.095
2283,-0.200,-0.100
2284,-0.205,-0.105
2285,-0.205,-0.110
2286,-0.205,-0.115
2287,-0.205,-0.115
2288,-0.205,-0.115
2289,-0.200,-0.110
2290,-0.195,-0.105
2291,-0.190,-0.105
2292,-0.190,-0.115
2293,-0.195,-0.125
2294,-0.190,-0.115
2295,-0.185,-0.105
2296,-0.180,-0.100
2297,-0.175,-0.095
2298,-0.180,-0.095
2299,-0.185,-0.095
2300,-0.185,-0.100
2301,-0.185,-0.105
2302,-0.180,-0.110
2303,-0.175,-0.115
2304,-0.175,-0.110
2305,-0.175,-0.105
2306,-0.175,-0.105
2307,-0.175,-0.105
2308,-0.180,-0.110
2309,-0.185,-0.115
2310,-0.175,-0.110
2311,-0.165,-0.105
2312,-0.160,-0.100
2313,-0.155,-0.095
2314,-0.160,-0.095
2315,-0.165,-0.100
2316,-0.170,-0.110
2317,-0.175,-0.115
2318,-0.170,-0.115
2319,-0.165,-0.115
2320,-0.165,-0.110
2321,-0.165,-0.105
2322,-0.160,-0.105
2323,-0.155,-0.105
2324,-0.160,-0.105
2325,-0.165,-0.105
2326,-0.160,-0.110
2327,-0.150,-0.110
2328,-0.140,-0.100
2329,-0.135,-0.095
2330,-0.140,-0.095
2331,-0.145,-0.095
2332,-0.145,-0.095
2333,-0.120,-0.085
2334,-0.085,-0.065
2335,-0.065,-0.055
2336,-0.045,-0.045
2337,-0.055,-0.060
2338,-0.065,-0.075
2339,-0.030,-0.060
2340,0.005,-0.045
2341,0.040,-0.080
2342,0.055,-0.105
2343,0.000,-0.115
2344,-0.050,-0.125
2345,-0.070,-0.115
2346,-0.085,-0.105
2347,-0.100,-0.120
2348,-0.115,-0.135
2349,-0.115,-0.135
2350,-0.120,-0.130
2351,-0.140,-0.110
2352,-0.155,-0.095
2353,-0.155,-0.105
2354,-0.155,-0.115
2355,-0.170,-0.115
2356,-0.170,-0.115
2357,-0.160,-0.115
2358,-0.155,-0.110
2359,-0.150,-0.100
2360,-0.145,-0.095
2361,-0.150,-0.100
2362,-0.155,-0.105
2363,-0.160,-0.105
2364,-0.165,-0.105
2365,-0.160,-0.105
2366,-0.155,-0.105
2367,-0.155,-0.100
2368,-0.155,-0.095
2369,-0.155,-0.095
2370,-0.155,-0.095
2371,-0.150,-0.100
2372,-0.135,-0.095
2373,-0.120,-0.080
2374,-0.195,0.020
2375,-0.115,-0.075
2376,-0.455,0.130
2377,-0.620,0.130
2378,-0.445,0.000
2379,-0.215,-0.170
2380,0.575,-0.650
2381,1.325,-1.050
2382,1.860,-0.945
2383,2.340,-0.830
2384,2.590,-0.670
2385,2.675,-0.550
2386,2.205,-0.580
2387,1.635,-0.540
2388,0.810,-0.295
2389,0.205,-0.100
2390,0.055,-0.010
2391,-0.050,0.045
2392,-0.065,0.045
2393,-0.085,0.040
2394,-0.110,0.025
2395,-0.135,0.015
2396,-0.160,0.010
2397,-0.180,0.010
2398,-0.195,0.020
2399,-0.205,0.025
2400,-0.205,0.025
2401,-0.210,0.025
2402,-0.220,0.020
2403,-0.225,0.015
2404,-0.225,0.015
2405,-0.225,0.020
2406,-0.220,0.030
2407,-0.215,0.035
2408,-0.215,0.035
2409,-0.215,0.025
2410,-0.220,0.010
2411,-0.225,0.005
2412,-0.220,0.010
2413,-0.215,0.015
2414,-0.210,0.020
2415,-0.205,0.025
2416,-0.200,0.025
2417,-0.195,0.020
2418,-0.195,0.015
2419,-0.195,0.010
2420,-0.195,0.005
2421,-0.180,0.020
2422,-0.165,0.035
2423,-0.160,0.030
2424,-0.155,0.025
2425,-0.150,0.020
2426,-0.145,0.015
2427,-0.135,0.025
2428,-0.125,0.035
2429,-0.115,0.045
2430,-0.105,0.055
2431,-0.095,0.050
2432,-0.085,0.045
2433,-0.075,0.040
2434,-0.065,0.035
2435,-0.055,0.040
2436,-0.040,0.050
2437,-0.020,0.065
2438,0.005,0.075
2439,0.025,0.075
2440,0.040,0.075
2441,0.055,0.075
2442,0.080,0.075
2443,0.110,0.080
2444,0.145,0.090
2445,0.180,0.100
2446,0.215,0.110
2447,0.245,0.120
2448,0.280,0.120
2449,0.315,0.110
2450,0.345,0.110
2451,0.375,0.120
2452,0.415,0.130
2453,0.455,0.140
2454,0.480,0.145
2455,0.500,0.145
2456,0.525,0.145
2457,0.550,0.145
2458,0.560,0.145
2459,0.575,0.145
2460,0.560,0.135
2461,0.545,0.125
2462,0.500,0.115
2463,0.450,0.105
2464,0.385,0.080
2465,0.315,0.055
2466,0.240,0.040
2467,0.165,0.025
2468,0.105,0.015
2469,0.045,0.005
2470,-0.015,-0.010
2471,-0.065,-0.025
2472,-0.105,-0.040
2473,-0.140,-0.055
2474,-0.160,-0.055
2475,-0.180,-0.055
2476,-0.195,-0.055
2477,-0.205,-0.055
2478,-0.210,-0.055
2479,-0.215,-0.055
2480,-0.230,-0.070
2481,-0.235,-0.075
2482,-0.230,-0.075
2483,-0.225,-0.075
2484,-0.225,-0.070
2485,-0.225,-0.065
2486,-0.230,-0.065
2487,-0.235,-0.065
2488,-0.235,-0.070
2489,-0.235,-0.075
2490,-0.230,-0.075
2491,-0.225,-0.075
2492,-0.220,-0.070
2493,-0.215,-0.065
2494,-0.215,-0.065
2495,-0.215,-0.065
2496,-0.220,-0.065
2497,-0.225,-0.065
2498,-0.220,-0.065
2499,-0.215,-0.060
2500,-0.215,-0.065
2501,-0.205,-0.050
2502,-0.205,-0.055
2503,-0.210,-0.060
2504,-0.215,-0.065
2505,-0.210,-0.060
2506,-0.205,-0.055
2507,-0.210,-0.055
2508,-0.215,-0.055
2509,-0.210,-0.055
2510,-0.205,-0.055
2511,-0.210,-0.055
2512,-0.215,-0.055
2513,-0.215,-0.060
2514,-0.215,-0.060
2515,-0.205,-0.045
2516,-0.195,-0.040
2517,-0.200,-0.055
2518,-0.205,-0.065
2519,-0.215,-0.070
2520,-0.225,-0.075
2521,-0.220,-0.075
2522,-0.215,-0.075
2523,-0.210,-0.075
2524,-0.205,-0.075
2525,-0.210,-0.075
2526,-0.215,-0.075
2527,-0.220,-0.080
2528,-0.225,-0.085
2529,-0.220,-0.085
2530,-0.215,-0.085
2531,-0.215,-0.085
2532,-0.215,-0.085
2533,-0.220,-0.090
2534,-0.225,-0.095
2535,-0.230,-0.095
2536,-0.235,-0.095
2537,-0.235,-0.100
2538,-0.235,-0.105
2539,-0.235,-0.100
2540,-0.235,-0.095
2541,-0.230,-0.095
2542,-0.230,-0.100
2543,-0.235,-0.105
2544,-0.230,-0.110
2545,-0.225,-0.115
2546,-0.220,-0.100
2547,-0.215,-0.085
2548,-0.220,-0.090
2549,-0.225,-0.095
2550,-0.230,-0.105
2551,-0.235,-0.115
2552,-0.230,-0.110
2553,-0.225,-0.105
2554,-0.225,-0.100
2555,-0.225,-0.095
2556,-0.225,-0.095
2557,-0.225,-0.095
2558,-0.225,-0.105
2559,-0.225,-0.115
2560,-0.220,-0.110
2561,-0.215,-0.105
2562,-0.215,-0.100
2563,-0.215,-0.095
2564,-0.215,-0.095
2565,-0.215,-0.095
2566,-0.215,-0.100
2567,-0.215,-0.105
2568,-0.215,-0.105
2569,-0.215,-0.105
2570,-0.210,-0.100
2571,-0.205,-0.095
2572,-0.205,-0.095
2573,-0.205,-0.095
2574,-0.205,-0.100
2575,-0.205,-0.105
2576,-0.205,-0.105
2577,-0.200,-0.100
2578,-0.190,-0.090
2579,-0.190,-0.085
2580,-0.200,-0.090
2581,-0.205,-0.095
2582,-0.205,-0.100
2583,-0.205,-0.105
2584,-0.195,-0.115
2585,-0.195,-0.105
2586,-0.195,-0.095
2587,-0.195,-0.095
2588,-0.195,-0.095
2589,-0.195,-0.100
2590,-0.195,-0.105
2591,-0.195,-0.105
2592,-0.195,-0.105
2593,-0.185,-0.100
2594,-0.175,-0.095
2595,-0.180,-0.090
2596,-0.185,-0.085
2597,-0.190,-0.085
2598,-0.195,-0.085
2599,-0.185,-0.090
2600,-0.170,-0.095
2601,-0.155,-0.085
2602,-0.135,-0.065
2603,-0.110,-0.040
2604,-0.095,-0.025
2605,-0.095,-0.040
2606,-0.090,-0.045
2607,-0.075,-0.045
2608,-0.030,-0.045
2609,0.030,-0.045
2610,0.030,-0.070
2611,-0.015,-0.110
2612,-0.065,-0.125
2613,-0.120,-0.120
2614,-0.135,-0.115
2615,-0.130,-0.110
2616,-0.125,-0.105
2617,-0.130,-0.105
2618,-0.155,-0.100
2619,-0.180,-0.090
2620,-0.185,-0.085
2621,-0.190,-0.090
2622,-0.195,-0.095
2623,-0.190,-0.100
2624,-0.185,-0.105
2625,-0.185,-0.105
2626,-0.185,-0.090
2627,-0.185,-0.085
2628,-0.190,-0.090
2629,-0.195,-0.095
2630,-0.195,-0.090
2631,-0.195,-0.085
2632,-0.190,-0.085
2633,-0.185,-0.085
2634,-0.190,-0.085
2635,-0.195,-0.085
2636,-0.190,-0.090
2637,-0.185,-0.095
2638,-0.185,-0.095
2639,-0.185,-0.095
2640,-0.180,-0.090
2641,-0.175,-0.085
2642,-0.170,-0.080
2643,-0.165,-0.075
2644,-0.160,-0.085
2645,-0.155,-0.085
2646,-0.150,-0.050
2647,-0.205,0.010
2648,-0.330,0.100
2649,-0.460,0.140
2650,-0.600,0.130
2651,-0.515,0.010
2652,-0.285,-0.175
2653,0.335,-0.525
2654,1.160,-0.955
2655,1.755,-0.935
2656,2.255,-0.715
2657,2.540,-0.595
2658,2.750,-0.515
2659,2.330,-0.515
2660,1.750,-0.550
2661,1.020,-0.365
2662,0.270,-0.140
2663,0.075,-0.045
2664,-0.055,0.035
2665,-0.060,0.050
2666,-0.050,0.060
2667,-0.085,0.045
2668,-0.125,0.025
2669,-0.155,0.025
2670,-0.185,0.025
2671,-0.190,0.040
2672,-0.195,0.055
2673,-0.210,0.040
2674,-0.225,0.025
2675,-0.230,0.020
2676,-0.235,0.015
2677,-0.235,0.020
2678,-0.235,0.025
2679,-0.235,0.030
2680,-0.235,0.035
2681,-0.235,0.030
2682,-0.235,0.025
2683,-0.230,0.025
2684,-0.225,0.025
2685,-0.225,0.025
2686,-0.225,0.025
2687,-0.215,0.030
2688,-0.205,0.035
2689,-0.205,0.035
2690,-0.205,0.030
2691,-0.205,0.020
2692,-0.205,0.015
2693,-0.200,0.015
2694,-0.195,0.015
2695,-0.190,0.020
2696,-0.185,0.025
2697,-0.180,0.030
2698,-0.175,0.035
2699,-0.170,0.030
2700,-0.155,0.025
2701,-0.140,0.025
2702,-0.125,0.030
2703,-0.110,0.040
2704,-0.105,0.045
2705,-0.105,0.040
2706,-0.100,0.035
2707,-0.090,0.035
2708,-0.070,0.035
2709,-0.045,0.045
2710,-0.030,0.050
2711,-0.015,0.055
2712,0.005,0.060
2713,0.025,0.065
2714,0.040,0.070
2715,0.055,0.075
2716,0.090,0.085
2717,0.120,0.095
2718,0.170,0.105
2719,0.210,0.115
2720,0.230,0.110
2721,0.250,0.105
2722,0.275,0.105
2723,0.305,0.105
2724,0.350,0.110
2725,0.385,0.115
2726,0.420,0.125
2727,0.450,0.135
2728,0.470,0.140
2729,0.490,0.145
2730,0.515,0.145
2731,0.535,0.145
2732,0.555,0.140
2733,0.565,0.135
2734,0.560,0.140
2735,0.530,0.140
2736,0.490,0.125
2737,0.430,0.105
2738,0.360,0.085
2739,0.290,0.065
2740,0.225,0.050
2741,0.150,0.030
2742,0.070,0.010
2743,0.010,0.000
2744,-0.045,-0.010
2745,-0.085,-0.025
2746,-0.120,-0.040
2747,-0.145,-0.045
2748,-0.170,-0.050
2749,-0.175,-0.055
2750,-0.175,-0.055
2751,-0.200,-0.050
2752,-0.215,-0.055
2753,-0.225,-0.065
2754,-0.235,-0.075
2755,-0.230,-0.070
2756,-0.225,-0.065
2757,-0.225,-0.065
2758,-0.225,-0.065
2759,-0.225,-0.065
2760,-0.225,-0.065
2761,-0.225,-0.065
2762,-0.225,-0.065
2763,-0.220,-0.070
2764,-0.215,-0.075
2765,-0.215,-0.065
2766,-0.215,-0.055
2767,-0.215,-0.060
2768,-0.215,-0.065
2769,-0.220,-0.065
2770,-0.225,-0.065
2771,-0.210,-0.060
2772,-0.205,-0.055
2773,-0.205,-0.055
2774,-0.205,-0.055
2775,-0.205,-0.050
2776,-0.205,-0.050
2777,-0.205,-0.060
2778,-0.205,-0.065
2779,-0.200,-0.060
2780,-0.195,-0.055
2781,-0.195,-0.050
2782,-0.195,-0.045
2783,-0.195,-0.045
2784,-0.200,-0.050
2785,-0.210,-0.060
2786,-0.215,-0.065
2787,-0.210,-0.065
2788,-0.205,-0.065
2789,-0.205,-0.060
2790,-0.205,-0.055
2791,-0.205,-0.055
2792,-0.210,-0.065
2793,-0.215,-0.075
2794,-0.215,-0.080
2795,-0.215,-0.085
2796,-0.205,-0.080
2797,-0.195,-0.075
2798,-0.205,-0.080
2799,-0.215,-0.085
2800,-0.220,-0.090
2801,-0.225,-0.095
2802,-0.225,-0.090
2803,-0.225,-0.085
2804,-0.225,-0.090
2805,-0.225,-0.095
2806,-0.225,-0.100
2807,-0.225,-0.105
2808,-0.230,-0.110
2809,-0.235,-0.115
2810,-0.235,-0.105
2811,-0.235,-0.095
2812,-0.230,-0.095
2813,-0.225,-0.100
2814,-0.230,-0.110
2815,-0.235,-0.115
2816,-0.235,-0.120
2817,-0.235,-0.125
2818,-0.230,-0.120
2819,-0.225,-0.115
2820,-0.220,-0.110
2821,-0.215,-0.105
2822,-0.220,-0.105
2823,-0.225,-0.105
2824,-0.230,-0.110
2825,-0.235,-0.115
2826,-0.230,-0.120
2827,-0.225,-0.125
2828,-0.225,-0.120
2829,-0.225,-0.115
2830,-0.225,-0.120
2831,-0.225,-0.125
2832,-0.225,-0.125
2833,-0.225,-0.125
2834,-0.225,-0.125
2835,-0.220,-0.125
2836,-0.215,-0.125
2837,-0.210,-0.120
2838,-0.205,-0.115
2839,-0.210,-0.120
2840,-0.215,-0.125
2841,-0.215,-0.120
2842,-0.215,-0.115
2843,-0.215,-0.110
2844,-0.215,-0.105
2845,-0.210,-0.110
2846,-0.205,-0.115
2847,-0.205,-0.120
2848,-0.205,-0.125
2849,-0.200,-0.120
2850,-0.195,-0.115
2851,-0.195,-0.115
2852,-0.195,-0.115
2853,-0.195,-0.110
2854,-0.195,-0.105
2855,-0.195,-0.120
2856,-0.195,-0.125
2857,-0.195,-0.125
2858,-0.190,-0.120
2859,-0.180,-0.110
2860,-0.175,-0.105
2861,-0.180,-0.105
2862,-0.185,-0.110
2863,-0.180,-0.120
2864,-0.170,-0.125
2865,-0.160,-0.120
2866,-0.140,-0.105
2867,-0.120,-0.090
2868,-0.105,-0.075
2869,-0.090,-0.060
2870,-0.085,-0.070
2871,-0.090,-0.090
2872,-0.045,-0.080
2873,0.010,-0.060
2874,0.015,-0.085
2875,0.015,-0.055
2876,-0.045,-0.130
2877,-0.105,-0.135
2878,-0.115,-0.130
2879,-0.125,-0.125
2880,-0.135,-0.140
2881,-0.145,-0.155
2882,-0.150,-0.150
2883,-0.155,-0.145
2884,-0.175,-0.125
2885,-0.195,-0.105
2886,-0.200,-0.130
2887,-0.205,-0.145
2888,-0.205,-0.145
2889,-0.200,-0.140
2890,-0.180,-0.125
2891,-0.165,-0.115
2892,-0.175,-0.120
2893,-0.185,-0.125
2894,-0.195,-0.130
2895,-0.205,-0.135
2896,-0.200,-0.130
2897,-0.195,-0.125
2898,-0.190,-0.130
2899,-0.185,-0.135
2900,-0.190,-0.130
2901,-0.195,-0.125
2902,-0.190,-0.130
2903,-0.185,-0.135
2904,-0.185,-0.135
2905,-0.180,-0.130
2906,-0.170,-0.120
2907,-0.165,-0.115
2908,-0.165,-0.115
2909,-0.165,-0.115
2910,-0.165,-0.120
2911,-0.150,-0.125
2912,-0.130,-0.120
2913,-0.205,-0.030
2914,-0.295,0.065
2915,-0.470,0.070
2916,-0.650,0.060
2917,-0.515,-0.030
2918,-0.350,-0.125
2919,0.520,-0.545
2920,1.370,-0.920
2921,1.945,-0.690
2922,2.475,-0.485
2923,2.670,-0.485
2924,2.725,-0.495
2925,2.065,-0.560
2926,1.385,-0.575
2927,0.650,-0.370
2928,0.085,-0.190
2929,-0.010,-0.080
2930,-0.075,-0.005
2931,-0.055,0.015
2932,-0.055,0.020
2933,-0.100,-0.005
2934,-0.135,-0.025
2935,-0.160,-0.030
2936,-0.175,-0.035
2937,-0.185,-0.030
2938,-0.200,-0.025
2939,-0.210,-0.025
2940,-0.215,-0.025
2941,-0.215,-0.025
2942,-0.215,-0.025
2943,-0.215,-0.025
2944,-0.215,-0.025
2945,-0.215,-0.025
2946,-0.215,-0.025
2947,-0.215,-0.025
2948,-0.215,-0.025
2949,-0.215,-0.030
2950,-0.215,-0.035
2951,-0.210,-0.035
2952,-0.205,-0.035
2953,-0.200,-0.030
2954,-0.195,-0.025
2955,-0.190,-0.030
2956,-0.185,-0.035
2957,-0.190,-0.040
2958,-0.195,-0.045
2959,-0.185,-0.045
2960,-0.175,-0.035
2961,-0.165,-0.025
2962,-0.160,-0.030
2963,-0.155,-0.035
2964,-0.150,-0.035
2965,-0.145,-0.035
2966,-0.140,-0.035
2967,-0.135,-0.035
2968,-0.120,-0.030
2969,-0.105,-0.025
2970,-0.100,-0.025
2971,-0.095,-0.025
2972,-0.080,-0.025
2973,-0.060,-0.025
2974,-0.045,-0.020
2975,-0.030,-0.015
2976,-0.010,-0.015
2977,0.010,-0.015
2978,0.030,-0.010
2979,0.055,-0.005
2980,0.080,-0.005
2981,0.110,0.000
2982,0.140,0.010
2983,0.170,0.015
2984,0.200,0.020
2985,0.235,0.025
2986,0.270,0.030
2987,0.300,0.030
2988,0.325,0.020
2989,0.355,0.020
2990,0.385,0.030
2991,0.420,0.035
2992,0.455,0.040
2993,0.485,0.045
2994,0.520,0.050
2995,0.530,0.050
2996,0.540,0.040
2997,0.555,0.035
2998,0.570,0.040
2999,0.560,0.045
3000,0.575,0.045
3001,0.490,0.045
3002,0.445,0.035
3003,0.385,0.015
3004,0.320,-0.005
3005,0.255,-0.010
3006,0.190,-0.015
3007,0.120,-0.025
3008,0.055,-0.035
3009,0.000,-0.050
3010,-0.050,-0.065
3011,-0.095,-0.080
3012,-0.130,-0.095
3013,-0.155,-0.095
3014,-0.175,-0.095
3015,-0.180,-0.095
3016,-0.190,-0.095
3017,-0.205,-0.105
3018,-0.215,-0.115
3019,-0.225,-0.110
3020,-0.235,-0.105
3021,-0.220,-0.105
3022,-0.220,-0.105
3023,-0.230,-0.105
3024,-0.235,-0.105
3025,-0.235,-0.105
3026,-0.235,-0.105
3027,-0.235,-0.105
3028,-0.235,-0.110
3029,-0.230,-0.120
3030,-0.225,-0.115
3031,-0.220,-0.100
3032,-0.215,-0.095
3033,-0.220,-0.095
3034,-0.225,-0.095
3035,-0.225,-0.100
3036,-0.225,-0.105
3037,-0.220,-0.100
3038,-0.210,-0.095
3039,-0.200,-0.095
3040,-0.200,-0.095
3041,-0.210,-0.100
3042,-0.210,-0.105
3043,-0.205,-0.105
3044,-0.210,-0.100
3045,-0.215,-0.095
3046,-0.210,-0.095
3047,-0.205,-0.095
3048,-0.205,-0.100
3049,-0.205,-0.105
3050,-0.215,-0.110
3051,-0.225,-0.115
3052,-0.215,-0.110
3053,-0.205,-0.105
3054,-0.205,-0.105
3055,-0.205,-0.105
3056,-0.210,-0.115
3057,-0.215,-0.125
3058,-0.215,-0.130
3059,-0.215,-0.135
3060,-0.225,-0.135
3061,-0.235,-0.135
3062,-0.230,-0.130
3063,-0.230,-0.125
3064,-0.240,-0.130
3065,-0.245,-0.135
3066,-0.240,-0.140
3067,-0.235,-0.145
3068,-0.230,-0.150
3069,-0.225,-0.155
3070,-0.230,-0.150
3071,-0.235,-0.145
3072,-0.235,-0.145
3073,-0.235,-0.150
3074,-0.235,-0.160
3075,-0.235,-0.165
3076,-0.235,-0.160
3077,-0.235,-0.155
3078,-0.235,-0.155
3079,-0.235,-0.155
3080,-0.235,-0.155
3081,-0.235,-0.160
3082,-0.240,-0.170
3083,-0.245,-0.170
3084,-0.235,-0.155
3085,-0.235,-0.155
3086,-0.235,-0.155
3087,-0.235,-0.155
3088,-0.235,-0.155
3089,-0.240,-0.160
3090,-0.245,-0.165
3091,-0.250,-0.165
3092,-0.255,-0.165
3093,-0.240,-0.155
3094,-0.225,-0.145
3095,-0.225,-0.150
3096,-0.225,-0.155
3097,-0.230,-0.160
3098,-0.235,-0.165
3099,-0.230,-0.165
3100,-0.225,-0.165
3101,-0.230,-0.160
3102,-0.235,-0.155
3103,-0.235,-0.160
3104,-0.235,-0.165
3105,-0.240,-0.170
3106,-0.245,-0.175
3107,-0.240,-0.175
3108,-0.230,-0.170
3109,-0.215,-0.160
3110,-0.210,-0.155
3111,-0.220,-0.150
3112,-0.225,-0.155
3113,-0.220,-0.170
3114,-0.210,-0.170
3115,-0.200,-0.160
3116,-0.180,-0.140
3117,-0.150,-0.120
3118,-0.140,-0.115
3119,-0.130,-0.115
3120,-0.125,-0.115
3121,-0.120,-0.120
3122,-0.065,-0.120
3123,-0.010,-0.110
3124,-0.025,-0.135
3125,-0.005,-0.105
3126,-0.100,-0.170
3127,-0.145,-0.165
3128,-0.150,-0.175
3129,-0.155,-0.185
3130,-0.165,-0.180
3131,-0.175,-0.175
3132,-0.195,-0.160
3133,-0.215,-0.145
3134,-0.215,-0.150
3135,-0.215,-0.155
3136,-0.230,-0.170
3137,-0.245,-0.185
3138,-0.235,-0.180
3139,-0.225,-0.175
3140,-0.215,-0.165
3141,-0.205,-0.155
3142,-0.210,-0.155
3143,-0.215,-0.155
3144,-0.225,-0.160
3145,-0.235,-0.165
3146,-0.220,-0.170
3147,-0.215,-0.175
3148,-0.210,-0.170
3149,-0.205,-0.160
3150,-0.205,-0.150
3151,-0.205,-0.150
3152,-0.205,-0.160
3153,-0.205,-0.165
3154,-0.200,-0.165
3155,-0.185,-0.160
3156,-0.170,-0.150
3157,-0.155,-0.145
3158,-0.140,-0.140
3159,-0.235,-0.075
3160,-0.365,0.000
3161,-0.510,0.015
3162,-0.655,0.020
3163,-0.610,0.005
3164,-0.530,-0.020
3165,0.185,-0.385
3166,0.940,-0.775
3167,1.615,-0.705
3168,2.270,-0.625
3169,2.540,-0.570
3170,2.770,-0.520
3171,2.410,-0.590
3172,1.990,-0.635
3173,1.115,-0.475
3174,0.345,-0.315
3175,0.080,-0.195
3176,-0.120,-0.090
3177,-0.085,-0.050
3178,-0.060,-0.015
3179,-0.085,-0.030
3180,-0.115,-0.045
3181,-0.150,-0.050
3182,-0.180,-0.055
3183,-0.200,-0.060
3184,-0.215,-0.065
3185,-0.215,-0.060
3186,-0.215,-0.055
3187,-0.220,-0.050
3188,-0.225,-0.045
3189,-0.230,-0.050
3190,-0.235,-0.055
3191,-0.240,-0.055
3192,-0.240,-0.055
3193,-0.230,-0.055
3194,-0.225,-0.055
3195,-0.220,-0.055
3196,-0.215,-0.055
3197,-0.215,-0.050
3198,-0.215,-0.045
3199,-0.220,-0.050
3200,-0.220,-0.055
3201,-0.210,-0.050
3202,-0.200,-0.045
3203,-0.190,-0.040
3204,-0.185,-0.035
3205,-0.185,-0.040
3206,-0.185,-0.050
3207,-0.185,-0.060
3208,-0.180,-0.065
3209,-0.165,-0.055
3210,-0.160,-0.050
3211,-0.155,-0.045
3212,-0.145,-0.040
3213,-0.135,-0.035
3214,-0.130,-0.040
3215,-0.125,-0.045
3216,-0.115,-0.045
3217,-0.105,-0.045
3218,-0.085,-0.035
3219,-0.065,-0.025
3220,-0.055,-0.025
3221,-0.045,-0.025
3222,-0.035,-0.025
3223,-0.020,-0.025
3224,0.005,-0.025
3225,0.035,-0.025
3226,0.065,-0.015
3227,0.095,-0.005
3228,0.125,0.000
3229,0.155,0.005
3230,0.190,0.000
3231,0.220,0.000
3232,0.250,0.010
3233,0.285,0.015
3234,0.325,0.020
3235,0.360,0.025
3236,0.390,0.025
3237,0.420,0.025
3238,0.445,0.020
3239,0.475,0.015
3240,0.505,0.020
3241,0.530,0.030
3242,0.550,0.040
3243,0.555,0.045
3244,0.560,0.045
3245,0.545,0.045
3246,0.520,0.040
3247,0.475,0.035
3248,0.430,0.035
3249,0.380,0.035
3250,0.425,0.035
3251,0.245,0.020
3252,0.165,0.005
3253,0.100,-0.010
3254,0.035,-0.025
3255,-0.020,-0.035
3256,-0.065,-0.045
3257,-0.100,-0.045
3258,-0.125,-0.045
3259,-0.155,-0.055
3260,-0.175,-0.065
3261,-0.185,-0.075
3262,-0.195,-0.085
3263,-0.200,-0.075
3264,-0.205,-0.065
3265,-0.205,-0.060
3266,-0.205,-0.055
3267,-0.210,-0.065
3268,-0.215,-0.075
3269,-0.220,-0.075
3270,-0.220,-0.075
3271,-0.205,-0.060
3272,-0.195,-0.055
3273,-0.200,-0.055
3274,-0.205,-0.055
3275,-0.200,-0.050
3276,-0.195,-0.050
3277,-0.200,-0.060
3278,-0.205,-0.065
3279,-0.200,-0.060
3280,-0.190,-0.055
3281,-0.180,-0.050
3282,-0.175,-0.045
3283,-0.180,-0.050
3284,-0.185,-0.055
3285,-0.180,-0.055
3286,-0.175,-0.055
3287,-0.175,-0.050
3288,-0.175,-0.045
3289,-0.175,-0.045
3290,-0.175,-0.045
3291,-0.175,-0.045
3292,-0.175,-0.055
3293,-0.175,-0.065
3294,-0.175,-0.060
3295,-0.175,-0.055
3296,-0.170,-0.050
3297,-0.165,-0.045
3298,-0.170,-0.050
3299,-0.175,-0.055
3300,-0.180,-0.065
3301,-0.185,-0.075
3302,-0.185,-0.075
3303,-0.185,-0.075
3304,-0.185,-0.070
3305,-0.185,-0.065
3306,-0.190,-0.065
3307,-0.195,-0.065
3308,-0.195,-0.070
3309,-0.195,-0.075
3310,-0.195,-0.080
3311,-0.195,-0.085
3312,-0.190,-0.075
3313,-0.185,-0.065
3314,-0.190,-0.070
3315,-0.195,-0.075
3316,-0.195,-0.080
3317,-0.195,-0.085
3318,-0.195,-0.085
3319,-0.195,-0.085
3320,-0.195,-0.085
3321,-0.195,-0.085
3322,-0.195,-0.085
3323,-0.195,-0.090
3324,-0.195,-0.100
3325,-0.195,-0.105
3326,-0.200,-0.105
3327,-0.205,-0.105
3328,-0.200,-0.100
3329,-0.195,-0.095
3330,-0.195,-0.095
3331,-0.195,-0.095
3332,-0.195,-0.100
3333,-0.195,-0.105
3334,-0.185,-0.105
3335,-0.185,-0.095
3336,-0.185,-0.085
3337,-0.190,-0.090
3338,-0.195,-0.095
3339,-0.195,-0.100
3340,-0.195,-0.105
3341,-0.195,-0.100
3342,-0.195,-0.095
3343,-0.190,-0.095
3344,-0.185,-0.095
3345,-0.185,-0.095
3346,-0.185,-0.095
3347,-0.185,-0.095
3348,-0.185,-0.095
3349,-0.185,-0.095
3350,-0.185,-0.095
3351,-0.175,-0.095
3352,-0.165,-0.095
3353,-0.165,-0.095
3354,-0.165,-0.095
3355,-0.170,-0.095
3356,-0.175,-0.095
3357,-0.170,-0.100
3358,-0.165,-0.100
3359,-0.160,-0.090
3360,-0.155,-0.085
3361,-0.160,-0.085
3362,-0.165,-0.090
3363,-0.165,-0.100
3364,-0.165,-0.105
3365,-0.160,-0.100
3366,-0.155,-0.095
3367,-0.150,-0.090
3368,-0.145,-0.085
3369,-0.145,-0.085
3370,-0.145,-0.090
3371,-0.145,-0.100
3372,-0.140,-0.100
3373,-0.130,-0.090
3374,-0.100,-0.060
3375,-0.125,-0.085
3376,-0.050,-0.020
3377,-0.035,-0.015
3378,-0.050,-0.040
3379,-0.060,-0.065
3380,-0.005,-0.040
3381,0.045,-0.020
3382,0.050,-0.060
3383,0.045,-0.095
3384,-0.020,-0.100
3385,-0.075,-0.105
3386,-0.090,-0.105
3387,-0.105,-0.105
3388,-0.105,-0.110
3389,-0.105,-0.115
3390,-0.105,-0.105
3391,-0.110,-0.095
3392,-0.140,-0.090
3393,-0.155,-0.085
3394,-0.160,-0.095
3395,-0.165,-0.105
3396,-0.160,-0.110
3397,-0.155,-0.110
3398,-0.150,-0.095
3399,-0.145,-0.085
3400,-0.145,-0.090
3401,-0.145,-0.095
3402,-0.150,-0.100
3403,-0.155,-0.105
3404,-0.155,-0.100
3405,-0.150,-0.095
3406,-0.140,-0.090
3407,-0.135,-0.085
3408,-0.140,-0.090
3409,-0.145,-0.095
3410,-0.145,-0.095
3411,-0.140,-0.095
3412,-0.130,-0.090
3413,-0.120,-0.050
3414,-0.110,-0.010
3415,-0.245,0.075
3416,-0.400,0.160
3417,-0.510,0.160
3418,-0.605,0.150
3419,-0.280,-0.135
3420,0.085,-0.425
3421,0.895,-0.860
3422,1.660,-1.210
3423,2.130,-0.910
3424,2.545,-0.655
3425,2.685,-0.640
3426,2.625,-0.605
3427,1.825,-0.495
3428,1.075,-0.365
3429,0.455,-0.170
3430,0.020,-0.020
3431,0.000,0.035
3432,-0.020,0.070
3433,-0.040,0.050
3434,-0.065,0.035
3435,-0.090,0.035
3436,-0.110,0.035
3437,-0.130,0.040
3438,-0.150,0.045
3439,-0.165,0.040
3440,-0.180,0.030
3441,-0.190,0.020
3442,-0.195,0.015
3443,-0.200,0.020
3444,-0.205,0.025
3445,-0.200,0.030
3446,-0.195,0.035
3447,-0.190,0.035
3448,-0.185,0.035
3449,-0.185,0.030
3450,-0.185,0.025
3451,-0.190,0.025
3452,-0.195,0.025
3453,-0.190,0.030
3454,-0.180,0.035
3455,-0.170,0.035
3456,-0.165,0.035
3457,-0.170,0.030
3458,-0.170,0.025
3459,-0.155,0.035
3460,-0.145,0.035
3461,-0.135,0.035
3462,-0.135,0.040
3463,-0.135,0.045
3464,-0.130,0.040
3465,-0.125,0.035
3466,-0.115,0.040
3467,-0.105,0.045
3468,-0.090,0.050
3469,-0.075,0.055
3470,-0.075,0.055
3471,-0.075,0.055
3472,-0.065,0.050
3473,-0.050,0.045
3474,-0.035,0.050
3475,-0.020,0.055
3476,-0.005,0.065
3477,0.010,0.075
3478,0.030,0.080
3479,0.050,0.085
3480,0.075,0.085
3481,0.100,0.085
3482,0.130,0.090
3483,0.160,0.100
3484,0.190,0.115
3485,0.220,0.125
3486,0.250,0.130
3487,0.285,0.135
3488,0.315,0.130
3489,0.350,0.125
3490,0.385,0.130
3491,0.415,0.135
3492,0.445,0.140
3493,0.480,0.150
3494,0.515,0.160
3495,0.540,0.160
3496,0.560,0.150
3497,0.575,0.150
3498,0.590,0.160
3499,0.595,0.165
3500,0.595,0.165
3501,0.555,0.150
3502,0.515,0.135
3503,0.455,0.110
3504,0.390,0.085
3505,0.325,0.075
3506,0.260,0.065
3507,0.190,0.050
3508,0.125,0.035
3509,0.060,0.015
3510,-0.005,-0.005
3511,-0.050,-0.020
3512,-0.090,-0.035
3513,-0.110,-0.040
3514,-0.130,-0.045
3515,-0.145,-0.045
3516,-0.155,-0.045
3517,-0.160,-0.045
3518,-0.165,-0.045
3519,-0.175,-0.050
3520,-0.185,-0.055
3521,-0.180,-0.050
3522,-0.175,-0.045
3523,-0.175,-0.050
3524,-0.175,-0.055
3525,-0.175,-0.050
3526,-0.175,-0.045
3527,-0.175,-0.050
3528,-0.175,-0.055
3529,-0.175,-0.050
3530,-0.170,-0.045
3531,-0.160,-0.045
3532,-0.155,-0.045
3533,-0.160,-0.040
3534,-0.165,-0.035
3535,-0.165,-0.040
3536,-0.165,-0.045
3537,-0.160,-0.045
3538,-0.155,-0.045
3539,-0.155,-0.040
3540,-0.155,-0.030
3541,-0.150,-0.020
3542,-0.150,-0.030
3543,-0.155,-0.045
3544,-0.155,-0.035
3545,-0.155,-0.025
3546,-0.150,-0.020
3547,-0.145,-0.015
3548,-0.150,-0.020
3549,-0.155,-0.025
3550,-0.155,-0.035
3551,-0.155,-0.045
3552,-0.155,-0.040
3553,-0.155,-0.035
3554,-0.160,-0.035
3555,-0.165,-0.035
3556,-0.160,-0.030
3557,-0.155,-0.030
3558,-0.165,-0.045
3559,-0.175,-0.055
3560,-0.170,-0.050
3561,-0.165,-0.045
3562,-0.165,-0.045
3563,-0.165,-0.045
3564,-0.170,-0.050
3565,-0.175,-0.060
3566,-0.180,-0.070
3567,-0.185,-0.075
3568,-0.185,-0.070
3569,-0.185,-0.065
3570,-0.185,-0.060
3571,-0.185,-0.055
3572,-0.190,-0.060
3573,-0.195,-0.070
3574,-0.195,-0.080
3575,-0.195,-0.085
3576,-0.195,-0.085
3577,-0.195,-0.080
3578,-0.190,-0.070
3579,-0.185,-0.065
3580,-0.190,-0.070
3581,-0.195,-0.080
3582,-0.200,-0.090
3583,-0.205,-0.095
3584,-0.195,-0.085
3585,-0.195,-0.085
3586,-0.195,-0.085
3587,-0.190,-0.080
3588,-0.185,-0.075
3589,-0.190,-0.085
3590,-0.195,-0.095
3591,-0.190,-0.095
3592,-0.185,-0.095
3593,-0.180,-0.090
3594,-0.175,-0.085
3595,-0.175,-0.085
3596,-0.175,-0.085
3597,-0.185,-0.090
3598,-0.195,-0.095
3599,-0.195,-0.095
3600,-0.195,-0.095
3601,-0.185,-0.090
3602,-0.175,-0.085
3603,-0.180,-0.085
3604,-0.185,-0.085
3605,-0.185,-0.100
3606,-0.185,-0.105
3607,-0.180,-0.100
3608,-0.175,-0.095
3609,-0.170,-0.090
3610,-0.165,-0.085
3611,-0.165,-0.085
3612,-0.165,-0.085
3613,-0.170,-0.090
3614,-0.175,-0.095
3615,-0.175,-0.095
3616,-0.175,-0.095
3617,-0.170,-0.090
3618,-0.165,-0.085
3619,-0.160,-0.085
3620,-0.155,-0.085
3621,-0.160,-0.090
3622,-0.165,-0.095
3623,-0.165,-0.100
3624,-0.165,-0.105
3625,-0.165,-0.105
3626,-0.150,-0.090
3627,-0.145,-0.085
3628,-0.145,-0.090
3629,-0.145,-0.095
3630,-0.150,-0.090
3631,-0.155,-0.085
3632,-0.145,-0.085
3633,-0.135,-0.085
3634,-0.120,-0.075
3635,-0.100,-0.065
3636,-0.070,-0.055
3637,-0.045,-0.045
3638,-0.055,-0.050
3639,-0.060,-0.050
3640,-0.035,-0.035
3641,0.000,-0.030
3642,0.055,-0.050
3643,0.065,-0.075
3644,0.005,-0.105
3645,-0.040,-0.120
3646,-0.085,-0.105
3647,-0.105,-0.095
3648,-0.100,-0.100
3649,-0.095,-0.105
3650,-0.100,-0.105
3651,-0.115,-0.105
3652,-0.135,-0.100
3653,-0.145,-0.095
3654,-0.150,-0.090
3655,-0.155,-0.085
3656,-0.160,-0.090
3657,-0.165,-0.095
3658,-0.160,-0.095
3659,-0.155,-0.095
3660,-0.160,-0.095
3661,-0.165,-0.095
3662,-0.160,-0.095
3663,-0.155,-0.095
3664,-0.155,-0.090
3665,-0.155,-0.085
3666,-0.155,-0.080
3667,-0.160,-0.085
3668,-0.165,-0.095
3669,-0.165,-0.090
3670,-0.165,-0.085
3671,-0.155,-0.075
3672,-0.145,-0.065
3673,-0.145,-0.075
3674,-0.145,-0.085
3675,-0.145,-0.090
3676,-0.145,-0.095
3677,-0.125,-0.080
3678,-0.120,-0.040
3679,-0.180,0.060
3680,-0.285,0.130
3681,-0.485,0.110
3682,-0.605,0.080
3683,-0.570,0.035
3684,-0.285,-0.170
3685,0.355,-0.610
3686,1.020,-0.865
3687,1.720,-0.890
3688,2.250,-0.785
3689,2.610,-0.545
3690,2.630,-0.485
3691,2.365,-0.585
3692,1.710,-0.495
3693,0.790,-0.270
3694,0.290,-0.110
3695,0.030,0.015
3696,-0.050,0.065
3697,-0.040,0.080
3698,-0.060,0.065
3699,-0.095,0.035
3700,-0.125,0.025
3701,-0.150,0.025
3702,-0.165,0.025
3703,-0.180,0.030
3704,-0.185,0.035
3705,-0.190,0.030
3706,-0.200,0.025
3707,-0.210,0.025
3708,-0.215,0.025
3709,-0.205,0.035
3710,-0.210,0.040
3711,-0.215,0.045
3712,-0.210,0.040
3713,-0.205,0.035
3714,-0.210,0.030
3715,-0.215,0.025
3716,-0.205,0.025
3717,-0.195,0.025
3718,-0.185,0.040
3719,-0.175,0.055
3720,-0.180,0.040
3721,-0.185,0.025
3722,-0.185,0.025
3723,-0.185,0.025
3724,-0.180,0.025
3725,-0.170,0.025
3726,-0.155,0.030
3727,-0.145,0.035
3728,-0.140,0.035
3729,-0.135,0.035
3730,-0.135,0.030
3731,-0.130,0.025
3732,-0.120,0.025
3733,-0.110,0.030
3734,-0.095,0.040
3735,-0.085,0.045
3736,-0.080,0.050
3737,-0.070,0.050
3738,-0.060,0.040
3739,-0.045,0.040
3740,-0.020,0.050
3741,-0.005,0.055
3742,0.010,0.060
3743,0.030,0.065
3744,0.050,0.070
3745,0.065,0.075
3746,0.080,0.070
3747,0.110,0.070
3748,0.140,0.080
3749,0.175,0.090
3750,0.145,0.085
3751,0.240,0.105
3752,0.265,0.105
3753,0.295,0.105
3754,0.325,0.105
3755,0.365,0.115
3756,0.405,0.125
3757,0.440,0.130
3758,0.465,0.135
3759,0.495,0.135
3760,0.515,0.135
3761,0.540,0.135
3762,0.555,0.135
3763,0.570,0.135
3764,0.585,0.135
3765,0.585,0.145
3766,0.575,0.150
3767,0.540,0.135
3768,0.495,0.120
3769,0.435,0.105
3770,0.380,0.090
3771,0.325,0.075
3772,0.260,0.055
3773,0.190,0.035
3774,0.125,0.020
3775,0.060,0.010
3776,0.005,0.000
3777,-0.045,-0.015
3778,-0.080,-0.025
3779,-0.105,-0.030
3780,-0.120,-0.035
3781,-0.130,-0.040
3782,-0.150,-0.045
3783,-0.170,-0.050
3784,-0.180,-0.055
3785,-0.190,-0.060
3786,-0.195,-0.065
3787,-0.190,-0.060
3788,-0.185,-0.055
3789,-0.190,-0.060
3790,-0.195,-0.065
3791,-0.195,-0.060
3792,-0.195,-0.055
3793,-0.195,-0.055
3794,-0.195,-0.055
3795,-0.195,-0.055
3796,-0.185,-0.055
3797,-0.175,-0.055
3798,-0.180,-0.050
3799,-0.185,-0.045
3800,-0.190,-0.050
3801,-0.195,-0.055
3802,-0.190,-0.055
3803,-0.185,-0.055
3804,-0.185,-0.050
3805,-0.185,-0.045
3806,-0.180,-0.040
3807,-0.175,-0.035
3808,-0.180,-0.040
3809,-0.185,-0.045
3810,-0.180,-0.050
3811,-0.175,-0.055
3812,-0.165,-0.045
3813,-0.160,-0.040
3814,-0.175,-0.050
3815,-0.185,-0.055
3816,-0.190,-0.055
3817,-0.195,-0.055
3818,-0.195,-0.055
3819,-0.190,-0.055
3820,-0.180,-0.060
3821,-0.175,-0.065
3822,-0.180,-0.060
3823,-0.185,-0.060
3824,-0.190,-0.070
3825,-0.195,-0.075
3826,-0.195,-0.075
3827,-0.190,-0.075
3828,-0.180,-0.070
3829,-0.185,-0.070
3830,-0.200,-0.080
3831,-0.205,-0.085
3832,-0.210,-0.090
3833,-0.215,-0.095
3834,-0.215,-0.095
3835,-0.215,-0.095
3836,-0.215,-0.095
3837,-0.215,-0.100
3838,-0.215,-0.105
3839,-0.220,-0.105
3840,-0.225,-0.105
3841,-0.225,-0.105
3842,-0.225,-0.105
3843,-0.220,-0.105
3844,-0.215,-0.105
3845,-0.220,-0.105
3846,-0.225,-0.105
3847,-0.220,-0.110
3848,-0.215,-0.115
3849,-0.215,-0.110
3850,-0.215,-0.105
3851,-0.215,-0.105
3852,-0.215,-0.105
3853,-0.215,-0.105
3854,-0.215,-0.105
3855,-0.220,-0.120
3856,-0.225,-0.125
3857,-0.225,-0.120
3858,-0.220,-0.115
3859,-0.210,-0.110
3860,-0.205,-0.105
3861,-0.210,-0.110
3862,-0.215,-0.115
3863,-0.220,-0.120
3864,-0.225,-0.125
3865,-0.220,-0.125
3866,-0.215,-0.125
3867,-0.215,-0.120
3868,-0.215,-0.115
3869,-0.210,-0.120
3870,-0.205,-0.125
3871,-0.205,-0.125
3872,-0.205,-0.125
3873,-0.200,-0.120
3874,-0.195,-0.115
3875,-0.195,-0.115
3876,-0.195,-0.110
3877,-0.195,-0.115
3878,-0.200,-0.120
3879,-0.205,-0.125
3880,-0.200,-0.125
3881,-0.195,-0.125
3882,-0.190,-0.115
3883,-0.185,-0.105
3884,-0.185,-0.100
3885,-0.185,-0.095
3886,-0.190,-0.105
3887,-0.195,-0.115
3888,-0.190,-0.115
3889,-0.185,-0.115
3890,-0.180,-0.105
3891,-0.175,-0.095
3892,-0.175,-0.100
3893,-0.175,-0.105
3894,-0.185,-0.110
3895,-0.195,-0.115
3896,-0.180,-0.115
3897,-0.170,-0.110
3898,-0.160,-0.100
3899,-0.145,-0.090
3900,-0.115,-0.075
3901,-0.100,-0.065
3902,-0.090,-0.070
3903,-0.085,-0.075
3904,-0.080,-0.070
3905,-0.030,-0.065
3906,0.035,-0.060
3907,0.030,-0.085
3908,-0.005,-0.135
3909,-0.055,-0.145
3910,-0.105,-0.140
3911,-0.115,-0.135
3912,-0.115,-0.135
3913,-0.125,-0.135
3914,-0.140,-0.130
3915,-0.150,-0.125
3916,-0.160,-0.120
3917,-0.180,-0.120
3918,-0.195,-0.125
3919,-0.200,-0.130
3920,-0.205,-0.135
3921,-0.200,-0.125
3922,-0.195,-0.115
3923,-0.195,-0.125
3924,-0.195,-0.135
3925,-0.195,-0.135
3926,-0.195,-0.135
3927,-0.190,-0.135
3928,-0.185,-0.135
3929,-0.190,-0.130
3930,-0.195,-0.125
3931,-0.195,-0.125
3932,-0.195,-0.125
3933,-0.195,-0.130
3934,-0.195,-0.135
3935,-0.190,-0.130
3936,-0.185,-0.125
3937,-0.185,-0.120
3938,-0.185,-0.115
3939,-0.180,-0.120
3940,-0.175,-0.125
3941,-0.170,-0.130
3942,-0.160,-0.135
3943,-0.150,-0.130
3944,-0.140,-0.115
3945,-0.130,-0.095
3946,-0.200,-0.030
3947,-0.315,0.050
3948,-0.465,0.060
3949,-0.635,0.040
3950,-0.585,-0.025
3951,-0.470,-0.100
3952,0.240,-0.455
3953,1.070,-0.870
3954,1.700,-0.760
3955,2.305,-0.570
3956,2.580,-0.510
3957,2.825,-0.460
3958,2.460,-0.560
3959,2.065,-0.675
3960,1.215,-0.480
3961,0.400,-0.290
3962,0.135,-0.165
3963,-0.105,-0.055
3964,-0.075,-0.025
3965,-0.045,0.005
3966,-0.060,-0.010
3967,-0.080,-0.025
3968,-0.105,-0.025
3969,-0.130,-0.025
3970,-0.165,-0.025
3971,-0.195,-0.025
3972,-0.210,-0.030
3973,-0.225,-0.035
3974,-0.225,-0.040
3975,-0.225,-0.045
3976,-0.225,-0.040
3977,-0.225,-0.035
3978,-0.225,-0.030
3979,-0.225,-0.025
3980,-0.225,-0.030
3981,-0.225,-0.035
3982,-0.220,-0.035
3983,-0.210,-0.035
3984,-0.195,-0.030
3985,-0.190,-0.025
3986,-0.200,-0.025
3987,-0.205,-0.025
3988,-0.205,-0.030
3989,-0.205,-0.035
3990,-0.205,-0.040
3991,-0.200,-0.045
3992,-0.190,-0.040
3993,-0.185,-0.035
3994,-0.180,-0.035
3995,-0.175,-0.040
3996,-0.170,-0.050
3997,-0.165,-0.050
3998,-0.160,-0.040
3999,-0.145,-0.035
4000,-0.155,-0.035
4001,-0.125,-0.030
4002,-0.125,-0.035
4003,-0.115,-0.035
4004,-0.105,-0.035
4005,-0.095,-0.030
4006,-0.085,-0.025
4007,-0.065,-0.025
4008,-0.045,-0.025
4009,-0.015,-0.015
4010,0.005,-0.005
4011,0.010,-0.010
4012,0.020,-0.015
4013,0.050,-0.010
4014,0.085,-0.005
4015,0.115,0.005
4016,0.140,0.015
4017,0.170,0.015
4018,0.200,0.015
4019,0.235,0.015
4020,0.270,0.015
4021,0.305,0.020
4022,0.340,0.030
4023,0.370,0.040
4024,0.400,0.045
4025,0.430,0.045
4026,0.455,0.045
4027,0.475,0.040
4028,0.505,0.035
4029,0.540,0.040
4030,0.565,0.050
4031,0.580,0.060
4032,0.570,0.065
4033,0.550,0.060
4034,0.525,0.045
4035,0.490,0.030
4036,0.440,0.020
4037,0.385,0.010
4038,0.325,0.000
4039,0.260,-0.010
4040,0.190,-0.015
4041,0.120,-0.020
4042,0.050,-0.045
4043,-0.015,-0.065
4044,-0.055,-0.075
4045,-0.095,-0.085
4046,-0.115,-0.090
4047,-0.135,-0.095
4048,-0.165,-0.100
4049,-0.195,-0.105
4050,-0.205,-0.110
4051,-0.215,-0.115
4052,-0.215,-0.115
4053,-0.215,-0.115
4054,-0.215,-0.110
4055,-0.215,-0.105
4056,-0.220,-0.105
4057,-0.225,-0.105
4058,-0.230,-0.110
4059,-0.235,-0.115
4060,-0.230,-0.115
4061,-0.225,-0.115
4062,-0.220,-0.110
4063,-0.215,-0.105
4064,-0.215,-0.100
4065,-0.215,-0.100
4066,-0.210,-0.110
4067,-0.205,-0.115
4068,-0.210,-0.110
4069,-0.215,-0.105
4070,-0.210,-0.100
4071,-0.205,-0.095
4072,-0.200,-0.090
4073,-0.195,-0.090
4074,-0.200,-0.100
4075,-0.205,-0.105
4076,-0.205,-0.100
4077,-0.205,-0.095
4078,-0.205,-0.095
4079,-0.205,-0.095
4080,-0.210,-0.100
4081,-0.215,-0.105
4082,-0.215,-0.110
4083,-0.215,-0.115
4084,-0.205,-0.105
4085,-0.205,-0.100
4086,-0.205,-0.095
4087,-0.210,-0.100
4088,-0.215,-0.105
4089,-0.220,-0.115
4090,-0.225,-0.125
4091,-0.230,-0.125
4092,-0.235,-0.125
4093,-0.230,-0.120
4094,-0.225,-0.115
4095,-0.225,-0.120
4096,-0.225,-0.125
4097,-0.225,-0.130
4098,-0.225,-0.135
4099,-0.225,-0.135
4100,-0.225,-0.135
4101,-0.225,-0.135
4102,-0.225,-0.135
4103,-0.225,-0.135
4104,-0.225,-0.135
4105,-0.230,-0.140
4106,-0.235,-0.145
4107,-0.240,-0.145
4108,-0.240,-0.145
4109,-0.230,-0.145
4110,-0.230,-0.145
4111,-0.240,-0.145
4112,-0.245,-0.145
4113,-0.245,-0.150
4114,-0.245,-0.155
4115,-0.240,-0.150
4116,-0.235,-0.145
4117,-0.235,-0.145
4118,-0.235,-0.145
4119,-0.235,-0.145
4120,-0.235,-0.150
4121,-0.235,-0.160
4122,-0.235,-0.160
4123,-0.235,-0.150
4124,-0.230,-0.145
4125,-0.235,-0.145
4126,-0.220,-0.150
4127,-0.225,-0.155
4128,-0.230,-0.160
4129,-0.235,-0.165
4130,-0.235,-0.160
4131,-0.235,-0.155
4132,-0.225,-0.145
4133,-0.215,-0.135
4134,-0.220,-0.140
4135,-0.225,-0.145
4136,-0.230,-0.150
4137,-0.235,-0.155
4138,-0.230,-0.150
4139,-0.220,-0.145
4140,-0.205,-0.140
4141,-0.195,-0.135
4142,-0.200,-0.140
4143,-0.210,-0.145
4144,-0.225,-0.150
4145,-0.230,-0.155
4146,-0.215,-0.160
4147,-0.205,-0.160
4148,-0.205,-0.145
4149,-0.190,-0.130
4150,-0.160,-0.115
4151,-0.145,-0.105
4152,-0.140,-0.110
4153,-0.125,-0.110
4154,-0.110,-0.100
4155,-0.065,-0.085
4156,-0.005,-0.070
4157,0.000,-0.105
4158,-0.020,-0.160
4159,-0.065,-0.175
4160,-0.125,-0.170
4161,-0.135,-0.165
4162,-0.135,-0.160
4163,-0.145,-0.155
4164,-0.160,-0.160
4165,-0.175,-0.165
4166,-0.190,-0.160
4167,-0.210,-0.155
4168,-0.225,-0.155
4169,-0.225,-0.160
4170,-0.225,-0.165
4171,-0.215,-0.160
4172,-0.205,-0.155
4173,-0.205,-0.150
4174,-0.205,-0.145
4175,-0.210,-0.155
4176,-0.215,-0.165
4177,-0.210,-0.160
4178,-0.205,-0.155
4179,-0.200,-0.155
4180,-0.195,-0.155
4181,-0.200,-0.150
4182,-0.205,-0.145
4183,-0.205,-0.150
4184,-0.205,-0.155
4185,-0.200,-0.150
4186,-0.195,-0.145
4187,-0.185,-0.140
4188,-0.175,-0.135
4189,-0.175,-0.140
4190,-0.170,-0.135
4191,-0.155,-0.115
4192,-0.230,-0.065
4193,-0.380,0.005
4194,-0.520,0.040
4195,-0.650,0.050
4196,-0.560,-0.015
4197,-0.360,-0.115
4198,0.315,-0.440
4199,1.160,-0.845
4200,1.770,-0.765
4201,2.320,-0.545
4202,2.605,-0.505
4203,2.835,-0.505
4204,2.425,-0.565
4205,1.915,-0.635
4206,1.110,-0.485
4207,0.275,-0.315
4208,0.070,-0.190
4209,-0.115,-0.065
4210,-0.090,-0.040
4211,-0.065,-0.015
4212,-0.090,-0.025
4213,-0.115,-0.035
4214,-0.145,-0.045
4215,-0.175,-0.055
4216,-0.195,-0.055
4217,-0.215,-0.055
4218,-0.215,-0.050
4219,-0.215,-0.045
4220,-0.220,-0.045
4221,-0.225,-0.045
4222,-0.230,-0.050
4223,-0.235,-0.055
4224,-0.230,-0.055
4225,-0.225,-0.055
4226,-0.220,-0.045
4227,-0.215,-0.035
4228,-0.210,-0.040
4229,-0.205,-0.045
4230,-0.210,-0.060
4231,-0.215,-0.060
4232,-0.210,-0.050
4233,-0.200,-0.045
4234,-0.185,-0.045
4235,-0.175,-0.045
4236,-0.180,-0.045
4237,-0.185,-0.045
4238,-0.180,-0.050
4239,-0.175,-0.055
4240,-0.170,-0.055
4241,-0.155,-0.055
4242,-0.140,-0.050
4243,-0.135,-0.045
4244,-0.135,-0.045
4245,-0.135,-0.050
4246,-0.130,-0.060
4247,-0.120,-0.060
4248,-0.110,-0.050
4249,-0.090,-0.040
4250,-0.105,-0.045
4251,-0.060,-0.030
4252,-0.055,-0.035
4253,-0.040,-0.040
4254,-0.025,-0.045
4255,-0.005,-0.040
4256,0.015,-0.035
4257,0.040,-0.025
4258,0.065,-0.015
4259,0.095,-0.015
4260,0.120,-0.015
4261,0.145,-0.015
4262,0.175,-0.015
4263,0.210,-0.010
4264,0.245,-0.005
4265,0.285,0.000
4266,0.320,0.005
4267,0.350,0.005
4268,0.370,0.005
4269,0.390,0.000
4270,0.420,-0.005
4271,0.465,0.000
4272,0.495,0.010
4273,0.520,0.020
4274,0.540,0.025
4275,0.555,0.025
4276,0.565,0.020
4277,0.565,0.010
4278,0.555,0.010
4279,0.540,0.020
4280,0.510,0.030
4281,0.470,0.040
4282,0.410,0.040
4283,0.340,0.030
4284,0.265,0.015
4285,0.190,0.000
4286,0.125,-0.015
4287,0.065,-0.030
4288,0.010,-0.040
4289,-0.040,-0.050
4290,-0.070,-0.055
4291,-0.100,-0.060
4292,-0.130,-0.070
4293,-0.155,-0.075
4294,-0.165,-0.075
4295,-0.175,-0.075
4296,-0.175,-0.070
4297,-0.175,-0.065
4298,-0.185,-0.070
4299,-0.195,-0.075
4300,-0.200,-0.080
4301,-0.205,-0.085
4302,-0.205,-0.080
4303,-0.205,-0.075
4304,-0.200,-0.070
4305,-0.195,-0.065
4306,-0.195,-0.060
4307,-0.195,-0.055
4308,-0.200,-0.060
4309,-0.205,-0.065
4310,-0.195,-0.060
4311,-0.185,-0.055
4312,-0.185,-0.055
4313,-0.185,-0.055
4314,-0.185,-0.055
4315,-0.185,-0.055
4316,-0.185,-0.060
4317,-0.185,-0.065
4318,-0.185,-0.060
4319,-0.185,-0.055
4320,-0.180,-0.050
4321,-0.175,-0.045
4322,-0.175,-0.045
4323,-0.175,-0.045
4324,-0.175,-0.050
4325,-0.175,-0.055
4326,-0.180,-0.055
4327,-0.180,-0.055
4328,-0.170,-0.055
4329,-0.165,-0.055
4330,-0.170,-0.060
4331,-0.175,-0.065
4332,-0.180,-0.070
4333,-0.185,-0.075
4334,-0.185,-0.075
4335,-0.190,-0.075
4336,-0.195,-0.075
4337,-0.195,-0.075
4338,-0.195,-0.075
4339,-0.200,-0.085
4340,-0.205,-0.095
4341,-0.205,-0.090
4342,-0.205,-0.085
4343,-0.200,-0.080
4344,-0.195,-0.075
4345,-0.205,-0.080
4346,-0.215,-0.085
4347,-0.220,-0.095
4348,-0.225,-0.105
4349,-0.220,-0.100
4350,-0.215,-0.095
4351,-0.215,-0.095
4352,-0.215,-0.095
4353,-0.215,-0.095
4354,-0.215,-0.095
4355,-0.215,-0.100
4356,-0.215,-0.105
4357,-0.215,-0.105
4358,-0.215,-0.105
4359,-0.210,-0.100
4360,-0.210,-0.095
4361,-0.220,-0.095
4362,-0.225,-0.095
4363,-0.225,-0.100
4364,-0.225,-0.105
4365,-0.220,-0.105
4366,-0.215,-0.105
4367,-0.215,-0.105
4368,-0.215,-0.105
4369,-0.215,-0.100
4370,-0.215,-0.100
4371,-0.215,-0.110
4372,-0.215,-0.115
4373,-0.210,-0.110
4374,-0.200,-0.100
4375,-0.205,-0.105
4376,-0.195,-0.095
4377,-0.205,-0.105
4378,-0.205,-0.105
4379,-0.205,-0.105
4380,-0.200,-0.105
4381,-0.195,-0.105
4382,-0.200,-0.100
4383,-0.205,-0.095
4384,-0.200,-0.100
4385,-0.195,-0.105
4386,-0.200,-0.110
4387,-0.205,-0.115
4388,-0.200,-0.115
4389,-0.195,-0.115
4390,-0.185,-0.105
4391,-0.175,-0.095
4392,-0.185,-0.100
4393,-0.195,-0.105
4394,-0.200,-0.105
4395,-0.205,-0.105
4396,-0.190,-0.105
4397,-0.185,-0.105
4398,-0.185,-0.105
4399,-0.180,-0.100
4400,-0.170,-0.090
4401,-0.170,-0.085
4402,-0.185,-0.090
4403,-0.190,-0.095
4404,-0.180,-0.100
4405,-0.165,-0.095
4406,-0.145,-0.075
4407,-0.120,-0.050
4408,-0.095,-0.030
4409,-0.085,-0.040
4410,-0.090,-0.060
4411,-0.085,-0.065
4412,-0.070,-0.060
4413,-0.015,-0.055
4414,0.040,-0.060
4415,0.000,-0.095
4416,-0.050,-0.130
4417,-0.090,-0.125
4418,-0.125,-0.115
4419,-0.135,-0.125
4420,-0.145,-0.135
4421,-0.140,-0.125
4422,-0.135,-0.115
4423,-0.155,-0.105
4424,-0.175,-0.095
4425,-0.185,-0.110
4426,-0.195,-0.125
4427,-0.190,-0.120
4428,-0.185,-0.115
4429,-0.190,-0.115
4430,-0.195,-0.115
4431,-0.190,-0.115
4432,-0.185,-0.115
4433,-0.190,-0.125
4434,-0.195,-0.135
4435,-0.195,-0.125
4436,-0.195,-0.115
4437,-0.190,-0.110
4438,-0.185,-0.105
4439,-0.185,-0.110
4440,-0.185,-0.115
4441,-0.185,-0.120
4442,-0.180,-0.125
4443,-0.170,-0.120
4444,-0.160,-0.115
4445,-0.140,-0.110
4446,-0.155,-0.040
4447,-0.195,0.055
4448,-0.355,0.090
4449,-0.565,0.100
4450,-0.600,0.075
4451,-0.580,0.035
4452,-0.075,-0.360
4453,0.525,-0.825
4454,1.205,-1.010
4455,1.890,-1.150
4456,2.275,-0.900
4457,2.630,-0.605
4458,2.555,-0.630
4459,2.445,-0.675
4460,1.565,-0.465
4461,0.710,-0.260
4462,0.295,-0.130
4463,-0.075,-0.015
4464,-0.065,0.015
4465,-0.055,0.045
4466,-0.075,0.035
4467,-0.100,0.025
4468,-0.125,0.025
4469,-0.150,0.025
4470,-0.175,0.015
4471,-0.200,0.005
4472,-0.220,0.000
4473,-0.235,-0.005
4474,-0.240,0.005
4475,-0.245,0.015
4476,-0.245,0.015
4477,-0.245,0.015
4478,-0.245,0.015
4479,-0.245,0.015
4480,-0.250,0.000
4481,-0.250,-0.005
4482,-0.240,0.000
4483,-0.230,0.010
4484,-0.220,0.020
4485,-0.215,0.025
4486,-0.215,0.020
4487,-0.215,0.010
4488,-0.220,0.000
4489,-0.220,-0.005
4490,-0.210,0.000
4491,-0.205,0.005
4492,-0.205,0.010
4493,-0.200,0.015
4494,-0.190,0.020
4495,-0.185,0.025
4496,-0.185,0.020
4497,-0.180,0.015
4498,-0.170,0.015
4499,-0.155,0.020
4500,-0.165,0.015
4501,-0.135,0.035
4502,-0.135,0.035
4503,-0.130,0.035
4504,-0.125,0.035
4505,-0.110,0.035
4506,-0.095,0.035
4507,-0.085,0.035
4508,-0.075,0.035
4509,-0.055,0.045
4510,-0.035,0.055
4511,-0.025,0.055
4512,-0.010,0.055
4513,0.015,0.060
4514,0.045,0.070
4515,0.080,0.085
4516,0.110,0.095
4517,0.125,0.095
4518,0.145,0.095
4519,0.170,0.090
4520,0.200,0.085
4521,0.245,0.085
4522,0.280,0.090
4523,0.310,0.100
4524,0.340,0.105
4525,0.370,0.110
4526,0.400,0.115
4527,0.425,0.115
4528,0.455,0.115
4529,0.485,0.120
4530,0.515,0.125
4531,0.545,0.130
4532,0.555,0.135
4533,0.555,0.135
4534,0.530,0.130
4535,0.495,0.120
4536,0.450,0.105
4537,0.405,0.090
4538,0.345,0.075
4539,0.280,0.060
4540,0.210,0.040
4541,0.140,0.020
4542,0.065,-0.010
4543,-0.005,-0.035
4544,-0.050,-0.045
4545,-0.095,-0.055
4546,-0.125,-0.050
4547,-0.155,-0.045
4548,-0.175,-0.055
4549,-0.195,-0.065
4550,-0.205,-0.070
4551,-0.215,-0.075
4552,-0.215,-0.075
4553,-0.215,-0.075
4554,-0.220,-0.070
4555,-0.225,-0.065
4556,-0.220,-0.065
4557,-0.215,-0.065
4558,-0.220,-0.070
4559,-0.225,-0.075
4560,-0.225,-0.070
4561,-0.225,-0.065
4562,-0.215,-0.060
4563,-0.205,-0.055
4564,-0.205,-0.060
4565,-0.205,-0.065
4566,-0.210,-0.070
4567,-0.215,-0.075
4568,-0.210,-0.070
4569,-0.205,-0.065
4570,-0.205,-0.060
4571,-0.205,-0.055
4572,-0.200,-0.055
4573,-0.195,-0.055
4574,-0.195,-0.055
4575,-0.195,-0.055
4576,-0.200,-0.055
4577,-0.205,-0.055
4578,-0.200,-0.050
4579,-0.195,-0.045
4580,-0.195,-0.050
4581,-0.195,-0.055
4582,-0.195,-0.055
4583,-0.195,-0.055
4584,-0.185,-0.055
4585,-0.190,-0.055
4586,-0.195,-0.055
4587,-0.195,-0.055
4588,-0.195,-0.055
4589,-0.200,-0.060
4590,-0.205,-0.065
4591,-0.205,-0.065
4592,-0.205,-0.065
4593,-0.205,-0.065
4594,-0.205,-0.065
4595,-0.205,-0.070
4596,-0.205,-0.075
4597,-0.210,-0.080
4598,-0.215,-0.085
4599,-0.215,-0.085
4600,-0.215,-0.085
4601,-0.220,-0.080
4602,-0.225,-0.075
4603,-0.220,-0.080
4604,-0.215,-0.085
4605,-0.220,-0.090
4606,-0.225,-0.095
4607,-0.220,-0.100
4608,-0.215,-0.105
4609,-0.220,-0.100
4610,-0.225,-0.095
4611,-0.225,-0.100
4612,-0.225,-0.105
4613,-0.225,-0.110
4614,-0.225,-0.115
4615,-0.225,-0.110
4616,-0.225,-0.105
4617,-0.225,-0.105
4618,-0.225,-0.105
4619,-0.225,-0.100
4620,-0.225,-0.095
4621,-0.225,-0.100
4622,-0.225,-0.105
4623,-0.225,-0.105
4624,-0.225,-0.105
4625,-0.225,-0.105
4626,-0.220,-0.100
4627,-0.225,-0.105
4628,-0.225,-0.110
4629,-0.225,-0.115
4630,-0.220,-0.110
4631,-0.215,-0.105
4632,-0.210,-0.110
4633,-0.205,-0.115
4634,-0.205,-0.115
4635,-0.205,-0.115
4636,-0.205,-0.115
4637,-0.205,-0.115
4638,-0.205,-0.110
4639,-0.205,-0.105
4640,-0.200,-0.100
4641,-0.195,-0.095
4642,-0.195,-0.100
4643,-0.195,-0.105
4644,-0.200,-0.110
4645,-0.205,-0.115
4646,-0.190,-0.110
4647,-0.185,-0.105
4648,-0.185,-0.100
4649,-0.185,-0.095
4650,-0.185,-0.100
4651,-0.185,-0.105
4652,-0.190,-0.110
4653,-0.195,-0.115
4654,-0.190,-0.115
4655,-0.180,-0.110
4656,-0.170,-0.100
4657,-0.165,-0.095
4658,-0.170,-0.095
4659,-0.175,-0.100
4660,-0.175,-0.110
4661,-0.175,-0.115
4662,-0.170,-0.110
4663,-0.165,-0.105
4664,-0.165,-0.100
4665,-0.165,-0.095
4666,-0.160,-0.095
4667,-0.145,-0.090
4668,-0.135,-0.085
4669,-0.105,-0.065
4670,-0.075,-0.045
4671,-0.070,-0.045
4672,-0.065,-0.045
4673,-0.050,-0.045
4674,-0.030,-0.045
4675,0.015,-0.065
4676,0.050,-0.090
4677,0.010,-0.120
4678,-0.035,-0.145
4679,-0.080,-0.135
4680,-0.115,-0.125
4681,-0.115,-0.125
4682,-0.115,-0.125
4683,-0.120,-0.130
4684,-0.130,-0.135
4685,-0.145,-0.125
4686,-0.155,-0.115
4687,-0.160,-0.105
4688,-0.165,-0.100
4689,-0.170,-0.110
4690,-0.175,-0.120
4691,-0.180,-0.130
4692,-0.180,-0.135
4693,-0.170,-0.130
4694,-0.165,-0.125
4695,-0.170,-0.120
4696,-0.175,-0.115
4697,-0.170,-0.110
4698,-0.170,-0.105
4699,-0.180,-0.110
4700,-0.185,-0.115
4701,-0.185,-0.110
4702,-0.175,-0.105
4703,-0.160,-0.105
4704,-0.155,-0.105
4705,-0.155,-0.105
4706,-0.155,-0.105
4707,-0.155,-0.110
4708,-0.150,-0.090
4709,-0.135,-0.055
4710,-0.285,0.030
4711,-0.430,0.115
4712,-0.540,0.100
4713,-0.620,0.065
4714,-0.350,-0.135
4715,0.000,-0.370
4716,0.810,-0.795
4717,1.560,-1.075
4718,2.075,-0.775
4719,2.500,-0.545
4720,2.650,-0.545
4721,2.515,-0.535
4722,1.690,-0.500
4723,0.945,-0.410
4724,0.350,-0.215
4725,-0.020,-0.070
4726,-0.040,0.000
4727,-0.055,0.045
4728,-0.060,0.040
4729,-0.080,0.030
4730,-0.125,0.005
4731,-0.150,-0.005
4732,-0.165,-0.010
4733,-0.180,-0.010
4734,-0.190,0.005
4735,-0.200,0.015
4736,-0.215,0.010
4737,-0.225,0.005
4738,-0.230,0.000
4739,-0.235,-0.005
4740,-0.235,0.000
4741,-0.235,0.005
4742,-0.230,0.000
4743,-0.225,-0.005
4744,-0.225,0.000
4745,-0.225,0.005
4746,-0.225,0.000
4747,-0.220,-0.005
4748,-0.210,-0.005
4749,-0.200,0.000
4750,-0.205,-0.005
4751,-0.185,0.010
4752,-0.185,0.005
4753,-0.185,0.000
4754,-0.185,-0.005
4755,-0.175,0.000
4756,-0.165,0.005
4757,-0.160,0.010
4758,-0.155,0.015
4759,-0.150,0.015
4760,-0.145,0.015
4761,-0.140,0.010
4762,-0.135,0.005
4763,-0.125,0.010
4764,-0.110,0.015
4765,-0.095,0.020
4766,-0.085,0.025
4767,-0.080,0.025
4768,-0.075,0.025
4769,-0.065,0.020
4770,-0.050,0.015
4771,-0.035,0.020
4772,-0.010,0.025
4773,0.020,0.030
4774,0.040,0.035
4775,0.055,0.040
4776,0.075,0.045
4777,0.095,0.045
4778,0.120,0.050
4779,0.145,0.060
4780,0.180,0.070
4781,0.220,0.080
4782,0.255,0.085
4783,0.285,0.085
4784,0.320,0.085
4785,0.355,0.085
4786,0.385,0.085
4787,0.410,0.090
4788,0.440,0.095
4789,0.470,0.100
4790,0.490,0.105
4791,0.510,0.110
4792,0.535,0.110
4793,0.555,0.105
4794,0.555,0.105
4795,0.555,0.105
4796,0.530,0.105
4797,0.500,0.105
4798,0.445,0.090
4799,0.385,0.075
4800,0.320,0.055
4801,0.255,0.035
4802,0.185,0.020
4803,0.120,0.005
4804,0.060,-0.005
4805,0.000,-0.020
4806,-0.055,-0.040
4807,-0.100,-0.055
4808,-0.125,-0.060
4809,-0.145,-0.065
4810,-0.155,-0.070
4811,-0.165,-0.075
4812,-0.175,-0.070
4813,-0.185,-0.065
4814,-0.190,-0.070
4815,-0.195,-0.075
4816,-0.200,-0.080
4817,-0.205,-0.085
4818,-0.205,-0.085
4819,-0.205,-0.085
4820,-0.200,-0.080
4821,-0.195,-0.075
4822,-0.200,-0.080
4823,-0.205,-0.085
4824,-0.200,-0.085
4825,-0.195,-0.085
4826,-0.195,-0.085
4827,-0.195,-0.080
4828,-0.190,-0.070
4829,-0.185,-0.070
4830,-0.185,-0.080
4831,-0.185,-0.085
4832,-0.190,-0.080
4833,-0.195,-0.075
4834,-0.185,-0.075
4835,-0.180,-0.070
4836,-0.175,-0.065
4837,-0.180,-0.070
4838,-0.185,-0.075
4839,-0.185,-0.080
4840,-0.185,-0.085
4841,-0.180,-0.075
4842,-0.175,-0.065
4843,-0.180,-0.065
4844,-0.185,-0.065
4845,-0.185,-0.070
4846,-0.185,-0.075
4847,-0.185,-0.080
4848,-0.185,-0.085
4849,-0.190,-0.090
4850,-0.195,-0.095
4851,-0.190,-0.085
4852,-0.185,-0.075
4853,-0.185,-0.080
4854,-0.185,-0.085
4855,-0.200,-0.090
4856,-0.205,-0.095
4857,-0.210,-0.100
4858,-0.215,-0.105
4859,-0.210,-0.100
4860,-0.205,-0.095
4861,-0.210,-0.095
4862,-0.215,-0.100
4863,-0.220,-0.110
4864,-0.225,-0.115
4865,-0.225,-0.115
4866,-0.225,-0.115
4867,-0.220,-0.115
4868,-0.215,-0.115
4869,-0.220,-0.115
4870,-0.225,-0.120
4871,-0.225,-0.130
4872,-0.225,-0.135
4873,-0.225,-0.130
4874,-0.225,-0.125
4875,-0.225,-0.125
4876,-0.220,-0.130
4877,-0.225,-0.135
4878,-0.225,-0.140
4879,-0.225,-0.145
4880,-0.220,-0.140
4881,-0.215,-0.135
4882,-0.215,-0.140
4883,-0.215,-0.145
4884,-0.215,-0.140
4885,-0.215,-0.135
4886,-0.220,-0.140
4887,-0.225,-0.145
4888,-0.220,-0.145
4889,-0.215,-0.145
4890,-0.210,-0.135
4891,-0.205,-0.125
4892,-0.210,-0.130
4893,-0.215,-0.135
4894,-0.215,-0.140
4895,-0.215,-0.145
4896,-0.210,-0.145
4897,-0.205,-0.145
4898,-0.200,-0.140
4899,-0.195,-0.135
4900,-0.195,-0.130
4901,-0.195,-0.125
4902,-0.195,-0.130
4903,-0.195,-0.135
4904,-0.195,-0.135
4905,-0.195,-0.135
4906,-0.190,-0.135
4907,-0.185,-0.135
4908,-0.190,-0.135
4909,-0.195,-0.135
4910,-0.200,-0.135
4911,-0.200,-0.135
4912,-0.190,-0.135
4913,-0.185,-0.135
4914,-0.185,-0.140
4915,-0.185,-0.145
4916,-0.185,-0.140
4917,-0.190,-0.140
4918,-0.195,-0.145
4919,-0.190,-0.145
4920,-0.185,-0.145
4921,-0.180,-0.135
4922,-0.175,-0.125
4923,-0.170,-0.135
4924,-0.165,-0.145
4925,-0.180,-0.140
4926,-0.195,-0.135
4927,-0.180,-0.135
4928,-0.165,-0.135
4929,-0.160,-0.135
4930,-0.150,-0.130
4931,-0.125,-0.105
4932,-0.105,-0.085
4933,-0.105,-0.090
4934,-0.100,-0.095
4935,-0.085,-0.095
4936,-0.045,-0.090
4937,0.025,-0.075
4938,0.045,-0.090
4939,0.000,-0.140
4940,-0.050,-0.165
4941,-0.100,-0.165
4942,-0.125,-0.165
4943,-0.125,-0.165
4944,-0.125,-0.165
4945,-0.130,-0.170
4946,-0.145,-0.165
4947,-0.165,-0.145
4948,-0.180,-0.140
4949,-0.190,-0.150
4950,-0.195,-0.155
4951,-0.195,-0.160
4952,-0.190,-0.165
4953,-0.180,-0.160
4954,-0.175,-0.155
4955,-0.180,-0.155
4956,-0.190,-0.155
4957,-0.200,-0.160
4958,-0.200,-0.165
4959,-0.185,-0.155
4960,-0.180,-0.150
4961,-0.175,-0.145
4962,-0.175,-0.145
4963,-0.175,-0.145
4964,-0.180,-0.145
4965,-0.185,-0.145
4966,-0.180,-0.145
4967,-0.175,-0.145
4968,-0.155,-0.145
4969,-0.140,-0.135
4970,-0.165,-0.090
4971,-0.240,-0.050
4972,-0.435,-0.025
4973,-0.580,-0.005
4974,-0.640,0.000
4975,-0.510,-0.085
4976,-0.085,-0.315
4977,0.515,-0.565
4978,1.335,-0.840
4979,1.975,-0.855
4980,2.410,-0.575
4981,2.590,-0.490
4982,2.530,-0.575
4983,1.955,-0.565
4984,1.005,-0.470
4985,0.405,-0.340
4986,0.015,-0.180
4987,-0.105,-0.095
4988,-0.085,-0.040
4989,-0.080,-0.025
4990,-0.090,-0.030
4991,-0.115,-0.035
4992,-0.145,-0.040
4993,-0.170,-0.045
4994,-0.190,-0.050
4995,-0.210,-0.055
4996,-0.230,-0.060
4997,-0.235,-0.065
4998,-0.240,-0.060
4999,-0.240,-0.055
5000,-0.245,-0.055
5001,-0.220,-0.045
5002,-0.215,-0.045
5003,-0.215,-0.050
5004,-0.215,-0.055
5005,-0.220,-0.060
5006,-0.225,-0.065
5007,-0.220,-0.060
5008,-0.215,-0.055
5009,-0.210,-0.055
5010,-0.205,-0.055
5011,-0.205,-0.055
5012,-0.205,-0.055
5013,-0.200,-0.060
5014,-0.195,-0.065
5015,-0.190,-0.060
5016,-0.185,-0.055
5017,-0.180,-0.055
5018,-0.175,-0.055
5019,-0.170,-0.060
5020,-0.165,-0.065
5021,-0.160,-0.060
5022,-0.150,-0.055
5023,-0.140,-0.050
5024,-0.135,-0.045
5025,-0.130,-0.045
5026,-0.125,-0.050
5027,-0.120,-0.060
5028,-0.105,-0.065
5029,-0.090,-0.060
5030,-0.075,-0.055
5031,-0.060,-0.050
5032,-0.045,-0.045
5033,-0.030,-0.040
5034,-0.015,-0.035
5035,0.000,-0.035
5036,0.025,-0.035
5037,0.050,-0.030
5038,0.080,-0.025
5039,0.110,-0.025
5040,0.135,-0.020
5041,0.160,-0.010
5042,0.195,-0.005
5043,0.225,-0.005
5044,0.255,-0.005
5045,0.285,-0.005
5046,0.325,0.005
5047,0.365,0.015
5048,0.390,0.015
5049,0.415,0.015
5050,0.445,0.015
5051,0.470,0.015
5052,0.500,0.010
5053,0.525,0.005
5054,0.540,0.015
5055,0.555,0.025
5056,0.550,0.025
5057,0.535,0.025
5058,0.500,0.015
5059,0.455,0.005
5060,0.400,0.000
5061,0.340,-0.005
5062,0.285,-0.005
5063,0.220,-0.015
5064,0.150,-0.035
5065,0.085,-0.050
5066,0.030,-0.065
5067,-0.020,-0.075
5068,-0.065,-0.080
5069,-0.100,-0.085
5070,-0.125,-0.090
5071,-0.150,-0.100
5072,-0.175,-0.110
5073,-0.195,-0.115
5074,-0.210,-0.120
5075,-0.220,-0.125
5076,-0.230,-0.130
5077,-0.230,-0.130
5078,-0.220,-0.120
5079,-0.215,-0.115
5080,-0.215,-0.115
5081,-0.215,-0.115
5082,-0.220,-0.120
5083,-0.225,-0.125
5084,-0.215,-0.115
5085,-0.220,-0.115
5086,-0.225,-0.115
5087,-0.225,-0.115
5088,-0.225,-0.115
5089,-0.225,-0.120
5090,-0.225,-0.125
5091,-0.220,-0.120
5092,-0.215,-0.115
5093,-0.205,-0.105
5094,-0.195,-0.095
5095,-0.200,-0.100
5096,-0.205,-0.105
5097,-0.205,-0.110
5098,-0.205,-0.115
5099,-0.205,-0.115
5100,-0.205,-0.115
5101,-0.210,-0.105
5102,-0.215,-0.095
5103,-0.215,-0.100
5104,-0.215,-0.105
5105,-0.215,-0.105
5106,-0.215,-0.105
5107,-0.210,-0.110
5108,-0.205,-0.115
5109,-0.205,-0.110
5110,-0.205,-0.110
5111,-0.210,-0.120
5112,-0.215,-0.125
5113,-0.220,-0.125
5114,-0.225,-0.125
5115,-0.225,-0.125
5116,-0.225,-0.125
5117,-0.230,-0.120
5118,-0.235,-0.115
5119,-0.235,-0.120
5120,-0.235,-0.130
5121,-0.235,-0.140
5122,-0.235,-0.140
5123,-0.230,-0.130
5124,-0.225,-0.125
5125,-0.225,-0.125
5126,-0.235,-0.135
5127,-0.235,-0.135
5128,-0.245,-0.145
5129,-0.255,-0.155
5130,-0.250,-0.150
5131,-0.245,-0.145
5132,-0.240,-0.145
5133,-0.235,-0.145
5134,-0.235,-0.140
5135,-0.235,-0.135
5136,-0.240,-0.145
5137,-0.245,-0.155
5138,-0.250,-0.155
5139,-0.255,-0.155
5140,-0.245,-0.145
5141,-0.235,-0.135
5142,-0.240,-0.140
5143,-0.245,-0.145
5144,-0.245,-0.150
5145,-0.245,-0.155
5146,-0.240,-0.155
5147,-0.235,-0.155
5148,-0.235,-0.150
5149,-0.235,-0.145
5150,-0.235,-0.145
5151,-0.235,-0.145
5152,-0.230,-0.150
5153,-0.225,-0.155
5154,-0.225,-0.150
5155,-0.225,-0.145
5156,-0.220,-0.145
5157,-0.220,-0.145
5158,-0.230,-0.145
5159,-0.235,-0.145
5160,-0.235,-0.150
5161,-0.230,-0.155
5162,-0.220,-0.155
5163,-0.215,-0.150
5164,-0.215,-0.140
5165,-0.215,-0.135
5166,-0.215,-0.140
5167,-0.210,-0.150
5168,-0.205,-0.155
5169,-0.205,-0.155
5170,-0.205,-0.155
5171,-0.195,-0.145
5172,-0.185,-0.135
5173,-0.190,-0.135
5174,-0.195,-0.135
5175,-0.200,-0.145
5176,-0.205,-0.155
5177,-0.200,-0.145
5178,-0.195,-0.135
5179,-0.185,-0.135
5180,-0.175,-0.135
5181,-0.175,-0.135
5182,-0.165,-0.130
5183,-0.135,-0.115
5184,-0.115,-0.105
5185,-0.110,-0.100
5186,-0.105,-0.095
5187,-0.100,-0.095
5188,-0.070,-0.090
5189,-0.015,-0.075
5190,0.010,-0.090
5191,-0.005,-0.135
5192,-0.040,-0.155
5193,-0.085,-0.150
5194,-0.105,-0.145
5195,-0.105,-0.140
5196,-0.115,-0.140
5197,-0.130,-0.150
5198,-0.150,-0.155
5199,-0.175,-0.160
5200,-0.185,-0.160
5201,-0.190,-0.150
5202,-0.195,-0.145
5203,-0.190,-0.145
5204,-0.185,-0.145
5205,-0.190,-0.150
5206,-0.195,-0.155
5207,-0.200,-0.155
5208,-0.200,-0.155
5209,-0.185,-0.145
5210,-0.185,-0.140
5211,-0.185,-0.135
5212,-0.185,-0.130
5213,-0.185,-0.125
5214,-0.190,-0.135
5215,-0.195,-0.145
5216,-0.190,-0.140
5217,-0.185,-0.135
5218,-0.180,-0.130
5219,-0.170,-0.125
5220,-0.150,-0.125
5221,-0.155,-0.110
5222,-0.240,-0.040
5223,-0.360,0.005
5224,-0.545,0.015
5225,-0.645,0.025
5226,-0.580,0.015
5227,-0.190,-0.175
5228,0.625,-0.590
5229,1.355,-0.750
5230,2.010,-0.635
5231,2.450,-0.555
5232,2.710,-0.515
5233,2.565,-0.530
5234,2.115,-0.600
5235,1.430,-0.535
5236,0.600,-0.385
5237,0.180,-0.255
5238,-0.040,-0.130
5239,-0.085,-0.065
5240,-0.055,-0.020
5241,-0.060,-0.010
5242,-0.090,-0.020
5243,-0.115,-0.025
5244,-0.150,-0.025
5245,-0.175,-0.025
5246,-0.200,-0.030
5247,-0.205,-0.035
5248,-0.210,-0.035
5249,-0.215,-0.030
5250,-0.215,-0.035
5251,-0.220,-0.025
5252,-0.225,-0.035
5253,-0.225,-0.035
5254,-0.225,-0.035
5255,-0.220,-0.035
5256,-0.215,-0.035
5257,-0.205,-0.030
5258,-0.195,-0.025
5259,-0.195,-0.020
5260,-0.195,-0.015
5261,-0.200,-0.020
5262,-0.205,-0.025
5263,-0.195,-0.025
5264,-0.185,-0.025
5265,-0.175,-0.020
5266,-0.165,-0.015
5267,-0.165,-0.020
5268,-0.165,-0.025
5269,-0.165,-0.025
5270,-0.160,-0.025
5271,-0.145,-0.020
5272,-0.135,-0.015
5273,-0.130,-0.010
5274,-0.125,-0.005
5275,-0.120,-0.005
5276,-0.115,-0.005
5277,-0.110,-0.010
5278,-0.100,-0.015
5279,-0.090,-0.015
5280,-0.075,-0.010
5281,-0.055,0.000
5282,-0.040,0.005
5283,-0.030,0.000
5284,-0.020,-0.005
5285,-0.010,-0.005
5286,0.015,-0.005
5287,0.040,-0.005
5288,0.065,0.000
5289,0.090,0.010
5290,0.110,0.015
5291,0.130,0.020
5292,0.160,0.020
5293,0.185,0.015
5294,0.220,0.015
5295,0.255,0.015
5296,0.295,0.025
5297,0.335,0.035
5298,0.365,0.040
5299,0.395,0.045
5300,0.415,0.040
5301,0.440,0.035
5302,0.470,0.045
5303,0.500,0.055
5304,0.525,0.060
5305,0.545,0.065
5306,0.565,0.065
5307,0.575,0.065
5308,0.570,0.065
5309,0.555,0.065
5310,0.515,0.065
5311,0.480,0.065
5312,0.440,0.065
5313,0.380,0.060
5314,0.310,0.050
5315,0.235,0.035
5316,0.160,0.010
5317,0.095,-0.005
5318,0.040,-0.010
5319,-0.010,-0.015
5320,-0.050,-0.020
5321,-0.085,-0.025
5322,-0.115,-0.025
5323,-0.140,-0.030
5324,-0.160,-0.040
5325,-0.165,-0.045
5326,-0.170,-0.045
5327,-0.175,-0.045
5328,-0.175,-0.040
5329,-0.175,-0.035
5330,-0.180,-0.040
5331,-0.185,-0.045
5332,-0.190,-0.050
5333,-0.195,-0.055
5334,-0.185,-0.045
5335,-0.180,-0.045
5336,-0.175,-0.045
5337,-0.180,-0.040
5338,-0.185,-0.035
5339,-0.185,-0.040
5340,-0.185,-0.045
5341,-0.180,-0.040
5342,-0.175,-0.035
5343,-0.165,-0.030
5344,-0.155,-0.025
5345,-0.160,-0.030
5346,-0.165,-0.035
5347,-0.170,-0.040
5348,-0.175,-0.045
5349,-0.165,-0.040
5350,-0.155,-0.035
5351,-0.155,-0.035
5352,-0.155,-0.035
5353,-0.155,-0.035
5354,-0.155,-0.035
5355,-0.160,-0.040
5356,-0.165,-0.045
5357,-0.160,-0.045
5358,-0.150,-0.045
5359,-0.140,-0.040
5360,-0.140,-0.035
5361,-0.155,-0.035
5362,-0.165,-0.040
5363,-0.165,-0.050
5364,-0.165,-0.055
5365,-0.165,-0.050
5366,-0.165,-0.045
5367,-0.170,-0.045
5368,-0.175,-0.045
5369,-0.180,-0.045
5370,-0.185,-0.045
5371,-0.190,-0.050
5372,-0.195,-0.055
5373,-0.190,-0.055
5374,-0.185,-0.055
5375,-0.185,-0.055
5376,-0.190,-0.065
5377,-0.195,-0.065
5378,-0.200,-0.070
5379,-0.205,-0.075
5380,-0.200,-0.075
5381,-0.195,-0.075
5382,-0.195,-0.070
5383,-0.195,-0.065
5384,-0.195,-0.065
5385,-0.195,-0.065
5386,-0.200,-0.070
5387,-0.205,-0.075
5388,-0.200,-0.075
5389,-0.195,-0.075
5390,-0.190,-0.070
5391,-0.185,-0.065
5392,-0.190,-0.070
5393,-0.195,-0.075
5394,-0.200,-0.080
5395,-0.205,-0.085
5396,-0.190,-0.080
5397,-0.185,-0.075
5398,-0.180,-0.080
5399,-0.175,-0.085
5400,-0.175,-0.080
5401,-0.180,-0.075
5402,-0.190,-0.075
5403,-0.195,-0.075
5404,-0.190,-0.080
5405,-0.180,-0.085
5406,-0.170,-0.080
5407,-0.165,-0.075
5408,-0.170,-0.080
5409,-0.175,-0.085
5410,-0.180,-0.080
5411,-0.185,-0.075
5412,-0.180,-0.075
5413,-0.175,-0.075
5414,-0.170,-0.080
5415,-0.165,-0.085
5416,-0.170,-0.080
5417,-0.175,-0.080
5418,-0.175,-0.085
5419,-0.170,-0.080
5420,-0.165,-0.075
5421,-0.160,-0.070
5422,-0.155,-0.065
5423,-0.155,-0.070
5424,-0.155,-0.075
5425,-0.160,-0.080
5426,-0.165,-0.085
5427,-0.160,-0.085
5428,-0.155,-0.085
5429,-0.150,-0.080
5430,-0.145,-0.075
5431,-0.145,-0.075
5432,-0.145,-0.075
5433,-0.145,-0.080
5434,-0.145,-0.085
5435,-0.140,-0.080
5436,-0.135,-0.075
5437,-0.135,-0.065
5438,-0.135,-0.060
5439,-0.130,-0.070
5440,-0.125,-0.075
5441,-0.120,-0.070
5442,-0.095,-0.050
5443,-0.060,-0.025
5444,-0.045,-0.015
5445,-0.045,-0.020
5446,-0.035,-0.025
5447,-0.020,-0.025
5448,0.015,-0.030
5449,0.060,-0.040
5450,0.040,-0.065
5451,-0.005,-0.095
5452,-0.045,-0.100
5453,-0.085,-0.090
5454,-0.095,-0.085
5455,-0.095,-0.085
5456,-0.095,-0.090
5457,-0.100,-0.100
5458,-0.110,-0.095
5459,-0.125,-0.075
5460,-0.135,-0.070
5461,-0.145,-0.065
5462,-0.150,-0.075
5463,-0.155,-0.085
5464,-0.155,-0.090
5465,-0.155,-0.095
5466,-0.160,-0.090
5467,-0.165,-0.085
5468,-0.155,-0.080
5469,-0.145,-0.075
5470,-0.145,-0.075
5471,-0.145,-0.075
5472,-0.150,-0.080
5473,-0.155,-0.085
5474,-0.150,-0.080
5475,-0.145,-0.075
5476,-0.145,-0.075
5477,-0.145,-0.075
5478,-0.135,-0.075
5479,-0.125,-0.060
5480,-0.125,-0.025
5481,-0.220,0.035
5482,-0.395,0.110
5483,-0.510,0.145
5484,-0.580,0.150
5485,-0.340,-0.060
5486,0.090,-0.410
5487,0.740,-0.750
5488,1.490,-1.085
5489,2.025,-0.950
5490,2.475,-0.625
5491,2.620,-0.565
5492,2.665,-0.595
5493,1.965,-0.510
5494,1.090,-0.385
5495,0.525,-0.220
5496,0.015,-0.045
5497,-0.035,0.015
5498,-0.030,0.060
5499,-0.030,0.065
5500,-0.025,0.065
5501,-0.085,0.045
5502,-0.125,0.035
5503,-0.145,0.030
5504,-0.165,0.025
5505,-0.175,0.030
5506,-0.185,0.035
5507,-0.195,0.040
5508,-0.205,0.045
5509,-0.205,0.045
5510,-0.205,0.045
5511,-0.205,0.035
5512,-0.205,0.025
5513,-0.205,0.030
5514,-0.205,0.035
5515,-0.200,0.040
5516,-0.195,0.045
5517,-0.190,0.045
5518,-0.185,0.045
5519,-0.190,0.035
5520,-0.195,0.025
5521,-0.180,0.040
5522,-0.175,0.045
5523,-0.170,0.045
5524,-0.165,0.045
5525,-0.165,0.050
5526,-0.165,0.050
5527,-0.165,0.035
5528,-0.160,0.030
5529,-0.150,0.040
5530,-0.135,0.050
5531,-0.120,0.060
5532,-0.115,0.065
5533,-0.110,0.060
5534,-0.105,0.055
5535,-0.105,0.050
5536,-0.095,0.045
5537,-0.080,0.050
5538,-0.070,0.055
5539,-0.060,0.060
5540,-0.045,0.065
5541,-0.030,0.070
5542,-0.015,0.070
5543,-0.005,0.065
5544,0.015,0.075
5545,0.035,0.085
5546,0.065,0.095
5547,0.095,0.105
5548,0.115,0.105
5549,0.135,0.105
5550,0.155,0.105
5551,0.180,0.105
5552,0.215,0.110
5553,0.250,0.115
5554,0.290,0.125
5555,0.320,0.135
5556,0.355,0.140
5557,0.385,0.145
5558,0.415,0.145
5559,0.445,0.145
5560,0.485,0.145
5561,0.510,0.145
5562,0.530,0.150
5563,0.550,0.155
5564,0.565,0.160
5565,0.575,0.160
5566,0.575,0.150
5567,0.565,0.145
5568,0.545,0.145
5569,0.510,0.140
5570,0.470,0.130
5571,0.420,0.120
5572,0.370,0.110
5573,0.300,0.090
5574,0.225,0.070
5575,0.160,0.055
5576,0.100,0.040
5577,0.045,0.030
5578,-0.005,0.020
5579,-0.050,0.005
5580,-0.090,-0.010
5581,-0.115,-0.020
5582,-0.140,-0.030
5583,-0.150,-0.035
5584,-0.165,-0.035
5585,-0.170,-0.035
5586,-0.175,-0.035
5587,-0.175,-0.030
5588,-0.175,-0.025
5589,-0.180,-0.035
5590,-0.185,-0.045
5591,-0.185,-0.045
5592,-0.185,-0.045
5593,-0.180,-0.035
5594,-0.175,-0.025
5595,-0.180,-0.030
5596,-0.185,-0.035
5597,-0.185,-0.035
5598,-0.185,-0.035
5599,-0.180,-0.035
5600,-0.175,-0.035
5601,-0.170,-0.030
5602,-0.165,-0.025
5603,-0.165,-0.030
5604,-0.165,-0.035
5605,-0.170,-0.035
5606,-0.175,-0.035
5607,-0.170,-0.030
5608,-0.165,-0.025
5609,-0.160,-0.020
5610,-0.155,-0.015
5611,-0.155,-0.015
5612,-0.155,-0.020
5613,-0.160,-0.030
5614,-0.165,-0.035
5615,-0.160,-0.030
5616,-0.155,-0.025
5617,-0.155,-0.025
5618,-0.155,-0.025
5619,-0.155,-0.025
5620,-0.155,-0.025
5621,-0.160,-0.030
5622,-0.165,-0.035
5623,-0.170,-0.035
5624,-0.175,-0.035
5625,-0.175,-0.035
5626,-0.170,-0.035
5627,-0.175,-0.035
5628,-0.180,-0.045
5629,-0.185,-0.055
5630,-0.180,-0.055
5631,-0.175,-0.055
5632,-0.175,-0.050
5633,-0.175,-0.045
5634,-0.180,-0.055
5635,-0.185,-0.065
5636,-0.190,-0.070
5637,-0.195,-0.075
5638,-0.195,-0.075
5639,-0.195,-0.075
5640,-0.195,-0.070
5641,-0.195,-0.065
5642,-0.195,-0.070
5643,-0.195,-0.075
5644,-0.200,-0.075
5645,-0.205,-0.075
5646,-0.200,-0.080
5647,-0.195,-0.080
5648,-0.195,-0.070
5649,-0.195,-0.065
5650,-0.195,-0.070
5651,-0.195,-0.075
5652,-0.195,-0.080
5653,-0.195,-0.085
5654,-0.200,-0.085
5655,-0.200,-0.085
5656,-0.190,-0.080
5657,-0.185,-0.075
5658,-0.185,-0.075
5659,-0.185,-0.080
5660,-0.185,-0.090
5661,-0.185,-0.095
5662,-0.185,-0.090
5663,-0.185,-0.085
5664,-0.180,-0.085
5665,-0.175,-0.085
5666,-0.175,-0.080
5667,-0.185,-0.085
5668,-0.195,-0.095
5669,-0.190,-0.095
5670,-0.185,-0.095
5671,-0.180,-0.085
5672,-0.175,-0.075
5673,-0.175,-0.075
5674,-0.175,-0.075
5675,-0.180,-0.085
5676,-0.185,-0.095
5677,-0.180,-0.095
5678,-0.175,-0.095
5679,-0.175,-0.090
5680,-0.175,-0.085
5681,-0.170,-0.085
5682,-0.165,-0.085
5683,-0.165,-0.085
5684,-0.165,-0.085
5685,-0.160,-0.085
5686,-0.155,-0.085
5687,-0.150,-0.080
5688,-0.145,-0.075
5689,-0.150,-0.080
5690,-0.155,-0.085
5691,-0.160,-0.090
5692,-0.165,-0.095
5693,-0.160,-0.095
5694,-0.155,-0.095
5695,-0.155,-0.090
5696,-0.155,-0.085
5697,-0.150,-0.080
5698,-0.145,-0.075
5699,-0.150,-0.080
5700,-0.145,-0.085
5701,-0.130,-0.090
5702,-0.115,-0.080
5703,-0.100,-0.060
5704,-0.080,-0.040
5705,-0.060,-0.020
5706,-0.055,-0.030
5707,-0.060,-0.050
5708,-0.045,-0.050
5709,-0.015,-0.035
5710,0.040,-0.045
5711,0.095,-0.055
5712,0.050,-0.090
5713,0.000,-0.125
5714,-0.050,-0.120
5715,-0.095,-0.115
5716,-0.095,-0.115
5717,-0.095,-0.115
5718,-0.095,-0.110
5719,-0.100,-0.105
5720,-0.120,-0.095
5721,-0.135,-0.085
5722,-0.145,-0.090
5723,-0.155,-0.095
5724,-0.155,-0.095
5725,-0.155,-0.095
5726,-0.155,-0.095
5727,-0.155,-0.095
5728,-0.150,-0.090
5729,-0.145,-0.085
5730,-0.150,-0.090
5731,-0.155,-0.095
5732,-0.150,-0.095
5733,-0.145,-0.095
5734,-0.140,-0.090
5735,-0.140,-0.085
5736,-0.150,-0.085
5737,-0.155,-0.085
5738,-0.155,-0.090
5739,-0.150,-0.095
5740,-0.140,-0.090
5741,-0.130,-0.085
5742,-0.120,-0.085
5743,-0.150,-0.010
5744,-0.195,0.090
5745,-0.380,0.090
5746,-0.585,0.070
5747,-0.580,0.045
5748,-0.550,0.020
5749,0.070,-0.390
5750,-0.545,0.015
5751,1.395,-0.860
5752,2.050,-0.895
5753,2.400,-0.665
5754,2.710,-0.460
5755,2.520,-0.550
5756,2.225,-0.600
5757,1.295,-0.410
5758,0.480,-0.235
5759,0.180,-0.100
5760,-0.055,0.005
5761,-0.055,0.030
5762,-0.060,0.045
5763,-0.080,0.030
5764,-0.100,0.015
5765,-0.115,0.020
5766,-0.130,0.025
5767,-0.160,0.020
5768,-0.180,0.015
5769,-0.195,0.005
5770,-0.205,-0.005
5771,-0.200,-0.005
5772,-0.195,-0.005
5773,-0.195,0.000
5774,-0.195,0.005
5775,-0.195,0.010
5776,-0.195,0.015
5777,-0.195,0.010
5778,-0.195,0.005
5779,-0.190,0.010
5780,-0.180,0.015
5781,-0.170,0.015
5782,-0.165,0.015
5783,-0.165,0.015
5784,-0.165,0.015
5785,-0.165,0.010
5786,-0.160,0.005
5787,-0.150,0.005
5788,-0.145,0.005
5789,-0.145,0.010
5790,-0.145,0.015
5791,-0.140,0.020
5792,-0.135,0.015
5793,-0.135,0.005
5794,-0.125,0.010
5795,-0.115,0.015
5796,-0.100,0.020
5797,-0.085,0.025
5798,-0.075,0.025
5799,-0.065,0.025
5800,-0.060,0.025
5801,-0.055,0.025
5802,-0.040,0.025
5803,-0.025,0.025
5804,-0.010,0.025
5805,0.005,0.025
5806,0.025,0.035
5807,0.040,0.045
5808,0.060,0.045
5809,0.085,0.045
5810,0.110,0.055
5811,0.135,0.065
5812,0.165,0.075
5813,0.200,0.085
5814,0.230,0.085
5815,0.260,0.085
5816,0.290,0.085
5817,0.325,0.085
5818,0.370,0.085
5819,0.395,0.090
5820,0.415,0.100
5821,0.445,0.105
5822,0.475,0.110
5823,0.500,0.115
5824,0.525,0.115
5825,0.545,0.115
5826,0.560,0.120
5827,0.575,0.125
5828,0.590,0.125
5829,0.570,0.125
5830,0.540,0.120
5831,0.495,0.100
5832,0.450,0.080
5833,0.385,0.065
5834,0.315,0.045
5835,0.255,0.035
5836,0.195,0.025
5837,0.125,0.010
5838,0.060,-0.005
5839,0.005,-0.020
5840,-0.045,-0.035
5841,-0.080,-0.045
5842,-0.105,-0.055
5843,-0.115,-0.055
5844,-0.125,-0.055
5845,-0.140,-0.065
5846,-0.155,-0.075
5847,-0.165,-0.075
5848,-0.175,-0.075
5849,-0.175,-0.080
5850,-0.175,-0.085
5851,-0.175,-0.080
5852,-0.175,-0.075
5853,-0.175,-0.080
5854,-0.175,-0.085
5855,-0.175,-0.085
5856,-0.175,-0.085
5857,-0.175,-0.085
5858,-0.175,-0.080
5859,-0.170,-0.070
5860,-0.165,-0.065
5861,-0.170,-0.070
5862,-0.175,-0.075
5863,-0.180,-0.080
5864,-0.180,-0.085
5865,-0.170,-0.080
5866,-0.165,-0.075
5867,-0.165,-0.070
5868,-0.165,-0.065
5869,-0.160,-0.065
5870,-0.155,-0.065
5871,-0.160,-0.070
5872,-0.165,-0.075
5873,-0.165,-0.075
5874,-0.160,-0.070
5875,-0.165,-0.075
5876,-0.155,-0.060
5877,-0.165,-0.065
5878,-0.165,-0.070
5879,-0.165,-0.075
5880,-0.160,-0.075
5881,-0.155,-0.075
5882,-0.155,-0.075
5883,-0.155,-0.075
5884,-0.155,-0.070
5885,-0.155,-0.065
5886,-0.165,-0.075
5887,-0.175,-0.085
5888,-0.175,-0.095
5889,-0.175,-0.105
5890,-0.165,-0.095
5891,-0.155,-0.085
5892,-0.165,-0.085
5893,-0.175,-0.085
5894,-0.185,-0.095
5895,-0.195,-0.105
5896,-0.195,-0.110
5897,-0.190,-0.115
5898,-0.180,-0.110
5899,-0.175,-0.105
5900,-0.180,-0.105
5901,-0.190,-0.110
5902,-0.200,-0.120
5903,-0.205,-0.125
5904,-0.200,-0.125
5905,-0.190,-0.125
5906,-0.180,-0.120
5907,-0.180,-0.115
5908,-0.190,-0.120
5909,-0.195,-0.125
5910,-0.200,-0.130
5911,-0.205,-0.135
5912,-0.205,-0.135
5913,-0.205,-0.135
5914,-0.200,-0.135
5915,-0.195,-0.135
5916,-0.190,-0.130
5917,-0.190,-0.130
5918,-0.195,-0.135
5919,-0.185,-0.135
5920,-0.175,-0.135
5921,-0.165,-0.125
5922,-0.155,-0.115
5923,-0.165,-0.120
5924,-0.175,-0.125
5925,-0.180,-0.130
5926,-0.185,-0.135
5927,-0.185,-0.140
5928,-0.185,-0.145
5929,-0.185,-0.145
5930,-0.185,-0.145
5931,-0.185,-0.140
5932,-0.185,-0.135
5933,-0.185,-0.140
5934,-0.185,-0.145
5935,-0.175,-0.140
5936,-0.165,-0.135
5937,-0.160,-0.130
5938,-0.155,-0.125
5939,-0.160,-0.130
5940,-0.165,-0.135
5941,-0.170,-0.140
5942,-0.175,-0.145
5943,-0.170,-0.150
5944,-0.165,-0.155
5945,-0.165,-0.150
5946,-0.160,-0.145
5947,-0.150,-0.140
5948,-0.145,-0.135
5949,-0.150,-0.140
5950,-0.155,-0.145
5951,-0.150,-0.145
5952,-0.140,-0.140
5953,-0.130,-0.130
5954,-0.125,-0.125
5955,-0.130,-0.125
5956,-0.135,-0.130
5957,-0.135,-0.140
5958,-0.120,-0.135
5959,-0.095,-0.115
5960,-0.070,-0.105
5961,-0.045,-0.095
5962,-0.050,-0.105
5963,-0.055,-0.115
5964,-0.025,-0.100
5965,0.010,-0.085
5966,0.050,-0.120
5967,0.075,-0.145
5968,0.020,-0.160
5969,-0.030,-0.175
5970,-0.060,-0.165
5971,-0.085,-0.155
5972,-0.095,-0.170
5973,-0.105,-0.185
5974,-0.110,-0.175
5975,-0.120,-0.165
5976,-0.135,-0.155
5977,-0.145,-0.145
5978,-0.150,-0.155
5979,-0.155,-0.165
5980,-0.155,-0.170
5981,-0.155,-0.175
5982,-0.150,-0.170
5983,-0.145,-0.160
5984,-0.140,-0.150
5985,-0.135,-0.145
5986,-0.140,-0.145
5987,-0.145,-0.150
5988,-0.150,-0.160
5989,-0.155,-0.165
5990,-0.150,-0.160
5991,-0.145,-0.155
5992,-0.145,-0.155
5993,-0.145,-0.155
5994,-0.140,-0.155
5995,-0.130,-0.155
5996,-0.120,-0.155
5997,-0.145,-0.090
5998,-0.180,-0.010
5999,-0.375,-0.005
6000,-0.185,-0.005
6001,-0.590,-0.005
6002,-0.585,-0.020
6003,-0.060,-0.350
6004,0.480,-0.665
6005,1.220,-0.820
6006,1.910,-0.920
6007,2.300,-0.635
6008,2.625,-0.420
6009,2.655,-0.520
6010,2.480,-0.590
6011,1.635,-0.565
6012,0.875,-0.495
6013,0.330,-0.320
6014,-0.035,-0.170
6015,-0.025,-0.080
6016,-0.015,-0.025
6017,-0.020,-0.020
6018,-0.040,-0.025
6019,-0.080,-0.050
6020,-0.110,-0.065
6021,-0.135,-0.065
6022,-0.150,-0.065
6023,-0.160,-0.060
6024,-0.165,-0.055
6025,-0.170,-0.055
6026,-0.175,-0.055
6027,-0.175,-0.060
6028,-0.175,-0.065
6029,-0.175,-0.060
6030,-0.175,-0.055
6031,-0.170,-0.055
6032,-0.165,-0.055
6033,-0.170,-0.055
6034,-0.175,-0.055
6035,-0.180,-0.060
6036,-0.180,-0.065
6037,-0.170,-0.060
6038,-0.160,-0.055
6039,-0.150,-0.055
6040,-0.145,-0.055
6041,-0.145,-0.050
6042,-0.145,-0.055
6043,-0.145,-0.065
6044,-0.140,-0.060
6045,-0.135,-0.055
6046,-0.125,-0.045
6047,-0.115,-0.035
6048,-0.115,-0.045
6049,-0.115,-0.055
6050,-0.110,-0.055
6051,-0.105,-0.055
6052,-0.095,-0.055
6053,-0.085,-0.055
6054,-0.075,-0.050
6055,-0.065,-0.045
6056,-0.055,-0.040
6057,-0.045,-0.035
6058,-0.040,-0.040
6059,-0.025,-0.045
6060,0.000,-0.040
6061,0.025,-0.035
6062,0.050,-0.025
6063,0.070,-0.015
6064,0.080,-0.015
6065,0.095,-0.015
6066,0.120,-0.020
6067,0.150,-0.025
6068,0.180,-0.020
6069,0.210,-0.015
6070,0.235,-0.010
6071,0.265,-0.005
6072,0.305,0.000
6073,0.335,0.005
6074,0.365,0.005
6075,0.395,0.010
6076,0.425,0.020
6077,0.460,0.030
6078,0.500,0.040
6079,0.515,0.040
6080,0.530,0.030
6081,0.545,0.025
6082,0.560,0.030
6083,0.580,0.035
6084,0.605,0.025
6085,0.590,0.035
6086,0.575,0.045
6087,0.540,0.040
6088,0.500,0.035
6089,0.440,0.020
6090,0.375,0.005
6091,0.310,-0.005
6092,0.245,-0.015
6093,0.185,-0.020
6094,0.120,-0.025
6095,0.055,-0.040
6096,-0.005,-0.060
6097,-0.040,-0.080
6098,-0.070,-0.095
6099,-0.090,-0.090
6100,-0.110,-0.085
6101,-0.125,-0.090
6102,-0.135,-0.095
6103,-0.140,-0.095
6104,-0.145,-0.095
6105,-0.160,-0.100
6106,-0.165,-0.105
6107,-0.165,-0.105
6108,-0.165,-0.105
6109,-0.160,-0.100
6110,-0.160,-0.095
6111,-0.170,-0.095
6112,-0.175,-0.095
6113,-0.175,-0.095
6114,-0.170,-0.095
6115,-0.160,-0.095
6116,-0.155,-0.095
6117,-0.160,-0.100
6118,-0.165,-0.105
6119,-0.165,-0.100
6120,-0.165,-0.095
6121,-0.160,-0.090
6122,-0.155,-0.085
6123,-0.155,-0.090
6124,-0.155,-0.095
6125,-0.155,-0.095
6126,-0.155,-0.095
6127,-0.155,-0.095
6128,-0.155,-0.090
6129,-0.155,-0.085
6130,-0.150,-0.090
6131,-0.145,-0.095
6132,-0.150,-0.095
6133,-0.155,-0.095
6134,-0.155,-0.095
6135,-0.155,-0.095
6136,-0.155,-0.095
6137,-0.155,-0.095
6138,-0.160,-0.100
6139,-0.165,-0.105
6140,-0.165,-0.105
6141,-0.165,-0.105
6142,-0.170,-0.100
6143,-0.175,-0.095
6144,-0.170,-0.105
6145,-0.165,-0.115
6146,-0.170,-0.120
6147,-0.175,-0.125
6148,-0.180,-0.120
6149,-0.185,-0.115
6150,-0.185,-0.110
6151,-0.185,-0.105
6152,-0.185,-0.110
6153,-0.185,-0.115
6154,-0.190,-0.120
6155,-0.195,-0.125
6156,-0.190,-0.120
6157,-0.185,-0.115
6158,-0.190,-0.120
6159,-0.195,-0.125
6160,-0.195,-0.130
6161,-0.195,-0.135
6162,-0.195,-0.140
6163,-0.195,-0.145
6164,-0.195,-0.140
6165,-0.195,-0.135
6166,-0.195,-0.135
6167,-0.195,-0.135
6168,-0.195,-0.135
6169,-0.190,-0.135
6170,-0.185,-0.135
6171,-0.185,-0.130
6172,-0.185,-0.125
6173,-0.185,-0.135
6174,-0.185,-0.145
6175,-0.190,-0.150
6176,-0.195,-0.155
6177,-0.190,-0.145
6178,-0.185,-0.135
6179,-0.180,-0.135
6180,-0.175,-0.135
6181,-0.180,-0.130
6182,-0.185,-0.125
6183,-0.180,-0.135
6184,-0.175,-0.145
6185,-0.180,-0.140
6186,-0.185,-0.135
6187,-0.180,-0.135
6188,-0.175,-0.135
6189,-0.170,-0.140
6190,-0.165,-0.145
6191,-0.170,-0.150
6192,-0.175,-0.150
6193,-0.170,-0.140
6194,-0.165,-0.135
6195,-0.160,-0.130
6196,-0.155,-0.125
6197,-0.160,-0.130
6198,-0.165,-0.140
6199,-0.160,-0.150
6200,-0.140,-0.140
6201,-0.120,-0.120
6202,-0.100,-0.105
6203,-0.080,-0.090
6204,-0.075,-0.090
6205,-0.075,-0.100
6206,-0.055,-0.105
6207,-0.030,-0.100
6208,0.015,-0.095
6209,0.065,-0.105
6210,0.030,-0.135
6211,-0.005,-0.165
6212,-0.045,-0.150
6213,-0.085,-0.135
6214,-0.090,-0.150
6215,-0.095,-0.165
6216,-0.105,-0.160
6217,-0.115,-0.155
6218,-0.135,-0.140
6219,-0.155,-0.125
6220,-0.160,-0.135
6221,-0.165,-0.145
6222,-0.165,-0.150
6223,-0.165,-0.155
6224,-0.165,-0.150
6225,-0.165,-0.145
6226,-0.165,-0.140
6227,-0.165,-0.135
6228,-0.165,-0.135
6229,-0.165,-0.135
6230,-0.165,-0.150
6231,-0.165,-0.155
6232,-0.165,-0.150
6233,-0.165,-0.145
6234,-0.165,-0.140
6235,-0.165,-0.135
6236,-0.165,-0.140
6237,-0.165,-0.145
6238,-0.160,-0.145
6239,-0.140,-0.140
6240,-0.115,-0.130
6241,-0.170,-0.065
6242,-0.255,0.015
6243,-0.425,0.035
6244,-0.615,0.035
6245,-0.615,0.000
6246,-0.580,-0.040
6247,0.080,-0.390
6248,0.810,-0.775
6249,1.500,-0.710
6250,0.845,-0.795
6251,2.505,-0.535
6252,2.800,-0.455
6253,2.615,-0.560
6254,2.365,-0.645
6255,1.460,-0.530
6256,0.630,-0.405
6257,0.240,-0.250
6258,-0.080,-0.115
6259,-0.045,-0.055
6260,-0.020,-0.005
6261,-0.045,-0.030
6262,-0.070,-0.045
6263,-0.100,-0.055
6264,-0.125,-0.060
6265,-0.135,-0.045
6266,-0.150,-0.035
6267,-0.170,-0.040
6268,-0.190,-0.045
6269,-0.205,-0.050
6270,-0.215,-0.055
6271,-0.210,-0.055
6272,-0.205,-0.055
6273,-0.205,-0.055
6274,-0.205,-0.050
6275,-0.200,-0.040
6276,-0.195,-0.040
6277,-0.200,-0.050
6278,-0.200,-0.055
6279,-0.190,-0.055
6280,-0.180,-0.055
6281,-0.170,-0.050
6282,-0.165,-0.045
6283,-0.170,-0.045
6284,-0.175,-0.045
6285,-0.175,-0.050
6286,-0.175,-0.055
6287,-0.175,-0.055
6288,-0.175,-0.055
6289,-0.170,-0.050
6290,-0.160,-0.045
6291,-0.150,-0.045
6292,-0.140,-0.045
6293,-0.135,-0.045
6294,-0.130,-0.045
6295,-0.125,-0.045
6296,-0.120,-0.040
6297,-0.115,-0.035
6298,-0.105,-0.030
6299,-0.095,-0.025
6300,-0.085,-0.030
6301,-0.075,-0.035
6302,-0.055,-0.035
6303,-0.035,-0.035
6304,-0.020,-0.035
6305,-0.005,-0.035
6306,0.015,-0.025
6307,0.030,-0.015
6308,0.050,-0.020
6309,0.075,-0.025
6310,0.105,-0.020
6311,0.140,-0.015
6312,0.175,-0.010
6313,0.205,-0.005
6314,0.225,-0.005
6315,0.245,-0.005
6316,0.270,-0.005
6317,0.305,-0.005
6318,0.350,-0.005
6319,0.385,-0.005
6320,0.420,-0.005
6321,0.455,0.000
6322,0.485,0.010
6323,0.510,0.015
6324,0.530,0.010
6325,0.555,0.005
6326,0.580,0.005
6327,0.590,0.020
6328,0.600,0.040
6329,0.565,0.045
6330,0.520,0.040
6331,0.470,0.030
6332,0.420,0.020
6333,0.355,0.015
6334,0.285,0.005
6335,0.215,-0.005
6336,0.145,-0.015
6337,0.090,-0.025
6338,0.030,-0.035
6339,-0.020,-0.050
6340,-0.065,-0.065
6341,-0.085,-0.070
6342,-0.105,-0.075
6343,-0.120,-0.070
6344,-0.135,-0.065
6345,-0.150,-0.070
6346,-0.165,-0.075
6347,-0.180,-0.080
6348,-0.195,-0.085
6349,-0.195,-0.085
6350,-0.195,-0.085
6351,-0.195,-0.080
6352,-0.195,-0.075
6353,-0.190,-0.070
6354,-0.185,-0.065
6355,-0.190,-0.065
6356,-0.195,-0.065
6357,-0.195,-0.065
6358,-0.195,-0.060
6359,-0.190,-0.050
6360,-0.185,-0.045
6361,-0.185,-0.050
6362,-0.185,-0.055
6363,-0.185,-0.060
6364,-0.185,-0.065
6365,-0.180,-0.060
6366,-0.175,-0.055
6367,-0.180,-0.055
6368,-0.185,-0.055
6369,-0.180,-0.050
6370,-0.175,-0.045
6371,-0.175,-0.050
6372,-0.175,-0.055
6373,-0.180,-0.055
6374,-0.180,-0.055
6375,-0.185,-0.055
6376,-0.175,-0.050
6377,-0.185,-0.055
6378,-0.180,-0.060
6379,-0.175,-0.065
6380,-0.175,-0.065
6381,-0.175,-0.065
6382,-0.175,-0.065
6383,-0.175,-0.065
6384,-0.175,-0.065
6385,-0.175,-0.065
6386,-0.185,-0.075
6387,-0.195,-0.085
6388,-0.195,-0.085
6389,-0.195,-0.085
6390,-0.195,-0.075
6391,-0.195,-0.065
6392,-0.200,-0.075
6393,-0.205,-0.085
6394,-0.205,-0.095
6395,-0.205,-0.105
6396,-0.200,-0.100
6397,-0.195,-0.095
6398,-0.200,-0.090
6399,-0.205,-0.085
6400,-0.205,-0.090
6401,-0.205,-0.095
6402,-0.210,-0.100
6403,-0.215,-0.105
6404,-0.215,-0.105
6405,-0.215,-0.105
6406,-0.210,-0.100
6407,-0.205,-0.095
6408,-0.205,-0.100
6409,-0.205,-0.105
6410,-0.205,-0.105
6411,-0.205,-0.105
6412,-0.205,-0.105
6413,-0.205,-0.105
6414,-0.205,-0.100
6415,-0.205,-0.095
6416,-0.205,-0.095
6417,-0.210,-0.105
6418,-0.215,-0.115
6419,-0.205,-0.110
6420,-0.195,-0.105
6421,-0.190,-0.095
6422,-0.185,-0.085
6423,-0.190,-0.090
6424,-0.195,-0.095
6425,-0.195,-0.105
6426,-0.195,-0.115
6427,-0.190,-0.110
6428,-0.185,-0.105
6429,-0.180,-0.100
6430,-0.175,-0.095
6431,-0.175,-0.095
6432,-0.175,-0.095
6433,-0.175,-0.105
6434,-0.175,-0.120
6435,-0.180,-0.135
6436,-0.185,-0.140
6437,-0.180,-0.125
6438,-0.155,-0.105
6439,-0.115,-0.080
6440,-0.085,-0.065
6441,-0.065,-0.060
6442,-0.045,-0.065
6443,-0.025,-0.085
6444,-0.025,-0.100
6445,-0.045,-0.120
6446,-0.065,-0.125
6447,-0.085,-0.125
6448,-0.100,-0.125
6449,-0.110,-0.125
6450,-0.125,-0.125
6451,-0.140,-0.130
6452,-0.145,-0.130
6453,-0.150,-0.120
6454,-0.170,-0.110
6455,-0.190,-0.100
6456,-0.195,-0.105
6457,-0.190,-0.120
6458,-0.185,-0.125
6459,-0.175,-0.115
6460,-0.175,-0.110
6461,-0.175,-0.105
6462,-0.170,-0.100
6463,-0.165,-0.095
6464,-0.170,-0.105
6465,-0.175,-0.115
6466,-0.180,-0.110
6467,-0.185,-0.105
6468,-0.175,-0.105
6469,-0.165,-0.105
6470,-0.165,-0.105
6471,-0.165,-0.105
6472,-0.160,-0.110
6473,-0.155,-0.100
6474,-0.145,-0.050
6475,-0.190,0.015
6476,-0.330,0.105
6477,-0.465,0.155
6478,-0.590,0.160
6479,-0.550,0.050
6480,-0.325,-0.190
6481,0.210,-0.530
6482,1.020,-0.960
6483,1.660,-1.015
6484,2.170,-0.790
6485,2.515,-0.655
6486,2.760,-0.575
6487,2.495,-0.555
6488,1.965,-0.575
6489,1.230,-0.430
6490,0.420,-0.210
6491,0.110,-0.085
6492,-0.045,0.005
6493,-0.065,0.030
6494,-0.050,0.040
6495,-0.080,0.030
6496,-0.120,0.010
6497,-0.140,0.005
