'sample interval','ECG1','ECG2'
'0.004 sec','mV','mV'
0,-0.125,-0.135
1,-0.140,-0.150
2,-0.145,-0.155
3,-0.140,-0.150
4,-0.135,-0.145
5,-0.140,-0.140
6,-0.145,-0.135
7,-0.140,-0.140
8,-0.135,-0.145
9,-0.140,-0.150
10,-0.145,-0.155
11,-0.140,-0.155
12,-0.135,-0.155
13,-0.130,-0.145
14,-0.125,-0.135
15,-0.130,-0.140
16,-0.135,-0.145
17,-0.140,-0.150
18,-0.145,-0.155
19,-0.140,-0.155
20,-0.135,-0.155
21,-0.150,-0.140
22,-0.150,-0.135
23,-0.135,-0.140
24,-0.125,-0.145
25,-0.130,-0.145
26,-0.135,-0.145
27,-0.130,-0.145
28,-0.125,-0.145
29,-0.120,-0.140
30,-0.115,-0.135
31,-0.120,-0.140
32,-0.125,-0.145
33,-0.125,-0.145
34,-0.125,-0.145
35,-0.125,-0.145
36,-0.125,-0.145
37,-0.130,-0.140
38,-0.135,-0.135
39,-0.135,-0.135
40,-0.135,-0.135
41,-0.130,-0.140
42,-0.125,-0.145
43,-0.125,-0.145
44,-0.110,-0.135
45,-0.095,-0.125
46,-0.100,-0.115
47,-0.105,-0.105
48,-0.080,-0.095
49,-0.055,-0.085
50,-0.055,-0.085
51,-0.055,-0.085
52,-0.050,-0.070
53,-0.040,-0.055
54,-0.010,-0.055
55,0.020,-0.055
56,0.040,-0.060
57,0.055,-0.065
58,0.060,-0.060
59,0.055,-0.065
60,0.025,-0.090
61,0.000,-0.105
62,-0.020,-0.105
63,-0.030,-0.110
64,-0.020,-0.120
65,-0.025,-0.125
66,-0.050,-0.130
67,-0.075,-0.135
68,-0.095,-0.135
69,-0.100,-0.135
70,-0.090,-0.130
71,-0.095,-0.135
72,-0.115,-0.150
73,-0.125,-0.155
74,-0.125,-0.155
75,-0.125,-0.150
76,-0.120,-0.140
77,-0.115,-0.135
78,-0.110,-0.130
79,-0.105,-0.125
80,-0.100,-0.125
81,-0.125,-0.080
82,-0.160,-0.030
83,-0.095,0.035
84,-0.015,0.105
85,0.270,0.280
86,0.555,0.455
87,0.885,0.640
88,1.245,0.780
89,1.815,0.530
90,2.275,0.245
91,2.115,-0.225
92,1.800,-0.635
93,0.865,-0.805
94,0.055,-0.930
95,-0.400,-0.895
96,-0.720,-0.815
97,-0.690,-0.630
98,-0.640,-0.470
99,-0.565,-0.370
100,-0.480,-0.275
101,-0.390,-0.200
102,-0.315,-0.145
103,-0.270,-0.120
104,-0.235,-0.095
105,-0.210,-0.070
106,-0.190,-0.055
107,-0.175,-0.050
108,-0.170,-0.045
109,-0.180,-0.050
110,-0.185,-0.055
111,-0.180,-0.050
112,-0.175,-0.045
113,-0.175,-0.040
114,-0.175,-0.035
115,-0.175,-0.030
116,-0.170,-0.025
117,-0.160,-0.025
118,-0.155,-0.025
119,-0.155,-0.025
120,-0.155,-0.025
121,-0.150,-0.020
122,-0.145,-0.010
123,-0.140,0.000
124,-0.135,0.005
125,-0.135,0.005
126,-0.150,0.005
127,-0.155,0.005
128,-0.140,0.010
129,-0.125,0.015
130,-0.135,0.025
131,-0.145,0.035
132,-0.135,0.045
133,-0.125,0.055
134,-0.125,0.055
135,-0.125,0.055
136,-0.110,0.060
137,-0.095,0.065
138,-0.085,0.075
139,-0.075,0.085
140,-0.075,0.095
141,-0.075,0.105
142,-0.080,0.110
143,-0.080,0.115
144,-0.060,0.120
145,-0.045,0.130
146,-0.045,0.145
147,-0.035,0.160
148,-0.015,0.175
149,0.000,0.185
150,0.010,0.180
151,0.025,0.175
152,0.045,0.180
153,0.065,0.195
154,0.085,0.210
155,0.095,0.215
156,0.095,0.215
157,0.095,0.215
158,0.100,0.210
159,0.115,0.205
160,0.130,0.205
161,0.135,0.205
162,0.135,0.205
163,0.135,0.195
164,0.135,0.180
165,0.125,0.155
166,0.110,0.130
167,0.090,0.105
168,0.075,0.085
169,0.070,0.070
170,0.065,0.055
171,0.030,0.035
172,-0.005,0.015
173,-0.030,-0.010
174,-0.055,-0.035
175,-0.065,-0.050
176,-0.075,-0.065
177,-0.095,-0.070
178,-0.115,-0.075
179,-0.125,-0.085
180,-0.135,-0.095
181,-0.135,-0.100
182,-0.135,-0.105
183,-0.140,-0.105
184,-0.145,-0.105
185,-0.140,-0.105
186,-0.135,-0.105
187,-0.145,-0.100
188,-0.155,-0.100
189,-0.160,-0.110
190,-0.165,-0.115
191,-0.160,-0.110
192,-0.160,-0.105
193,-0.170,-0.100
194,-0.170,-0.095
195,-0.160,-0.095
196,-0.155,-0.095
197,-0.160,-0.100
198,-0.165,-0.105
199,-0.160,-0.100
200,-0.155,-0.090
201,-0.155,-0.080
202,-0.155,-0.075
203,-0.155,-0.080
204,-0.160,-0.085
205,-0.170,-0.090
206,-0.165,-0.095
207,-0.150,-0.090
208,-0.145,-0.085
209,-0.145,-0.085
210,-0.140,-0.085
211,-0.135,-0.085
212,-0.135,-0.090
213,-0.135,-0.095
214,-0.125,-0.095
215,-0.115,-0.095
216,-0.125,-0.095
217,-0.135,-0.095
218,-0.130,-0.095
219,-0.125,-0.095
220,-0.130,-0.105
221,-0.135,-0.115
222,-0.130,-0.115
223,-0.130,-0.115
224,-0.145,-0.115
225,-0.155,-0.115
226,-0.150,-0.115
227,-0.145,-0.115
228,-0.145,-0.125
229,-0.145,-0.135
230,-0.140,-0.130
231,-0.135,-0.125
232,-0.135,-0.125
233,-0.140,-0.125
234,-0.150,-0.130
235,-0.155,-0.135
236,-0.155,-0.135
237,-0.150,-0.135
238,-0.140,-0.135
239,-0.135,-0.135
240,-0.140,-0.130
241,-0.145,-0.125
242,-0.145,-0.125
243,-0.145,-0.130
244,-0.150,-0.140
245,-0.160,-0.140
246,-0.170,-0.130
247,-0.160,-0.125
248,-0.140,-0.120
249,-0.135,-0.115
250,-0.135,-0.115
251,-0.145,-0.130
252,-0.145,-0.135
253,-0.155,-0.130
254,-0.165,-0.125
255,-0.160,-0.125
256,-0.155,-0.125
257,-0.145,-0.125
258,-0.135,-0.125
259,-0.140,-0.130
260,-0.145,-0.135
261,-0.140,-0.130
262,-0.135,-0.125
263,-0.135,-0.120
264,-0.135,-0.115
265,-0.140,-0.115
266,-0.145,-0.115
267,-0.150,-0.125
268,-0.150,-0.135
269,-0.135,-0.130
270,-0.125,-0.125
271,-0.140,-0.120
272,-0.140,-0.115
273,-0.130,-0.115
274,-0.125,-0.115
275,-0.125,-0.115
276,-0.125,-0.115
277,-0.125,-0.110
278,-0.115,-0.095
279,-0.100,-0.080
280,-0.090,-0.075
281,-0.080,-0.070
282,-0.075,-0.070
283,-0.075,-0.080
284,-0.060,-0.075
285,-0.040,-0.060
286,-0.025,-0.050
287,-0.010,-0.040
288,0.025,-0.035
289,0.060,-0.030
290,0.060,-0.035
291,0.050,-0.050
292,0.010,-0.075
293,-0.025,-0.095
294,-0.025,-0.095
295,-0.025,-0.095
296,-0.020,-0.105
297,-0.015,-0.115
298,-0.055,-0.125
299,-0.085,-0.135
300,-0.090,-0.130
301,-0.095,-0.125
302,-0.095,-0.115
303,-0.100,-0.105
304,-0.120,-0.120
305,-0.135,-0.135
306,-0.135,-0.135
307,-0.135,-0.135
308,-0.135,-0.125
309,-0.130,-0.115
310,-0.110,-0.105
311,-0.095,-0.085
312,-0.100,-0.060
313,-0.125,-0.015
314,-0.165,0.050
315,-0.070,0.120
316,0.145,0.185
317,0.410,0.395
318,0.715,0.700
319,1.090,0.830
320,1.510,0.865
321,1.940,0.610
322,2.375,0.220
323,2.050,-0.160
324,1.440,-0.540
325,0.715,-0.740
326,-0.040,-0.885
327,-0.415,-0.860
328,-0.705,-0.795
329,-0.710,-0.655
330,-0.670,-0.500
331,-0.585,-0.410
332,-0.500,-0.330
333,-0.430,-0.245
334,-0.355,-0.155
335,-0.305,-0.125
336,-0.255,-0.095
337,-0.225,-0.070
338,-0.195,-0.045
339,-0.180,-0.045
340,-0.165,-0.045
341,-0.160,-0.040
342,-0.155,-0.035
343,-0.160,-0.030
344,-0.165,-0.025
345,-0.160,-0.025
346,-0.155,-0.025
347,-0.145,-0.025
348,-0.135,-0.025
349,-0.140,-0.015
350,-0.145,-0.005
351,-0.140,-0.005
352,-0.135,-0.005
353,-0.135,-0.005
354,-0.135,-0.005
355,-0.130,-0.005
356,-0.125,-0.005
357,-0.120,0.000
358,-0.115,0.010
359,-0.110,0.020
360,-0.105,0.025
361,-0.110,0.025
362,-0.110,0.025
363,-0.100,0.025
364,-0.090,0.030
365,-0.080,0.040
366,-0.080,0.045
367,-0.090,0.050
368,-0.090,0.055
369,-0.080,0.060
370,-0.070,0.065
371,-0.060,0.070
372,-0.055,0.080
373,-0.060,0.090
374,-0.055,0.100
375,-0.065,0.095
376,-0.030,0.120
377,-0.025,0.125
378,-0.020,0.125
379,-0.015,0.125
380,0.005,0.135
381,0.025,0.145
382,0.030,0.160
383,0.035,0.175
384,0.050,0.170
385,0.065,0.165
386,0.070,0.165
387,0.075,0.165
388,0.085,0.165
389,0.095,0.165
390,0.105,0.170
391,0.115,0.175
392,0.110,0.170
393,0.105,0.165
394,0.115,0.160
395,0.125,0.155
396,0.110,0.150
397,0.105,0.140
398,0.105,0.125
399,0.095,0.105
400,0.075,0.075
401,0.060,0.055
402,0.045,0.035
403,0.035,0.015
404,0.030,0.000
405,0.005,-0.010
406,-0.025,-0.020
407,-0.045,-0.040
408,-0.060,-0.060
409,-0.070,-0.065
410,-0.080,-0.070
411,-0.090,-0.075
412,-0.100,-0.070
413,-0.105,-0.065
414,-0.105,-0.070
415,-0.105,-0.080
416,-0.105,-0.090
417,-0.105,-0.090
418,-0.105,-0.085
419,-0.100,-0.075
420,-0.095,-0.065
421,-0.105,-0.070
422,-0.115,-0.075
423,-0.115,-0.075
424,-0.115,-0.075
425,-0.115,-0.075
426,-0.115,-0.075
427,-0.115,-0.070
428,-0.115,-0.065
429,-0.105,-0.065
430,-0.095,-0.065
431,-0.100,-0.070
432,-0.105,-0.075
433,-0.105,-0.070
434,-0.105,-0.065
435,-0.095,-0.060
436,-0.085,-0.055
437,-0.085,-0.055
438,-0.085,-0.060
439,-0.085,-0.070
440,-0.080,-0.075
441,-0.070,-0.075
442,-0.070,-0.075
443,-0.080,-0.070
444,-0.085,-0.065
445,-0.080,-0.070
446,-0.075,-0.080
447,-0.080,-0.090
448,-0.085,-0.095
449,-0.080,-0.095
450,-0.075,-0.095
451,-0.070,-0.090
452,-0.065,-0.085
453,-0.070,-0.090
454,-0.075,-0.100
455,-0.080,-0.110
456,-0.085,-0.115
457,-0.080,-0.115
458,-0.080,-0.115
459,-0.095,-0.105
460,-0.090,-0.110
461,-0.085,-0.115
462,-0.090,-0.120
463,-0.095,-0.125
464,-0.095,-0.120
465,-0.095,-0.115
466,-0.090,-0.115
467,-0.085,-0.115
468,-0.085,-0.115
469,-0.085,-0.115
470,-0.085,-0.120
471,-0.085,-0.125
472,-0.080,-0.120
473,-0.075,-0.115
474,-0.085,-0.115
475,-0.095,-0.115
476,-0.090,-0.115
477,-0.085,-0.115
478,-0.085,-0.120
479,-0.085,-0.125
480,-0.085,-0.120
481,-0.085,-0.115
482,-0.080,-0.110
483,-0.075,-0.105
484,-0.075,-0.110
485,-0.075,-0.115
486,-0.075,-0.110
487,-0.065,-0.095
488,-0.050,-0.075
489,-0.045,-0.065
490,-0.040,-0.060
491,-0.035,-0.055
492,-0.030,-0.055
493,-0.010,-0.055
494,0.010,-0.055
495,0.030,-0.055
496,0.050,-0.050
497,0.075,-0.045
498,0.100,-0.040
499,0.095,-0.035
500,0.105,-0.035
501,0.050,-0.075
502,0.025,-0.105
503,0.020,-0.105
504,0.015,-0.105
505,0.010,-0.105
506,0.005,-0.105
507,-0.020,-0.125
508,-0.045,-0.145
509,-0.055,-0.145
510,-0.065,-0.145
511,-0.060,-0.135
512,-0.060,-0.125
513,-0.080,-0.135
514,-0.095,-0.145
515,-0.095,-0.145
516,-0.095,-0.145
517,-0.100,-0.140
518,-0.100,-0.135
519,-0.085,-0.125
520,-0.075,-0.110
521,-0.075,-0.085
522,-0.100,-0.050
523,-0.150,0.000
524,-0.095,0.050
525,0.045,0.105
526,0.275,0.255
527,0.555,0.475
528,0.890,0.650
529,1.255,0.800
530,1.750,0.645
531,2.295,0.360
532,2.255,-0.045
533,2.005,-0.490
534,1.200,-0.735
535,0.245,-0.925
536,-0.250,-0.905
537,-0.665,-0.845
538,-0.685,-0.680
539,-0.650,-0.500
540,-0.565,-0.405
541,-0.480,-0.320
542,-0.390,-0.240
543,-0.305,-0.165
544,-0.255,-0.130
545,-0.205,-0.095
546,-0.180,-0.070
547,-0.155,-0.045
548,-0.150,-0.045
549,-0.145,-0.045
550,-0.145,-0.045
551,-0.145,-0.045
552,-0.145,-0.035
553,-0.145,-0.025
554,-0.135,-0.025
555,-0.125,-0.025
556,-0.125,-0.025
557,-0.125,-0.025
558,-0.120,-0.020
559,-0.110,-0.015
560,-0.095,-0.005
561,-0.085,0.005
562,-0.095,0.005
563,-0.105,0.005
564,-0.105,0.000
565,-0.105,-0.005
566,-0.100,0.000
567,-0.095,0.005
568,-0.100,0.010
569,-0.100,0.020
570,-0.090,0.030
571,-0.085,0.035
572,-0.085,0.035
573,-0.080,0.035
574,-0.070,0.040
575,-0.060,0.050
576,-0.050,0.060
577,-0.045,0.070
578,-0.045,0.080
579,-0.045,0.085
580,-0.045,0.085
581,-0.040,0.090
582,-0.030,0.100
583,-0.025,0.115
584,-0.015,0.135
585,0.000,0.140
586,0.015,0.145
587,0.020,0.150
588,0.025,0.155
589,0.045,0.160
590,0.065,0.165
591,0.080,0.180
592,0.095,0.195
593,0.100,0.195
594,0.105,0.195
595,0.115,0.190
596,0.125,0.185
597,0.135,0.185
598,0.145,0.185
599,0.150,0.195
600,0.155,0.205
601,0.160,0.195
602,0.165,0.180
603,0.165,0.165
604,0.165,0.150
605,0.150,0.135
606,0.145,0.120
607,0.140,0.105
608,0.125,0.085
609,0.095,0.055
610,0.070,0.030
611,0.045,0.005
612,0.025,-0.015
613,0.005,-0.030
614,-0.020,-0.040
615,-0.045,-0.050
616,-0.060,-0.055
617,-0.070,-0.060
618,-0.080,-0.080
619,-0.090,-0.100
620,-0.095,-0.105
621,-0.100,-0.105
622,-0.105,-0.105
623,-0.100,-0.100
624,-0.095,-0.095
625,-0.095,-0.095
626,-0.120,-0.105
627,-0.135,-0.105
628,-0.130,-0.105
629,-0.125,-0.105
630,-0.130,-0.100
631,-0.135,-0.095
632,-0.135,-0.100
633,-0.135,-0.105
634,-0.135,-0.105
635,-0.135,-0.105
636,-0.135,-0.100
637,-0.135,-0.095
638,-0.130,-0.085
639,-0.125,-0.075
640,-0.120,-0.080
641,-0.115,-0.085
642,-0.120,-0.090
643,-0.125,-0.095
644,-0.115,-0.090
645,-0.105,-0.085
646,-0.120,-0.085
647,-0.120,-0.085
648,-0.105,-0.080
649,-0.095,-0.080
650,-0.100,-0.090
651,-0.105,-0.095
652,-0.100,-0.095
653,-0.095,-0.095
654,-0.095,-0.090
655,-0.095,-0.090
656,-0.095,-0.100
657,-0.095,-0.105
658,-0.100,-0.110
659,-0.105,-0.115
660,-0.100,-0.115
661,-0.100,-0.115
662,-0.110,-0.115
663,-0.115,-0.115
664,-0.110,-0.120
665,-0.105,-0.125
666,-0.105,-0.130
667,-0.110,-0.135
668,-0.115,-0.135
669,-0.110,-0.130
670,-0.105,-0.125
671,-0.110,-0.130
672,-0.115,-0.135
673,-0.120,-0.140
674,-0.125,-0.145
675,-0.125,-0.145
676,-0.125,-0.145
677,-0.130,-0.140
678,-0.135,-0.135
679,-0.135,-0.140
680,-0.135,-0.145
681,-0.130,-0.145
682,-0.125,-0.145
683,-0.125,-0.145
684,-0.125,-0.145
685,-0.120,-0.145
686,-0.115,-0.145
687,-0.120,-0.140
688,-0.125,-0.140
689,-0.130,-0.150
690,-0.130,-0.155
691,-0.120,-0.150
692,-0.120,-0.145
693,-0.135,-0.145
694,-0.140,-0.145
695,-0.130,-0.145
696,-0.125,-0.145
697,-0.125,-0.145
698,-0.125,-0.145
699,-0.125,-0.145
700,-0.125,-0.140
701,-0.120,-0.130
702,-0.110,-0.120
703,-0.100,-0.110
704,-0.090,-0.105
705,-0.080,-0.100
706,-0.070,-0.095
707,-0.060,-0.090
708,-0.055,-0.080
709,-0.065,-0.065
710,-0.025,-0.065
711,0.015,-0.065
712,0.020,-0.075
713,0.025,-0.085
714,0.050,-0.075
715,0.070,-0.065
716,0.035,-0.085
717,0.005,-0.105
718,-0.015,-0.115
719,-0.035,-0.125
720,-0.035,-0.135
721,-0.035,-0.145
722,-0.050,-0.150
723,-0.070,-0.155
724,-0.095,-0.160
725,-0.115,-0.165
726,-0.115,-0.155
727,-0.115,-0.150
728,-0.125,-0.165
729,-0.135,-0.175
730,-0.150,-0.175
731,-0.150,-0.170
732,-0.140,-0.160
733,-0.135,-0.155
734,-0.135,-0.150
735,-0.130,-0.145
736,-0.115,-0.140
737,-0.140,-0.100
738,-0.195,-0.045
739,-0.135,0.015
740,-0.025,0.080
741,0.225,0.275
742,0.520,0.510
743,0.860,0.650
744,1.215,0.765
745,1.725,0.515
746,2.260,0.195
747,2.170,-0.225
748,2.005,-0.660
749,1.120,-0.820
750,1.995,-0.685
751,-0.280,-0.940
752,-0.735,-0.910
753,-0.725,-0.720
754,-0.710,-0.540
755,-0.630,-0.440
756,-0.545,-0.345
757,-0.460,-0.260
758,-0.380,-0.185
759,-0.335,-0.155
760,-0.290,-0.130
761,-0.245,-0.100
762,-0.215,-0.075
763,-0.210,-0.070
764,-0.205,-0.065
765,-0.205,-0.070
766,-0.205,-0.075
767,-0.210,-0.070
768,-0.210,-0.065
769,-0.195,-0.060
770,-0.185,-0.055
771,-0.200,-0.050
772,-0.200,-0.045
773,-0.190,-0.040
774,-0.185,-0.035
775,-0.180,-0.040
776,-0.175,-0.045
777,-0.170,-0.040
778,-0.165,-0.030
779,-0.165,-0.020
780,-0.165,-0.015
781,-0.160,-0.015
782,-0.155,-0.015
783,-0.160,-0.015
784,-0.160,-0.010
785,-0.150,0.000
786,-0.145,0.005
787,-0.150,0.010
788,-0.150,0.020
789,-0.140,0.030
790,-0.135,0.035
791,-0.135,0.030
792,-0.130,0.035
793,-0.125,0.045
794,-0.105,0.055
795,-0.085,0.065
796,-0.090,0.080
797,-0.095,0.095
798,-0.090,0.090
799,-0.085,0.085
800,-0.070,0.100
801,-0.055,0.115
802,-0.050,0.130
803,-0.045,0.145
804,-0.030,0.150
805,-0.015,0.155
806,0.005,0.150
807,0.015,0.145
808,0.025,0.150
809,0.045,0.160
810,0.070,0.175
811,0.085,0.185
812,0.090,0.185
813,0.095,0.180
814,0.100,0.170
815,0.110,0.170
816,0.120,0.180
817,0.120,0.180
818,0.110,0.170
819,0.110,0.160
820,0.120,0.150
821,0.115,0.125
822,0.095,0.095
823,0.080,0.070
824,0.070,0.050
825,0.045,0.030
826,0.020,0.010
827,-0.005,-0.015
828,-0.030,-0.040
829,-0.065,-0.060
830,-0.100,-0.080
831,-0.105,-0.090
832,-0.105,-0.100
833,-0.125,-0.105
834,-0.155,-0.105
835,-0.150,-0.115
836,-0.145,-0.125
837,-0.160,-0.130
838,-0.175,-0.135
839,-0.175,-0.135
840,-0.175,-0.135
841,-0.165,-0.130
842,-0.155,-0.125
843,-0.160,-0.125
844,-0.165,-0.125
845,-0.175,-0.135
846,-0.185,-0.145
847,-0.175,-0.135
848,-0.165,-0.125
849,-0.175,-0.125
850,-0.185,-0.125
851,-0.180,-0.125
852,-0.175,-0.125
853,-0.175,-0.125
854,-0.175,-0.125
855,-0.175,-0.130
856,-0.170,-0.130
857,-0.160,-0.115
858,-0.155,-0.105
859,-0.160,-0.110
860,-0.165,-0.115
861,-0.165,-0.120
862,-0.160,-0.125
863,-0.150,-0.120
864,-0.150,-0.115
865,-0.160,-0.115
866,-0.165,-0.115
867,-0.160,-0.115
868,-0.155,-0.120
869,-0.150,-0.130
870,-0.145,-0.135
871,-0.145,-0.135
872,-0.145,-0.135
873,-0.140,-0.130
874,-0.135,-0.125
875,-0.135,-0.125
876,-0.150,-0.140
877,-0.155,-0.145
878,-0.155,-0.150
879,-0.155,-0.155
880,-0.165,-0.150
881,-0.175,-0.145
882,-0.160,-0.150
883,-0.145,-0.155
884,-0.150,-0.160
885,-0.155,-0.165
886,-0.160,-0.165
887,-0.165,-0.165
888,-0.160,-0.160
889,-0.155,-0.155
890,-0.160,-0.160
891,-0.165,-0.165
892,-0.170,-0.170
893,-0.175,-0.175
894,-0.165,-0.170
895,-0.160,-0.165
896,-0.175,-0.165
897,-0.180,-0.165
898,-0.170,-0.165
899,-0.165,-0.170
900,-0.170,-0.180
901,-0.175,-0.180
902,-0.170,-0.170
903,-0.165,-0.165
904,-0.165,-0.160
905,-0.165,-0.155
906,-0.170,-0.160
907,-0.175,-0.165
908,-0.170,-0.170
909,-0.165,-0.175
910,-0.160,-0.175
911,-0.160,-0.170
912,-0.170,-0.160
913,-0.175,-0.155
914,-0.175,-0.155
915,-0.175,-0.155
916,-0.170,-0.160
917,-0.160,-0.160
918,-0.155,-0.155
919,-0.150,-0.150
920,-0.145,-0.145
921,-0.150,-0.145
922,-0.155,-0.145
923,-0.140,-0.135
924,-0.125,-0.125
925,-0.115,-0.125
926,-0.105,-0.125
927,-0.105,-0.115
928,-0.100,-0.105
929,-0.080,-0.095
930,-0.060,-0.085
931,-0.035,-0.090
932,-0.010,-0.095
933,0.015,-0.085
934,0.035,-0.075
935,0.025,-0.085
936,0.005,-0.105
937,-0.025,-0.130
938,-0.055,-0.145
939,-0.075,-0.150
940,-0.080,-0.155
941,-0.070,-0.160
942,-0.085,-0.165
943,-0.130,-0.170
944,-0.145,-0.175
945,-0.145,-0.170
946,-0.145,-0.165
947,-0.150,-0.170
948,-0.160,-0.175
949,-0.170,-0.180
950,-0.175,-0.180
951,-0.175,-0.170
952,-0.170,-0.165
953,-0.160,-0.160
954,-0.155,-0.155
955,-0.160,-0.155
956,-0.160,-0.130
957,-0.150,-0.100
958,-0.195,-0.025
959,-0.255,0.055
960,-0.030,0.130
961,0.200,0.225
962,0.520,0.545
963,0.855,0.830
964,1.320,0.780
965,1.775,0.665
966,2.155,0.200
967,2.300,-0.240
968,1.480,-0.580
969,0.705,-0.855
970,0.050,-0.950
971,-0.470,-0.970
972,-0.660,-0.810
973,-0.765,-0.665
974,-0.705,-0.540
975,-0.635,-0.435
976,-0.560,-0.345
977,-0.485,-0.275
978,-0.405,-0.215
979,-0.345,-0.170
980,-0.290,-0.135
981,-0.255,-0.105
982,-0.230,-0.085
983,-0.215,-0.075
984,-0.220,-0.075
985,-0.225,-0.075
986,-0.220,-0.080
987,-0.215,-0.085
988,-0.210,-0.080
989,-0.205,-0.070
990,-0.210,-0.060
991,-0.210,-0.055
992,-0.200,-0.055
993,-0.195,-0.055
994,-0.195,-0.055
995,-0.195,-0.055
996,-0.190,-0.055
997,-0.180,-0.050
998,-0.170,-0.040
999,-0.165,-0.035
1000,-0.165,-0.035
1001,-0.170,-0.035
1002,-0.175,-0.035
1003,-0.170,-0.030
1004,-0.165,-0.025
1005,-0.170,-0.015
1006,-0.175,-0.005
1007,-0.160,-0.005
1008,-0.145,-0.005
1009,-0.145,0.000
1010,-0.145,0.005
1011,-0.135,0.010
1012,-0.125,0.015
1013,-0.120,0.030
1014,-0.115,0.045
1015,-0.105,0.045
1016,-0.095,0.045
1017,-0.095,0.045
1018,-0.090,0.050
1019,-0.075,0.065
1020,-0.065,0.075
1021,-0.080,0.080
1022,-0.075,0.090
1023,-0.055,0.100
1024,-0.035,0.105
1025,-0.015,0.105
1026,0.000,0.105
1027,0.015,0.110
1028,0.030,0.115
1029,0.040,0.120
1030,0.045,0.125
1031,0.050,0.130
1032,0.055,0.135
1033,0.060,0.130
1034,0.070,0.125
1035,0.080,0.130
1036,0.085,0.135
1037,0.080,0.135
1038,0.075,0.130
1039,0.075,0.120
1040,0.075,0.105
1041,0.075,0.090
1042,0.060,0.070
1043,0.045,0.055
1044,0.045,0.040
1045,0.045,0.025
1046,0.010,0.000
1047,-0.025,-0.025
1048,-0.045,-0.045
1049,-0.065,-0.065
1050,-0.075,-0.080
1051,-0.085,-0.095
1052,-0.105,-0.100
1053,-0.125,-0.105
1054,-0.125,-0.110
1055,-0.125,-0.115
1056,-0.135,-0.120
1057,-0.145,-0.125
1058,-0.145,-0.125
1059,-0.145,-0.125
1060,-0.140,-0.120
1061,-0.135,-0.115
1062,-0.135,-0.115
1063,-0.135,-0.115
1064,-0.140,-0.120
1065,-0.145,-0.125
1066,-0.145,-0.120
1067,-0.145,-0.115
1068,-0.150,-0.110
1069,-0.155,-0.105
1070,-0.150,-0.105
1071,-0.145,-0.105
1072,-0.150,-0.110
1073,-0.150,-0.115
1074,-0.140,-0.115
1075,-0.135,-0.110
1076,-0.135,-0.100
1077,-0.130,-0.095
1078,-0.120,-0.095
1079,-0.115,-0.095
1080,-0.120,-0.100
1081,-0.120,-0.105
1082,-0.110,-0.105
1083,-0.105,-0.105
1084,-0.115,-0.105
1085,-0.110,-0.100
1086,-0.105,-0.095
1087,-0.105,-0.105
1088,-0.105,-0.115
1089,-0.100,-0.120
1090,-0.095,-0.125
1091,-0.090,-0.120
1092,-0.085,-0.115
1093,-0.090,-0.120
1094,-0.095,-0.125
1095,-0.095,-0.130
1096,-0.095,-0.135
1097,-0.095,-0.140
1098,-0.095,-0.145
1099,-0.100,-0.145
1100,-0.105,-0.145
1101,-0.110,-0.145
1102,-0.115,-0.145
1103,-0.115,-0.150
1104,-0.115,-0.155
1105,-0.110,-0.150
1106,-0.100,-0.145
1107,-0.090,-0.145
1108,-0.090,-0.145
1109,-0.105,-0.145
1110,-0.115,-0.150
1111,-0.110,-0.160
1112,-0.105,-0.165
1113,-0.105,-0.160
1114,-0.110,-0.155
1115,-0.120,-0.150
1116,-0.120,-0.145
1117,-0.110,-0.145
1118,-0.110,-0.145
1119,-0.120,-0.150
1120,-0.120,-0.155
1121,-0.110,-0.155
1122,-0.100,-0.155
1123,-0.090,-0.150
1124,-0.085,-0.145
1125,-0.085,-0.145
1126,-0.100,-0.150
1127,-0.105,-0.155
1128,-0.100,-0.155
1129,-0.095,-0.155
1130,-0.095,-0.145
1131,-0.095,-0.135
1132,-0.075,-0.120
1133,-0.055,-0.105
1134,-0.055,-0.110
1135,-0.055,-0.115
1136,-0.050,-0.110
1137,-0.040,-0.105
1138,-0.015,-0.095
1139,0.010,-0.085
1140,0.035,-0.080
1141,0.060,-0.075
1142,0.080,-0.070
1143,0.090,-0.070
1144,0.075,-0.090
1145,0.050,-0.110
1146,0.005,-0.125
1147,-0.010,-0.135
1148,0.000,-0.135
1149,0.000,-0.140
1150,-0.010,-0.155
1151,-0.035,-0.165
1152,-0.070,-0.170
1153,-0.075,-0.170
1154,-0.060,-0.160
1155,-0.070,-0.165
1156,-0.095,-0.180
1157,-0.115,-0.185
1158,-0.130,-0.185
1159,-0.130,-0.180
1160,-0.120,-0.170
1161,-0.115,-0.155
1162,-0.115,-0.140
1163,-0.100,-0.135
1164,-0.080,-0.130
1165,-0.125,-0.080
1166,-0.180,-0.030
1167,-0.070,0.040
1168,0.050,0.110
1169,0.330,0.270
1170,0.605,0.440
1171,0.910,0.665
1172,1.240,0.845
1173,1.775,0.645
1174,2.230,0.400
1175,2.265,-0.065
1176,2.080,-0.475
1177,1.100,-0.720
1178,0.240,-0.910
1179,-0.285,-0.935
1180,-0.655,-0.895
1181,-0.690,-0.700
1182,-0.690,-0.545
1183,-0.605,-0.450
1184,-0.520,-0.360
1185,-0.420,-0.270
1186,-0.345,-0.200
1187,-0.300,-0.165
1188,-0.255,-0.135
1189,-0.215,-0.110
1190,-0.190,-0.090
1191,-0.180,-0.080
1192,-0.175,-0.075
1193,-0.180,-0.075
1194,-0.180,-0.075
1195,-0.160,-0.070
1196,-0.155,-0.065
1197,-0.155,-0.065
1198,-0.155,-0.065
1199,-0.150,-0.060
1200,-0.145,-0.050
1201,-0.140,-0.040
1202,-0.135,-0.035
1203,-0.130,-0.035
1204,-0.125,-0.035
1205,-0.130,-0.040
1206,-0.125,-0.045
1207,-0.110,-0.040
1208,-0.110,-0.030
1209,-0.125,-0.015
1210,-0.115,-0.010
1211,-0.105,-0.005
1212,-0.105,-0.010
1213,-0.105,-0.015
1214,-0.095,-0.010
1215,-0.085,-0.005
1216,-0.085,0.005
1217,-0.085,0.015
1218,-0.080,0.020
1219,-0.075,0.025
1220,-0.070,0.025
1221,-0.065,0.025
1222,-0.060,0.040
1223,-0.055,0.055
1224,-0.055,0.060
1225,-0.055,0.065
1226,-0.045,0.075
1227,-0.035,0.085
1228,-0.025,0.085
1229,-0.015,0.085
1230,0.000,0.100
1231,0.015,0.105
1232,0.035,0.110
1233,0.045,0.115
1234,0.045,0.120
1235,0.050,0.125
1236,0.060,0.120
1237,0.070,0.115
1238,0.080,0.120
1239,0.085,0.130
1240,0.090,0.140
1241,0.095,0.145
1242,0.100,0.140
1243,0.105,0.130
1244,0.110,0.120
1245,0.120,0.115
1246,0.130,0.110
1247,0.135,0.105
1248,0.135,0.100
1249,0.125,0.085
1250,0.135,0.095
1251,0.085,0.035
1252,0.065,0.005
1253,0.050,-0.010
1254,0.035,-0.025
1255,0.005,-0.035
1256,-0.025,-0.045
1257,-0.035,-0.065
1258,-0.045,-0.085
1259,-0.060,-0.095
1260,-0.075,-0.105
1261,-0.085,-0.105
1262,-0.095,-0.105
1263,-0.095,-0.105
1264,-0.095,-0.105
1265,-0.095,-0.110
1266,-0.100,-0.115
1267,-0.115,-0.120
1268,-0.125,-0.125
1269,-0.120,-0.120
1270,-0.115,-0.115
1271,-0.130,-0.110
1272,-0.130,-0.105
1273,-0.120,-0.105
1274,-0.120,-0.105
1275,-0.130,-0.110
1276,-0.135,-0.115
1277,-0.130,-0.110
1278,-0.125,-0.105
1279,-0.120,-0.100
1280,-0.115,-0.095
1281,-0.115,-0.100
1282,-0.115,-0.105
1283,-0.115,-0.105
1284,-0.115,-0.105
1285,-0.110,-0.100
1286,-0.105,-0.095
1287,-0.110,-0.090
1288,-0.115,-0.085
1289,-0.110,-0.085
1290,-0.105,-0.085
1291,-0.105,-0.090
1292,-0.095,-0.095
1293,-0.085,-0.095
1294,-0.075,-0.095
1295,-0.065,-0.095
1296,-0.070,-0.095
1297,-0.075,-0.095
1298,-0.085,-0.100
1299,-0.095,-0.105
1300,-0.090,-0.115
1301,-0.085,-0.125
1302,-0.090,-0.125
1303,-0.095,-0.125
1304,-0.095,-0.120
1305,-0.095,-0.115
1306,-0.095,-0.125
1307,-0.095,-0.135
1308,-0.095,-0.135
1309,-0.095,-0.135
1310,-0.100,-0.135
1311,-0.105,-0.135
1312,-0.095,-0.130
1313,-0.090,-0.125
1314,-0.100,-0.130
1315,-0.105,-0.135
1316,-0.100,-0.140
1317,-0.095,-0.145
1318,-0.095,-0.145
1319,-0.095,-0.145
1320,-0.100,-0.145
1321,-0.105,-0.145
1322,-0.110,-0.145
1323,-0.115,-0.145
1324,-0.110,-0.150
1325,-0.105,-0.155
1326,-0.105,-0.150
1327,-0.105,-0.145
1328,-0.105,-0.145
1329,-0.105,-0.145
1330,-0.110,-0.145
1331,-0.115,-0.145
1332,-0.110,-0.150
1333,-0.105,-0.155
1334,-0.105,-0.145
1335,-0.105,-0.140
1336,-0.105,-0.135
1337,-0.105,-0.135
1338,-0.105,-0.135
1339,-0.080,-0.115
1340,-0.055,-0.095
1341,-0.040,-0.090
1342,-0.025,-0.085
1343,-0.030,-0.075
1344,-0.035,-0.065
1345,-0.020,-0.070
1346,0.000,-0.075
1347,0.020,-0.075
1348,0.040,-0.075
1349,0.055,-0.065
1350,0.060,-0.060
1351,0.040,-0.080
1352,0.020,-0.100
1353,0.000,-0.120
1354,-0.015,-0.135
1355,-0.015,-0.135
1356,-0.015,-0.135
1357,-0.010,-0.140
1358,-0.025,-0.150
1359,-0.065,-0.160
1360,-0.085,-0.165
1361,-0.090,-0.165
1362,-0.100,-0.165
1363,-0.110,-0.170
1364,-0.125,-0.175
1365,-0.140,-0.175
1366,-0.145,-0.175
1367,-0.140,-0.170
1368,-0.135,-0.165
1369,-0.130,-0.165
1370,-0.120,-0.160
1371,-0.110,-0.150
1372,-0.105,-0.115
1373,-0.105,-0.080
1374,-0.130,-0.015
1375,-0.105,-0.075
1376,0.060,0.130
1377,0.290,0.215
1378,0.610,0.510
1379,0.950,0.765
1380,1.485,0.610
1381,1.980,0.410
1382,2.265,-0.085
1383,2.315,-0.530
1384,1.350,-0.775
1385,0.460,-0.965
1386,-0.165,-0.965
1387,-0.630,-0.910
1388,-0.690,-0.700
1389,-0.705,-0.525
1390,-0.610,-0.430
1391,-0.520,-0.340
1392,-0.450,-0.260
1393,-0.380,-0.200
1394,-0.320,-0.160
1395,-0.275,-0.120
1396,-0.240,-0.085
1397,-0.220,-0.065
1398,-0.205,-0.065
1399,-0.195,-0.065
1400,-0.195,-0.070
1401,-0.195,-0.070
1402,-0.190,-0.060
1403,-0.185,-0.055
1404,-0.180,-0.050
1405,-0.170,-0.045
1406,-0.160,-0.040
1407,-0.155,-0.035
1408,-0.160,-0.040
1409,-0.165,-0.040
1410,-0.160,-0.030
1411,-0.160,-0.020
1412,-0.170,-0.010
1413,-0.170,-0.005
1414,-0.160,-0.005
1415,-0.155,-0.005
1416,-0.155,-0.005
1417,-0.150,0.000
1418,-0.145,0.005
1419,-0.140,0.010
1420,-0.135,0.015
1421,-0.135,0.020
1422,-0.135,0.025
1423,-0.130,0.025
1424,-0.125,0.025
1425,-0.120,0.035
1426,-0.115,0.045
1427,-0.115,0.055
1428,-0.115,0.065
1429,-0.105,0.070
1430,-0.095,0.075
1431,-0.085,0.080
1432,-0.075,0.085
1433,-0.075,0.095
1434,-0.070,0.110
1435,-0.050,0.130
1436,-0.035,0.145
1437,-0.030,0.150
1438,-0.025,0.155
1439,-0.020,0.160
1440,-0.005,0.165
1441,0.020,0.170
1442,0.035,0.180
1443,0.035,0.190
1444,0.050,0.195
1445,0.075,0.195
1446,0.085,0.195
1447,0.085,0.190
1448,0.090,0.185
1449,0.100,0.185
1450,0.115,0.190
1451,0.130,0.200
1452,0.135,0.195
1453,0.135,0.180
1454,0.125,0.165
1455,0.110,0.150
1456,0.105,0.130
1457,0.105,0.110
1458,0.080,0.095
1459,0.045,0.075
1460,0.030,0.050
1461,0.015,0.025
1462,-0.015,-0.005
1463,-0.045,-0.035
1464,-0.060,-0.050
1465,-0.075,-0.065
1466,-0.090,-0.070
1467,-0.105,-0.075
1468,-0.125,-0.085
1469,-0.145,-0.095
1470,-0.160,-0.110
1471,-0.175,-0.125
1472,-0.180,-0.125
1473,-0.185,-0.125
1474,-0.190,-0.120
1475,-0.195,-0.115
1476,-0.195,-0.120
1477,-0.195,-0.125
1478,-0.195,-0.130
1479,-0.195,-0.135
1480,-0.195,-0.130
1481,-0.190,-0.125
1482,-0.180,-0.120
1483,-0.180,-0.115
1484,-0.195,-0.115
1485,-0.205,-0.115
1486,-0.200,-0.115
1487,-0.195,-0.115
1488,-0.195,-0.115
1489,-0.195,-0.115
1490,-0.195,-0.110
1491,-0.195,-0.105
1492,-0.195,-0.105
1493,-0.195,-0.105
1494,-0.190,-0.110
1495,-0.180,-0.115
1496,-0.170,-0.110
1497,-0.160,-0.105
1498,-0.150,-0.100
1499,-0.150,-0.095
1500,-0.145,-0.095
1501,-0.165,-0.105
1502,-0.165,-0.115
1503,-0.160,-0.115
1504,-0.155,-0.115
1505,-0.160,-0.110
1506,-0.165,-0.105
1507,-0.155,-0.105
1508,-0.145,-0.105
1509,-0.150,-0.115
1510,-0.155,-0.125
1511,-0.150,-0.125
1512,-0.145,-0.125
1513,-0.145,-0.125
1514,-0.145,-0.125
1515,-0.145,-0.130
1516,-0.145,-0.135
1517,-0.155,-0.140
1518,-0.165,-0.145
1519,-0.155,-0.145
1520,-0.150,-0.145
1521,-0.165,-0.145
1522,-0.170,-0.145
1523,-0.160,-0.145
1524,-0.155,-0.145
1525,-0.160,-0.150
1526,-0.165,-0.155
1527,-0.165,-0.155
1528,-0.165,-0.155
1529,-0.160,-0.155
1530,-0.155,-0.155
1531,-0.160,-0.155
1532,-0.165,-0.155
1533,-0.160,-0.160
1534,-0.155,-0.165
1535,-0.155,-0.160
1536,-0.160,-0.155
1537,-0.170,-0.150
1538,-0.175,-0.145
1539,-0.170,-0.150
1540,-0.165,-0.155
1541,-0.160,-0.160
1542,-0.160,-0.165
1543,-0.165,-0.165
1544,-0.155,-0.155
1545,-0.145,-0.145
1546,-0.150,-0.150
1547,-0.155,-0.155
1548,-0.155,-0.160
1549,-0.155,-0.165
1550,-0.155,-0.160
1551,-0.155,-0.155
1552,-0.155,-0.155
1553,-0.155,-0.155
1554,-0.155,-0.150
1555,-0.155,-0.145
1556,-0.150,-0.155
1557,-0.145,-0.165
1558,-0.150,-0.155
1559,-0.150,-0.140
1560,-0.135,-0.125
1561,-0.120,-0.115
1562,-0.105,-0.105
1563,-0.095,-0.095
1564,-0.095,-0.100
1565,-0.090,-0.100
1566,-0.075,-0.090
1567,-0.055,-0.080
1568,-0.035,-0.070
1569,-0.020,-0.065
1570,0.000,-0.070
1571,0.015,-0.075
1572,0.030,-0.075
1573,0.020,-0.090
1574,-0.005,-0.115
1575,-0.035,-0.125
1576,-0.060,-0.130
1577,-0.060,-0.135
1578,-0.050,-0.135
1579,-0.060,-0.145
1580,-0.080,-0.160
1581,-0.100,-0.165
1582,-0.120,-0.170
1583,-0.130,-0.170
1584,-0.145,-0.155
1585,-0.150,-0.165
1586,-0.155,-0.175
1587,-0.165,-0.180
1588,-0.175,-0.185
1589,-0.170,-0.175
1590,-0.165,-0.165
1591,-0.155,-0.155
1592,-0.145,-0.145
1593,-0.135,-0.135
1594,-0.135,-0.115
1595,-0.180,-0.075
1596,-0.190,-0.030
1597,-0.100,0.030
1598,0.040,0.125
1599,0.265,0.280
1600,0.530,0.460
1601,0.860,0.685
1602,1.280,0.725
1603,1.815,0.510
1604,2.120,0.165
1605,2.175,-0.315
1606,1.725,-0.650
1607,0.820,-0.850
1608,0.125,-0.940
1609,-0.420,-0.950
1610,-0.665,-0.845
1611,-0.730,-0.665
1612,-0.700,-0.540
1613,-0.610,-0.435
1614,-0.535,-0.345
1615,-0.465,-0.260
1616,-0.400,-0.205
1617,-0.340,-0.165
1618,-0.300,-0.135
1619,-0.265,-0.110
1620,-0.245,-0.100
1621,-0.230,-0.090
1622,-0.220,-0.085
1623,-0.210,-0.080
1624,-0.205,-0.075
1625,-0.205,-0.075
1626,-0.210,-0.075
1627,-0.215,-0.075
1628,-0.205,-0.070
1629,-0.195,-0.065
1630,-0.205,-0.060
1631,-0.215,-0.055
1632,-0.200,-0.050
1633,-0.185,-0.045
1634,-0.190,-0.045
1635,-0.195,-0.045
1636,-0.185,-0.040
1637,-0.175,-0.035
1638,-0.175,-0.025
1639,-0.175,-0.015
1640,-0.170,-0.015
1641,-0.165,-0.015
1642,-0.170,-0.020
1643,-0.170,-0.025
1644,-0.155,-0.015
1645,-0.145,-0.005
1646,-0.160,0.010
1647,-0.160,0.015
1648,-0.150,0.020
1649,-0.145,0.025
1650,-0.140,0.020
1651,-0.130,0.020
1652,-0.120,0.035
1653,-0.110,0.055
1654,-0.100,0.070
1655,-0.095,0.075
1656,-0.095,0.080
1657,-0.095,0.085
1658,-0.090,0.085
1659,-0.075,0.090
1660,-0.060,0.100
1661,-0.050,0.115
1662,-0.040,0.130
1663,-0.025,0.135
1664,-0.010,0.140
1665,0.010,0.145
1666,0.030,0.145
1667,0.045,0.150
1668,0.055,0.155
1669,0.075,0.165
1670,0.095,0.175
1671,0.095,0.175
1672,0.095,0.175
1673,0.100,0.165
1674,0.105,0.155
1675,0.115,0.150
1676,0.125,0.145
1677,0.115,0.140
1678,0.105,0.130
1679,0.100,0.110
1680,0.090,0.090
1681,0.070,0.065
1682,0.050,0.040
1683,0.030,0.015
1684,0.010,-0.010
1685,-0.005,-0.025
1686,-0.025,-0.040
1687,-0.055,-0.060
1688,-0.085,-0.085
1689,-0.105,-0.105
1690,-0.115,-0.115
1691,-0.120,-0.120
1692,-0.130,-0.125
1693,-0.145,-0.125
1694,-0.155,-0.125
1695,-0.155,-0.130
1696,-0.155,-0.135
1697,-0.160,-0.140
1698,-0.165,-0.145
1699,-0.170,-0.140
1700,-0.175,-0.135
1701,-0.170,-0.135
1702,-0.165,-0.135
1703,-0.170,-0.135
1704,-0.175,-0.135
1705,-0.175,-0.140
1706,-0.175,-0.145
1707,-0.170,-0.140
1708,-0.170,-0.135
1709,-0.185,-0.135
1710,-0.180,-0.135
1711,-0.175,-0.135
1712,-0.185,-0.135
1713,-0.195,-0.135
1714,-0.185,-0.135
1715,-0.175,-0.135
1716,-0.165,-0.125
1717,-0.155,-0.115
1718,-0.160,-0.115
1719,-0.165,-0.115
1720,-0.165,-0.125
1721,-0.165,-0.135
1722,-0.165,-0.135
1723,-0.165,-0.135
1724,-0.165,-0.130
1725,-0.165,-0.125
1726,-0.160,-0.125
1727,-0.155,-0.125
1728,-0.155,-0.130
1729,-0.155,-0.135
1730,-0.155,-0.150
1731,-0.150,-0.155
1732,-0.135,-0.150
1733,-0.130,-0.145
1734,-0.145,-0.150
1735,-0.155,-0.155
1736,-0.160,-0.160
1737,-0.165,-0.165
1738,-0.160,-0.170
1739,-0.160,-0.175
1740,-0.170,-0.175
1741,-0.175,-0.175
1742,-0.175,-0.170
1743,-0.170,-0.170
1744,-0.160,-0.180
1745,-0.155,-0.185
1746,-0.160,-0.185
1747,-0.165,-0.185
1748,-0.165,-0.185
1749,-0.165,-0.185
1750,-0.165,-0.185
1751,-0.170,-0.185
1752,-0.165,-0.195
1753,-0.170,-0.190
1754,-0.175,-0.185
1755,-0.180,-0.185
1756,-0.185,-0.185
1757,-0.180,-0.180
1758,-0.175,-0.175
1759,-0.180,-0.185
1760,-0.185,-0.195
1761,-0.180,-0.190
1762,-0.175,-0.185
1763,-0.170,-0.180
1764,-0.165,-0.175
1765,-0.170,-0.175
1766,-0.175,-0.175
1767,-0.180,-0.185
1768,-0.185,-0.195
1769,-0.175,-0.195
1770,-0.165,-0.195
1771,-0.180,-0.180
1772,-0.180,-0.175
1773,-0.170,-0.175
1774,-0.165,-0.175
1775,-0.170,-0.180
1776,-0.175,-0.185
1777,-0.170,-0.185
1778,-0.165,-0.185
1779,-0.160,-0.185
1780,-0.155,-0.185
1781,-0.160,-0.180
1782,-0.165,-0.175
1783,-0.165,-0.175
1784,-0.150,-0.165
1785,-0.130,-0.150
1786,-0.125,-0.145
1787,-0.125,-0.140
1788,-0.125,-0.130
1789,-0.120,-0.120
1790,-0.090,-0.115
1791,-0.060,-0.120
1792,-0.035,-0.120
1793,-0.015,-0.115
1794,0.015,-0.100
1795,0.045,-0.085
1796,0.010,-0.110
1797,-0.025,-0.135
1798,-0.050,-0.155
1799,-0.075,-0.175
1800,-0.075,-0.175
1801,-0.075,-0.175
1802,-0.085,-0.175
1803,-0.100,-0.175
1804,-0.125,-0.185
1805,-0.145,-0.195
1806,-0.150,-0.200
1807,-0.155,-0.205
1808,-0.150,-0.205
1809,-0.150,-0.205
1810,-0.165,-0.200
1811,-0.175,-0.195
1812,-0.185,-0.195
1813,-0.195,-0.195
1814,-0.195,-0.195
1815,-0.190,-0.190
1816,-0.175,-0.180
1817,-0.165,-0.160
1818,-0.170,-0.135
1819,-0.195,-0.080
1820,-0.230,-0.010
1821,-0.105,0.055
1822,0.100,0.115
1823,0.380,0.355
1824,0.685,0.655
1825,1.130,0.725
1826,1.610,0.730
1827,2.010,0.355
1828,2.395,-0.105
1829,1.665,-0.465
1830,0.765,-0.805
1831,0.135,-0.920
1832,-0.475,-1.020
1833,-0.645,-0.870
1834,-0.805,-0.705
1835,-0.725,-0.595
1836,-0.645,-0.480
1837,-0.565,-0.395
1838,-0.490,-0.310
1839,-0.425,-0.250
1840,-0.360,-0.195
1841,-0.315,-0.160
1842,-0.275,-0.135
1843,-0.255,-0.120
1844,-0.235,-0.105
1845,-0.240,-0.110
1846,-0.245,-0.115
1847,-0.245,-0.110
1848,-0.245,-0.105
1849,-0.245,-0.100
1850,-0.240,-0.095
1851,-0.225,-0.090
1852,-0.215,-0.085
1853,-0.210,-0.085
1854,-0.205,-0.085
1855,-0.205,-0.080
1856,-0.205,-0.075
1857,-0.200,-0.070
1858,-0.195,-0.065
1859,-0.190,-0.065
1860,-0.185,-0.065
1861,-0.185,-0.065
1862,-0.180,-0.060
1863,-0.170,-0.050
1864,-0.170,-0.045
1865,-0.180,-0.040
1866,-0.185,-0.035
1867,-0.180,-0.035
1868,-0.170,-0.035
1869,-0.160,-0.035
1870,-0.150,-0.030
1871,-0.140,-0.020
1872,-0.130,-0.010
1873,-0.120,0.000
1874,-0.115,0.005
1875,-0.115,0.005
1876,-0.110,0.015
1877,-0.105,0.015
1878,-0.095,0.025
1879,-0.085,0.035
1880,-0.090,0.050
1881,-0.095,0.065
1882,-0.070,0.070
1883,-0.045,0.075
1884,-0.040,0.075
1885,-0.035,0.075
1886,-0.020,0.085
1887,-0.005,0.095
1888,0.005,0.105
1889,0.020,0.115
1890,0.035,0.115
1891,0.045,0.115
1892,0.040,0.110
1893,0.040,0.105
1894,0.055,0.110
1895,0.065,0.115
1896,0.065,0.115
1897,0.070,0.115
1898,0.080,0.110
1899,0.080,0.100
1900,0.065,0.085
1901,0.055,0.070
1902,0.055,0.060
1903,0.055,0.050
1904,0.050,0.040
1905,0.035,0.025
1906,0.020,0.005
1907,0.000,-0.020
1908,-0.025,-0.045
1909,-0.045,-0.065
1910,-0.060,-0.080
1911,-0.075,-0.090
1912,-0.090,-0.100
1913,-0.100,-0.105
1914,-0.110,-0.110
1915,-0.115,-0.115
1916,-0.120,-0.120
1917,-0.130,-0.130
1918,-0.135,-0.135
1919,-0.135,-0.130
1920,-0.135,-0.125
1921,-0.145,-0.125
1922,-0.155,-0.125
1923,-0.155,-0.130
1924,-0.155,-0.135
1925,-0.155,-0.130
1926,-0.155,-0.125
1927,-0.155,-0.115
1928,-0.155,-0.105
1929,-0.150,-0.105
1930,-0.145,-0.105
1931,-0.140,-0.110
1932,-0.135,-0.115
1933,-0.135,-0.115
1934,-0.135,-0.115
1935,-0.125,-0.110
1936,-0.115,-0.105
1937,-0.120,-0.105
1938,-0.130,-0.105
1939,-0.140,-0.110
1940,-0.140,-0.115
1941,-0.125,-0.110
1942,-0.115,-0.105
1943,-0.115,-0.105
1944,-0.115,-0.105
1945,-0.110,-0.110
1946,-0.105,-0.115
1947,-0.110,-0.120
1948,-0.110,-0.125
1949,-0.100,-0.125
1950,-0.095,-0.125
1951,-0.100,-0.125
1952,-0.105,-0.125
1953,-0.100,-0.130
1954,-0.100,-0.140
1955,-0.110,-0.150
1956,-0.110,-0.155
1957,-0.100,-0.150
1958,-0.105,-0.145
1959,-0.125,-0.145
1960,-0.110,-0.145
1961,-0.095,-0.145
1962,-0.095,-0.150
1963,-0.095,-0.155
1964,-0.105,-0.155
1965,-0.115,-0.155
1966,-0.115,-0.155
1967,-0.115,-0.155
1968,-0.110,-0.155
1969,-0.105,-0.155
1970,-0.115,-0.160
1971,-0.125,-0.165
1972,-0.115,-0.165
1973,-0.105,-0.165
1974,-0.110,-0.160
1975,-0.115,-0.155
1976,-0.110,-0.155
1977,-0.105,-0.155
1978,-0.105,-0.160
1979,-0.105,-0.165
1980,-0.105,-0.160
1981,-0.105,-0.155
1982,-0.100,-0.150
1983,-0.095,-0.145
1984,-0.095,-0.150
1985,-0.095,-0.155
1986,-0.095,-0.160
1987,-0.095,-0.165
1988,-0.095,-0.160
1989,-0.095,-0.155
1990,-0.100,-0.150
1991,-0.095,-0.145
1992,-0.080,-0.140
1993,-0.065,-0.130
1994,-0.050,-0.120
1995,-0.045,-0.115
1996,-0.045,-0.115
1997,-0.040,-0.115
1998,-0.030,-0.110
1999,-0.015,-0.100
2000,-0.025,-0.105
2001,0.025,-0.090
2002,0.045,-0.095
2003,0.070,-0.085
2004,0.095,-0.075
2005,0.075,-0.085
2006,0.055,-0.095
2007,0.030,-0.115
2008,0.005,-0.135
2009,0.000,-0.140
2010,-0.005,-0.145
2011,0.000,-0.155
2012,0.000,-0.165
2013,-0.030,-0.165
2014,-0.055,-0.165
2015,-0.065,-0.160
2016,-0.075,-0.155
2017,-0.080,-0.165
2018,-0.085,-0.175
2019,-0.095,-0.180
2020,-0.110,-0.185
2021,-0.125,-0.170
2022,-0.130,-0.165
2023,-0.115,-0.160
2024,-0.105,-0.155
2025,-0.105,-0.150
2026,-0.095,-0.140
2027,-0.075,-0.125
2028,-0.100,-0.070
2029,-0.155,0.000
2030,-0.060,0.055
2031,0.100,0.100
2032,0.360,0.285
2033,0.645,0.515
2034,1.015,0.665
2035,1.400,0.795
2036,1.905,0.545
2037,2.435,0.225
2038,2.095,-0.175
2039,1.645,-0.585
2040,0.785,-0.795
2041,-0.100,-0.990
2042,-0.435,-0.915
2043,-0.755,-0.830
2044,-0.690,-0.655
2045,-0.620,-0.480
2046,-0.550,-0.405
2047,-0.475,-0.330
2048,-0.395,-0.255
2049,-0.320,-0.190
2050,-0.275,-0.155
2051,-0.230,-0.120
2052,-0.200,-0.095
2053,-0.175,-0.075
2054,-0.165,-0.070
2055,-0.155,-0.065
2056,-0.155,-0.070
2057,-0.155,-0.075
2058,-0.150,-0.070
2059,-0.145,-0.065
2060,-0.135,-0.055
2061,-0.125,-0.045
2062,-0.130,-0.045
2063,-0.135,-0.045
2064,-0.130,-0.045
2065,-0.125,-0.045
2066,-0.120,-0.040
2067,-0.120,-0.035
2068,-0.130,-0.030
2069,-0.130,-0.025
2070,-0.120,-0.020
2071,-0.115,-0.015
2072,-0.110,-0.020
2073,-0.105,-0.025
2074,-0.100,-0.020
2075,-0.095,-0.010
2076,-0.090,0.000
2077,-0.080,0.005
2078,-0.070,0.010
2079,-0.070,0.015
2080,-0.080,0.015
2081,-0.075,0.015
2082,-0.060,0.015
2083,-0.055,0.025
2084,-0.065,0.045
2085,-0.050,0.055
2086,-0.035,0.065
2087,-0.035,0.065
2088,-0.035,0.065
2089,-0.015,0.075
2090,0.005,0.085
2091,0.020,0.100
2092,0.035,0.115
2093,0.040,0.120
2094,0.045,0.125
2095,0.045,0.125
2096,0.045,0.125
2097,0.060,0.125
2098,0.075,0.125
2099,0.080,0.135
2100,0.090,0.145
2101,0.105,0.145
2102,0.115,0.145
2103,0.120,0.140
2104,0.125,0.135
2105,0.125,0.140
2106,0.135,0.145
2107,0.155,0.140
2108,0.160,0.135
2109,0.150,0.130
2110,0.140,0.115
2111,0.130,0.095
2112,0.120,0.075
2113,0.110,0.055
2114,0.095,0.040
2115,0.070,0.030
2116,0.050,0.010
2117,0.030,-0.010
2118,0.015,-0.035
2119,0.000,-0.060
2120,-0.015,-0.070
2121,-0.030,-0.080
2122,-0.035,-0.085
2123,-0.040,-0.085
2124,-0.055,-0.090
2125,-0.045,-0.085
2126,-0.085,-0.110
2127,-0.095,-0.115
2128,-0.090,-0.115
2129,-0.085,-0.115
2130,-0.090,-0.115
2131,-0.095,-0.115
2132,-0.095,-0.110
2133,-0.095,-0.105
2134,-0.100,-0.105
2135,-0.105,-0.105
2136,-0.100,-0.105
2137,-0.095,-0.105
2138,-0.090,-0.100
2139,-0.085,-0.095
2140,-0.090,-0.095
2141,-0.095,-0.095
2142,-0.105,-0.095
2143,-0.110,-0.095
2144,-0.095,-0.095
2145,-0.085,-0.095
2146,-0.090,-0.080
2147,-0.095,-0.075
2148,-0.090,-0.075
2149,-0.085,-0.075
2150,-0.085,-0.080
2151,-0.080,-0.085
2152,-0.070,-0.085
2153,-0.065,-0.085
2154,-0.065,-0.080
2155,-0.065,-0.075
2156,-0.065,-0.080
2157,-0.065,-0.085
2158,-0.065,-0.090
2159,-0.065,-0.095
2160,-0.060,-0.095
2161,-0.060,-0.095
2162,-0.070,-0.095
2163,-0.070,-0.095
2164,-0.060,-0.100
2165,-0.055,-0.105
2166,-0.060,-0.110
2167,-0.065,-0.115
2168,-0.065,-0.115
2169,-0.065,-0.115
2170,-0.065,-0.115
2171,-0.070,-0.120
2172,-0.075,-0.125
2173,-0.070,-0.130
2174,-0.065,-0.135
2175,-0.065,-0.130
2176,-0.065,-0.125
2177,-0.075,-0.125
2178,-0.085,-0.125
2179,-0.080,-0.125
2180,-0.075,-0.125
2181,-0.075,-0.135
2182,-0.075,-0.145
2183,-0.075,-0.140
2184,-0.075,-0.135
2185,-0.070,-0.135
2186,-0.065,-0.135
2187,-0.070,-0.135
2188,-0.075,-0.135
2189,-0.075,-0.140
2190,-0.075,-0.145
2191,-0.070,-0.140
2192,-0.070,-0.135
2193,-0.080,-0.130
2194,-0.085,-0.125
2195,-0.080,-0.120
2196,-0.070,-0.115
2197,-0.060,-0.115
2198,-0.040,-0.100
2199,-0.015,-0.080
2200,-0.005,-0.075
2201,-0.005,-0.075
2202,0.000,-0.075
2203,0.010,-0.070
2204,0.030,-0.065
2205,0.050,-0.070
2206,0.065,-0.075
2207,0.080,-0.070
2208,0.085,-0.060
2209,0.095,-0.045
2210,0.070,-0.075
2211,0.045,-0.105
2212,0.020,-0.115
2213,-0.005,-0.125
2214,0.010,-0.125
2215,0.025,-0.125
2216,0.010,-0.135
2217,-0.010,-0.145
2218,-0.040,-0.150
2219,-0.065,-0.155
2220,-0.065,-0.150
2221,-0.065,-0.145
2222,-0.075,-0.155
2223,-0.090,-0.165
2224,-0.105,-0.160
2225,-0.115,-0.155
2226,-0.105,-0.150
2227,-0.095,-0.145
2228,-0.090,-0.140
2229,-0.085,-0.135
2230,-0.080,-0.130
2231,-0.085,-0.100
2232,-0.105,-0.050
2233,-0.090,0.010
2234,-0.035,0.070
2235,0.140,0.165
2236,0.390,0.285
2237,0.695,0.495
2238,1.020,0.750
2239,1.515,0.675
2240,2.080,0.465
2241,2.250,0.040
2242,2.295,-0.450
2243,1.480,-0.720
2244,0.460,-0.940
2245,-0.140,-0.940
2246,-0.675,-0.900
2247,-0.695,-0.705
2248,-0.660,-0.495
2249,-0.565,-0.385
2250,-0.655,-0.485
2251,-0.380,-0.210
2252,-0.295,-0.145
2253,-0.250,-0.105
2254,-0.205,-0.065
2255,-0.180,-0.055
2256,-0.155,-0.045
2257,-0.155,-0.045
2258,-0.155,-0.045
2259,-0.150,-0.050
2260,-0.145,-0.055
2261,-0.145,-0.050
2262,-0.145,-0.045
2263,-0.140,-0.035
2264,-0.135,-0.025
2265,-0.130,-0.020
2266,-0.125,-0.015
2267,-0.130,-0.020
2268,-0.135,-0.025
2269,-0.125,-0.020
2270,-0.115,-0.015
2271,-0.130,0.000
2272,-0.130,0.005
2273,-0.115,0.005
2274,-0.105,0.005
2275,-0.110,0.005
2276,-0.115,0.010
2277,-0.110,0.020
2278,-0.105,0.025
2279,-0.105,0.030
2280,-0.095,0.035
2281,-0.080,0.040
2282,-0.080,0.045
2283,-0.090,0.045
2284,-0.085,0.050
2285,-0.070,0.060
2286,-0.065,0.070
2287,-0.070,0.080
2288,-0.065,0.085
2289,-0.050,0.090
2290,-0.045,0.100
2291,-0.040,0.110
2292,-0.030,0.125
2293,-0.025,0.135
2294,-0.010,0.150
2295,0.005,0.165
2296,0.015,0.170
2297,0.025,0.175
2298,0.040,0.180
2299,0.055,0.185
2300,0.070,0.195
2301,0.085,0.205
2302,0.095,0.205
2303,0.105,0.205
2304,0.110,0.210
2305,0.115,0.215
2306,0.125,0.210
2307,0.135,0.205
2308,0.140,0.210
2309,0.150,0.215
2310,0.165,0.210
2311,0.175,0.205
2312,0.170,0.195
2313,0.160,0.175
2314,0.150,0.155
2315,0.140,0.140
2316,0.125,0.125
2317,0.100,0.105
2318,0.075,0.085
2319,0.055,0.060
2320,0.035,0.035
2321,0.005,0.010
2322,-0.025,-0.015
2323,-0.035,-0.035
2324,-0.040,-0.050
2325,-0.055,-0.055
2326,-0.070,-0.060
2327,-0.085,-0.065
2328,-0.100,-0.070
2329,-0.115,-0.085
2330,-0.130,-0.100
2331,-0.135,-0.105
2332,-0.130,-0.105
2333,-0.135,-0.105
2334,-0.155,-0.095
2335,-0.145,-0.100
2336,-0.135,-0.105
2337,-0.145,-0.105
2338,-0.155,-0.105
2339,-0.150,-0.105
2340,-0.145,-0.105
2341,-0.145,-0.095
2342,-0.145,-0.085
2343,-0.145,-0.085
2344,-0.145,-0.085
2345,-0.150,-0.095
2346,-0.155,-0.105
2347,-0.145,-0.095
2348,-0.135,-0.085
2349,-0.145,-0.080
2350,-0.155,-0.075
2351,-0.145,-0.075
2352,-0.135,-0.075
2353,-0.135,-0.080
2354,-0.135,-0.085
2355,-0.130,-0.085
2356,-0.120,-0.085
2357,-0.110,-0.080
2358,-0.105,-0.075
2359,-0.110,-0.075
2360,-0.115,-0.080
2361,-0.115,-0.090
2362,-0.115,-0.095
2363,-0.110,-0.095
2364,-0.105,-0.095
2365,-0.110,-0.090
2366,-0.115,-0.085
2367,-0.110,-0.090
2368,-0.105,-0.095
2369,-0.105,-0.100
2370,-0.105,-0.105
2371,-0.110,-0.105
2372,-0.115,-0.105
2373,-0.110,-0.105
2374,-0.105,-0.105
2375,-0.105,-0.105
2376,-0.115,-0.115
2377,-0.115,-0.115
2378,-0.120,-0.120
2379,-0.125,-0.125
2380,-0.125,-0.120
2381,-0.125,-0.115
2382,-0.125,-0.120
2383,-0.125,-0.125
2384,-0.125,-0.130
2385,-0.125,-0.135
2386,-0.125,-0.130
2387,-0.125,-0.125
2388,-0.120,-0.120
2389,-0.115,-0.115
2390,-0.115,-0.125
2391,-0.115,-0.135
2392,-0.120,-0.135
2393,-0.125,-0.135
2394,-0.120,-0.135
2395,-0.115,-0.135
2396,-0.120,-0.130
2397,-0.120,-0.125
2398,-0.110,-0.125
2399,-0.110,-0.125
2400,-0.120,-0.125
2401,-0.125,-0.125
2402,-0.125,-0.130
2403,-0.125,-0.130
2404,-0.125,-0.120
2405,-0.125,-0.115
2406,-0.125,-0.115
2407,-0.125,-0.115
2408,-0.125,-0.120
2409,-0.105,-0.110
2410,-0.080,-0.090
2411,-0.075,-0.085
2412,-0.075,-0.080
2413,-0.065,-0.075
2414,-0.050,-0.070
2415,-0.040,-0.065
2416,-0.030,-0.060
2417,0.000,-0.055
2418,0.025,-0.055
2419,0.045,-0.050
2420,0.065,-0.045
2421,0.060,-0.045
2422,0.055,-0.045
2423,0.015,-0.085
2424,-0.015,-0.115
2425,-0.025,-0.115
2426,-0.035,-0.115
2427,-0.030,-0.115
2428,-0.030,-0.115
2429,-0.060,-0.125
2430,-0.085,-0.135
2431,-0.105,-0.140
2432,-0.115,-0.145
2433,-0.110,-0.140
2434,-0.110,-0.135
2435,-0.125,-0.140
2436,-0.135,-0.145
2437,-0.140,-0.150
2438,-0.145,-0.155
2439,-0.145,-0.150
2440,-0.140,-0.140
2441,-0.130,-0.130
2442,-0.125,-0.120
2443,-0.120,-0.105
2444,-0.145,-0.065
2445,-0.195,-0.015
2446,-0.135,0.040
2447,-0.010,0.090
2448,0.230,0.270
2449,0.510,0.495
2450,0.865,0.665
2451,1.240,0.815
2452,1.755,0.565
2453,2.305,0.220
2454,1.990,-0.225
2455,1.550,-0.685
2456,0.765,-0.835
2457,-0.045,-0.960
2458,-0.410,-0.900
2459,-0.755,-0.825
2460,-0.705,-0.650
2461,-0.655,-0.485
2462,-0.580,-0.405
2463,-0.510,-0.330
2464,-0.425,-0.245
2465,-0.350,-0.170
2466,-0.300,-0.130
2467,-0.250,-0.090
2468,-0.220,-0.065
2469,-0.195,-0.045
2470,-0.195,-0.055
2471,-0.195,-0.065
2472,-0.195,-0.060
2473,-0.195,-0.055
2474,-0.200,-0.050
2475,-0.200,-0.045
2476,-0.185,-0.040
2477,-0.175,-0.035
2478,-0.180,-0.035
2479,-0.185,-0.035
2480,-0.180,-0.035
2481,-0.170,-0.030
2482,-0.155,-0.020
2483,-0.145,-0.015
2484,-0.150,-0.015
2485,-0.155,-0.015
2486,-0.155,-0.015
2487,-0.155,-0.015
2488,-0.150,-0.010
2489,-0.145,-0.005
2490,-0.145,0.000
2491,-0.145,0.010
2492,-0.140,0.020
2493,-0.135,0.020
2494,-0.130,0.010
2495,-0.125,0.010
2496,-0.125,0.020
2497,-0.115,0.035
2498,-0.100,0.050
2499,-0.095,0.055
2500,-0.095,0.055
2501,-0.090,0.065
2502,-0.085,0.065
2503,-0.080,0.075
2504,-0.075,0.085
2505,-0.070,0.100
2506,-0.065,0.115
2507,-0.050,0.125
2508,-0.035,0.135
2509,-0.030,0.135
2510,-0.025,0.135
2511,-0.010,0.140
2512,0.010,0.145
2513,0.030,0.160
2514,0.045,0.175
2515,0.050,0.175
2516,0.055,0.175
2517,0.065,0.175
2518,0.080,0.175
2519,0.100,0.170
2520,0.115,0.165
2521,0.110,0.180
2522,0.110,0.185
2523,0.125,0.185
2524,0.135,0.180
2525,0.135,0.165
2526,0.135,0.150
2527,0.130,0.140
2528,0.120,0.125
2529,0.110,0.110
2530,0.095,0.095
2531,0.075,0.075
2532,0.045,0.045
2533,0.015,0.015
2534,0.000,-0.010
2535,-0.010,-0.030
2536,-0.040,-0.035
2537,-0.070,-0.040
2538,-0.080,-0.055
2539,-0.090,-0.070
2540,-0.100,-0.080
2541,-0.110,-0.090
2542,-0.120,-0.095
2543,-0.125,-0.095
2544,-0.125,-0.095
2545,-0.125,-0.095
2546,-0.130,-0.095
2547,-0.135,-0.095
2548,-0.140,-0.105
2549,-0.145,-0.115
2550,-0.140,-0.110
2551,-0.135,-0.105
2552,-0.150,-0.105
2553,-0.165,-0.105
2554,-0.160,-0.100
2555,-0.155,-0.095
2556,-0.150,-0.100
2557,-0.145,-0.105
2558,-0.150,-0.105
2559,-0.155,-0.105
2560,-0.145,-0.095
2561,-0.135,-0.085
2562,-0.140,-0.085
2563,-0.145,-0.085
2564,-0.140,-0.090
2565,-0.135,-0.095
2566,-0.130,-0.090
2567,-0.125,-0.085
2568,-0.130,-0.080
2569,-0.135,-0.075
2570,-0.130,-0.080
2571,-0.125,-0.090
2572,-0.130,-0.100
2573,-0.130,-0.105
2574,-0.120,-0.100
2575,-0.115,-0.095
2576,-0.115,-0.095
2577,-0.115,-0.095
2578,-0.110,-0.100
2579,-0.115,-0.105
2580,-0.130,-0.110
2581,-0.130,-0.115
2582,-0.120,-0.120
2583,-0.115,-0.125
2584,-0.125,-0.115
2585,-0.125,-0.120
2586,-0.125,-0.125
2587,-0.130,-0.135
2588,-0.135,-0.145
2589,-0.130,-0.145
2590,-0.125,-0.145
2591,-0.125,-0.140
2592,-0.125,-0.135
2593,-0.125,-0.135
2594,-0.125,-0.135
2595,-0.135,-0.145
2596,-0.145,-0.155
2597,-0.140,-0.150
2598,-0.135,-0.145
2599,-0.145,-0.145
2600,-0.155,-0.145
2601,-0.150,-0.145
2602,-0.145,-0.145
2603,-0.145,-0.150
2604,-0.145,-0.155
2605,-0.150,-0.155
2606,-0.155,-0.155
2607,-0.150,-0.150
2608,-0.145,-0.145
2609,-0.150,-0.145
2610,-0.155,-0.145
2611,-0.155,-0.150
2612,-0.155,-0.155
2613,-0.150,-0.155
2614,-0.145,-0.155
2615,-0.150,-0.150
2616,-0.155,-0.145
2617,-0.150,-0.145
2618,-0.145,-0.150
2619,-0.145,-0.160
2620,-0.145,-0.160
2621,-0.140,-0.150
2622,-0.115,-0.130
2623,-0.090,-0.110
2624,-0.085,-0.105
2625,-0.085,-0.105
2626,-0.090,-0.105
2627,-0.095,-0.105
2628,-0.075,-0.095
2629,-0.055,-0.085
2630,-0.040,-0.080
2631,-0.025,-0.075
2632,0.000,-0.070
2633,0.025,-0.065
2634,0.010,-0.095
2635,-0.010,-0.115
2636,-0.035,-0.130
2637,-0.055,-0.145
2638,-0.055,-0.140
2639,-0.055,-0.135
2640,-0.065,-0.145
2641,-0.085,-0.155
2642,-0.115,-0.165
2643,-0.135,-0.175
2644,-0.135,-0.170
2645,-0.140,-0.165
2646,-0.165,-0.165
2647,-0.175,-0.165
2648,-0.175,-0.170
2649,-0.175,-0.175
2650,-0.180,-0.175
2651,-0.185,-0.175
2652,-0.180,-0.170
2653,-0.165,-0.155
2654,-0.150,-0.140
2655,-0.145,-0.120
2656,-0.145,-0.095
2657,-0.175,-0.040
2658,-0.215,0.030
2659,-0.045,0.090
2660,0.185,0.155
2661,0.455,0.420
2662,0.730,0.730
2663,1.130,0.785
2664,1.545,0.810
2665,1.980,0.425
2666,2.415,0.005
2667,1.720,-0.385
2668,1.005,-0.765
2669,0.315,-0.890
2670,-0.340,-0.995
2671,-0.575,-0.870
2672,-0.780,-0.740
2673,-0.725,-0.610
2674,-0.665,-0.480
2675,-0.580,-0.385
2676,-0.500,-0.295
2677,-0.430,-0.225
2678,-0.365,-0.170
2679,-0.320,-0.145
2680,-0.280,-0.125
2681,-0.245,-0.105
2682,-0.225,-0.095
2683,-0.225,-0.095
2684,-0.225,-0.095
2685,-0.215,-0.090
2686,-0.205,-0.085
2687,-0.210,-0.085
2688,-0.215,-0.085
2689,-0.215,-0.085
2690,-0.215,-0.080
2691,-0.210,-0.070
2692,-0.205,-0.065
2693,-0.210,-0.060
2694,-0.210,-0.055
2695,-0.200,-0.050
2696,-0.195,-0.045
2697,-0.195,-0.050
2698,-0.190,-0.055
2699,-0.180,-0.050
2700,-0.170,-0.045
2701,-0.160,-0.045
2702,-0.155,-0.040
2703,-0.160,-0.030
2704,-0.165,-0.025
2705,-0.170,-0.030
2706,-0.175,-0.035
2707,-0.170,-0.030
2708,-0.165,-0.020
2709,-0.165,-0.005
2710,-0.150,-0.005
2711,-0.135,-0.005
2712,-0.140,0.000
2713,-0.145,0.005
2714,-0.135,0.010
2715,-0.125,0.015
2716,-0.110,0.025
2717,-0.095,0.035
2718,-0.090,0.040
2719,-0.085,0.045
2720,-0.080,0.055
2721,-0.075,0.065
2722,-0.065,0.070
2723,-0.055,0.075
2724,-0.045,0.085
2725,-0.035,0.095
2726,-0.025,0.100
2727,-0.010,0.105
2728,0.005,0.095
2729,0.015,0.085
2730,0.020,0.090
2731,0.030,0.100
2732,0.045,0.110
2733,0.060,0.115
2734,0.070,0.110
2735,0.075,0.105
2736,0.080,0.105
2737,0.085,0.105
2738,0.080,0.100
2739,0.075,0.095
2740,0.075,0.090
2741,0.065,0.075
2742,0.050,0.060
2743,0.035,0.035
2744,0.020,0.010
2745,0.005,-0.010
2746,-0.010,-0.030
2747,-0.015,-0.040
2748,-0.020,-0.050
2749,-0.045,-0.065
2750,-0.025,-0.055
2751,-0.095,-0.100
2752,-0.115,-0.115
2753,-0.115,-0.120
2754,-0.115,-0.125
2755,-0.130,-0.125
2756,-0.145,-0.125
2757,-0.140,-0.125
2758,-0.135,-0.125
2759,-0.140,-0.130
2760,-0.145,-0.135
2761,-0.135,-0.130
2762,-0.125,-0.125
2763,-0.125,-0.120
2764,-0.125,-0.115
2765,-0.130,-0.120
2766,-0.135,-0.125
2767,-0.140,-0.125
2768,-0.145,-0.125
2769,-0.135,-0.125
2770,-0.125,-0.125
2771,-0.140,-0.120
2772,-0.140,-0.115
2773,-0.125,-0.110
2774,-0.120,-0.105
2775,-0.130,-0.110
2776,-0.135,-0.115
2777,-0.130,-0.115
2778,-0.120,-0.115
2779,-0.110,-0.110
2780,-0.105,-0.105
2781,-0.105,-0.110
2782,-0.105,-0.115
2783,-0.105,-0.120
2784,-0.105,-0.125
2785,-0.100,-0.125
2786,-0.095,-0.125
2787,-0.100,-0.125
2788,-0.105,-0.125
2789,-0.100,-0.125
2790,-0.095,-0.130
2791,-0.090,-0.140
2792,-0.090,-0.150
2793,-0.095,-0.155
2794,-0.085,-0.150
2795,-0.075,-0.145
2796,-0.085,-0.150
2797,-0.095,-0.155
2798,-0.100,-0.160
2799,-0.105,-0.165
2800,-0.105,-0.165
2801,-0.105,-0.165
2802,-0.105,-0.165
2803,-0.105,-0.165
2804,-0.105,-0.165
2805,-0.105,-0.165
2806,-0.100,-0.170
2807,-0.095,-0.175
2808,-0.100,-0.170
2809,-0.105,-0.165
2810,-0.095,-0.160
2811,-0.085,-0.155
2812,-0.090,-0.160
2813,-0.095,-0.165
2814,-0.100,-0.170
2815,-0.105,-0.175
2816,-0.100,-0.175
2817,-0.095,-0.175
2818,-0.095,-0.170
2819,-0.095,-0.165
2820,-0.095,-0.165
2821,-0.095,-0.165
2822,-0.090,-0.170
2823,-0.085,-0.165
2824,-0.080,-0.150
2825,-0.060,-0.135
2826,-0.040,-0.120
2827,-0.035,-0.115
2828,-0.030,-0.120
2829,-0.030,-0.125
2830,-0.040,-0.120
2831,-0.015,-0.115
2832,0.020,-0.110
2833,0.030,-0.105
2834,0.045,-0.095
2835,0.075,-0.085
2836,0.105,-0.075
2837,0.075,-0.105
2838,0.045,-0.135
2839,0.020,-0.145
2840,-0.005,-0.155
2841,0.005,-0.155
2842,0.010,-0.155
2843,-0.015,-0.165
2844,-0.040,-0.175
2845,-0.070,-0.185
2846,-0.095,-0.195
2847,-0.080,-0.185
2848,-0.070,-0.175
2849,-0.095,-0.185
2850,-0.115,-0.195
2851,-0.115,-0.195
2852,-0.115,-0.195
2853,-0.120,-0.190
2854,-0.125,-0.185
2855,-0.110,-0.170
2856,-0.100,-0.165
2857,-0.090,-0.160
2858,-0.105,-0.130
2859,-0.145,-0.085
2860,-0.140,-0.030
2861,-0.095,0.030
2862,0.100,0.120
2863,0.360,0.225
2864,0.640,0.460
2865,0.935,0.755
2866,1.345,0.770
2867,1.800,0.690
2868,2.155,0.330
2869,2.485,-0.095
2870,1.900,-0.415
2871,1.155,-0.725
2872,0.445,-0.875
2873,-0.260,-1.005
2874,-0.505,-0.885
2875,-0.295,-1.015
2876,-0.675,-0.615
2877,-0.615,-0.485
2878,-0.535,-0.395
2879,-0.460,-0.310
2880,-0.385,-0.245
2881,-0.310,-0.180
2882,-0.260,-0.145
2883,-0.215,-0.115
2884,-0.195,-0.105
2885,-0.175,-0.095
2886,-0.170,-0.095
2887,-0.165,-0.095
2888,-0.160,-0.090
2889,-0.155,-0.085
2890,-0.155,-0.080
2891,-0.155,-0.075
2892,-0.155,-0.080
2893,-0.155,-0.085
2894,-0.145,-0.080
2895,-0.135,-0.075
2896,-0.140,-0.070
2897,-0.140,-0.060
2898,-0.130,-0.050
2899,-0.125,-0.050
2900,-0.130,-0.060
2901,-0.130,-0.065
2902,-0.120,-0.060
2903,-0.115,-0.050
2904,-0.110,-0.040
2905,-0.105,-0.035
2906,-0.110,-0.035
2907,-0.115,-0.035
2908,-0.110,-0.035
2909,-0.105,-0.035
2910,-0.105,-0.030
2911,-0.105,-0.025
2912,-0.100,-0.020
2913,-0.095,-0.010
2914,-0.095,0.000
2915,-0.090,0.005
2916,-0.080,0.005
2917,-0.070,0.015
2918,-0.065,0.025
2919,-0.045,0.035
2920,-0.025,0.045
2921,-0.030,0.055
2922,-0.035,0.065
2923,-0.020,0.065
2924,-0.005,0.065
2925,0.000,0.075
2926,0.005,0.085
2927,0.015,0.095
2928,0.025,0.105
2929,0.040,0.100
2930,0.055,0.095
2931,0.060,0.095
2932,0.065,0.095
2933,0.075,0.090
2934,0.090,0.090
2935,0.105,0.105
2936,0.115,0.115
2937,0.115,0.110
2938,0.115,0.100
2939,0.110,0.090
2940,0.105,0.080
2941,0.105,0.070
2942,0.100,0.060
2943,0.090,0.050
2944,0.080,0.035
2945,0.070,0.015
2946,0.055,-0.005
2947,0.035,-0.025
2948,0.020,-0.040
2949,0.010,-0.050
2950,-0.005,-0.060
2951,-0.020,-0.070
2952,-0.030,-0.080
2953,-0.040,-0.090
2954,-0.065,-0.105
2955,-0.090,-0.120
2956,-0.095,-0.125
2957,-0.095,-0.130
2958,-0.105,-0.135
2959,-0.125,-0.135
2960,-0.120,-0.135
2961,-0.115,-0.135
2962,-0.120,-0.140
2963,-0.125,-0.145
2964,-0.115,-0.140
2965,-0.105,-0.135
2966,-0.105,-0.130
2967,-0.105,-0.125
2968,-0.110,-0.120
2969,-0.115,-0.115
2970,-0.120,-0.125
2971,-0.125,-0.135
2972,-0.120,-0.130
2973,-0.115,-0.125
2974,-0.120,-0.120
2975,-0.125,-0.115
2976,-0.120,-0.110
2977,-0.115,-0.105
2978,-0.115,-0.110
2979,-0.115,-0.115
2980,-0.110,-0.115
2981,-0.095,-0.115
2982,-0.075,-0.110
2983,-0.070,-0.105
2984,-0.080,-0.105
2985,-0.085,-0.110
2986,-0.090,-0.120
2987,-0.095,-0.125
2988,-0.090,-0.125
2989,-0.085,-0.125
2990,-0.090,-0.120
2991,-0.095,-0.115
2992,-0.090,-0.120
2993,-0.085,-0.125
2994,-0.085,-0.130
2995,-0.085,-0.135
2996,-0.085,-0.135
2997,-0.080,-0.135
2998,-0.070,-0.140
2999,-0.070,-0.145
3000,-0.065,-0.145
3001,-0.090,-0.145
3002,-0.095,-0.155
3003,-0.095,-0.155
3004,-0.095,-0.155
3005,-0.105,-0.155
3006,-0.115,-0.155
3007,-0.105,-0.155
3008,-0.095,-0.155
3009,-0.095,-0.165
3010,-0.095,-0.175
3011,-0.095,-0.170
3012,-0.095,-0.165
3013,-0.090,-0.165
3014,-0.085,-0.165
3015,-0.090,-0.165
3016,-0.095,-0.165
3017,-0.100,-0.170
3018,-0.105,-0.175
3019,-0.100,-0.170
3020,-0.100,-0.165
3021,-0.115,-0.160
3022,-0.120,-0.155
3023,-0.105,-0.150
3024,-0.090,-0.140
3025,-0.075,-0.130
3026,-0.060,-0.125
3027,-0.045,-0.120
3028,-0.035,-0.110
3029,-0.030,-0.100
3030,-0.015,-0.095
3031,0.000,-0.090
3032,0.015,-0.090
3033,0.030,-0.100
3034,0.050,-0.100
3035,0.070,-0.090
3036,0.060,-0.090
3037,0.040,-0.100
3038,0.020,-0.115
3039,0.000,-0.130
3040,-0.005,-0.140
3041,-0.010,-0.150
3042,-0.010,-0.160
3043,-0.005,-0.165
3044,-0.035,-0.170
3045,-0.065,-0.175
3046,-0.080,-0.175
3047,-0.095,-0.175
3048,-0.090,-0.180
3049,-0.085,-0.185
3050,-0.105,-0.195
3051,-0.125,-0.205
3052,-0.135,-0.190
3053,-0.145,-0.175
3054,-0.140,-0.175
3055,-0.135,-0.175
3056,-0.115,-0.175
3057,-0.105,-0.165
3058,-0.110,-0.135
3059,-0.125,-0.095
3060,-0.165,-0.030
3061,-0.100,0.025
3062,0.095,0.075
3063,0.345,0.240
3064,0.645,0.515
3065,0.995,0.650
3066,1.385,0.660
3067,1.850,0.430
3068,2.365,0.030
3069,2.190,-0.345
3070,1.615,-0.710
3071,0.865,-0.895
3072,0.040,-0.995
3073,-0.410,-0.940
3074,-0.715,-0.825
3075,-0.725,-0.670
3076,-0.650,-0.505
3077,-0.565,-0.400
3078,-0.480,-0.310
3079,-0.405,-0.255
3080,-0.335,-0.200
3081,-0.285,-0.160
3082,-0.240,-0.120
3083,-0.230,-0.105
3084,-0.215,-0.085
3085,-0.200,-0.090
3086,-0.185,-0.095
3087,-0.185,-0.095
3088,-0.185,-0.095
3089,-0.180,-0.085
3090,-0.175,-0.075
3091,-0.170,-0.065
3092,-0.165,-0.055
3093,-0.165,-0.055
3094,-0.165,-0.055
3095,-0.170,-0.060
3096,-0.175,-0.065
3097,-0.165,-0.060
3098,-0.155,-0.055
3099,-0.160,-0.045
3100,-0.165,-0.035
3101,-0.155,-0.030
3102,-0.145,-0.025
3103,-0.140,-0.025
3104,-0.135,-0.025
3105,-0.140,-0.025
3106,-0.140,-0.020
3107,-0.130,-0.010
3108,-0.125,-0.005
3109,-0.120,0.000
3110,-0.115,0.005
3111,-0.110,0.005
3112,-0.105,0.010
3113,-0.105,0.020
3114,-0.105,0.035
3115,-0.100,0.050
3116,-0.095,0.055
3117,-0.090,0.060
3118,-0.080,0.065
3119,-0.070,0.065
3120,-0.065,0.075
3121,-0.060,0.090
3122,-0.035,0.110
3123,-0.010,0.130
3124,-0.005,0.135
3125,-0.005,0.135
3126,0.015,0.140
3127,0.025,0.135
3128,0.040,0.140
3129,0.055,0.145
3130,0.060,0.155
3131,0.065,0.165
3132,0.080,0.170
3133,0.095,0.175
3134,0.100,0.170
3135,0.105,0.165
3136,0.115,0.165
3137,0.125,0.165
3138,0.135,0.165
3139,0.145,0.160
3140,0.145,0.145
3141,0.140,0.130
3142,0.120,0.110
3143,0.100,0.085
3144,0.085,0.060
3145,0.065,0.040
3146,0.030,0.015
3147,0.010,-0.005
3148,-0.005,-0.025
3149,-0.025,-0.045
3150,-0.055,-0.075
3151,-0.070,-0.085
3152,-0.080,-0.090
3153,-0.095,-0.095
3154,-0.110,-0.100
3155,-0.115,-0.110
3156,-0.120,-0.120
3157,-0.130,-0.125
3158,-0.140,-0.130
3159,-0.145,-0.135
3160,-0.145,-0.140
3161,-0.150,-0.145
3162,-0.160,-0.140
3163,-0.165,-0.135
3164,-0.160,-0.135
3165,-0.155,-0.135
3166,-0.160,-0.135
3167,-0.170,-0.140
3168,-0.175,-0.145
3169,-0.160,-0.135
3170,-0.145,-0.125
3171,-0.155,-0.125
3172,-0.165,-0.125
3173,-0.165,-0.130
3174,-0.165,-0.135
3175,-0.170,-0.130
3176,-0.175,-0.125
3177,-0.175,-0.120
3178,-0.175,-0.115
3179,-0.170,-0.115
3180,-0.165,-0.115
3181,-0.165,-0.115
3182,-0.165,-0.115
3183,-0.160,-0.120
3184,-0.155,-0.125
3185,-0.145,-0.120
3186,-0.135,-0.115
3187,-0.135,-0.115
3188,-0.135,-0.115
3189,-0.140,-0.120
3190,-0.145,-0.125
3191,-0.140,-0.125
3192,-0.135,-0.125
3193,-0.140,-0.125
3194,-0.145,-0.125
3195,-0.140,-0.125
3196,-0.135,-0.130
3197,-0.135,-0.140
3198,-0.135,-0.145
3199,-0.135,-0.145
3200,-0.135,-0.145
3201,-0.135,-0.140
3202,-0.135,-0.135
3203,-0.140,-0.140
3204,-0.145,-0.150
3205,-0.145,-0.160
3206,-0.145,-0.165
3207,-0.145,-0.165
3208,-0.155,-0.165
3209,-0.175,-0.165
3210,-0.160,-0.165
3211,-0.145,-0.165
3212,-0.150,-0.170
3213,-0.155,-0.175
3214,-0.155,-0.170
3215,-0.155,-0.165
3216,-0.150,-0.160
3217,-0.145,-0.155
3218,-0.150,-0.155
3219,-0.155,-0.155
3220,-0.165,-0.165
3221,-0.175,-0.175
3222,-0.165,-0.175
3223,-0.155,-0.175
3224,-0.160,-0.165
3225,-0.165,-0.155
3226,-0.165,-0.155
3227,-0.165,-0.155
3228,-0.160,-0.165
3229,-0.155,-0.175
3230,-0.160,-0.175
3231,-0.160,-0.175
3232,-0.145,-0.170
3233,-0.140,-0.165
3234,-0.150,-0.160
3235,-0.155,-0.160
3236,-0.155,-0.170
3237,-0.155,-0.175
3238,-0.155,-0.170
3239,-0.155,-0.165
3240,-0.155,-0.160
3241,-0.155,-0.150
3242,-0.155,-0.140
3243,-0.135,-0.130
3244,-0.110,-0.120
3245,-0.105,-0.115
3246,-0.100,-0.115
3247,-0.090,-0.110
3248,-0.080,-0.100
3249,-0.060,-0.095
3250,-0.075,-0.095
3251,-0.025,-0.085
3252,-0.015,-0.085
3253,0.010,-0.080
3254,0.035,-0.075
3255,0.000,-0.095
3256,-0.035,-0.115
3257,-0.050,-0.125
3258,-0.065,-0.135
3259,-0.075,-0.145
3260,-0.085,-0.155
3261,-0.075,-0.165
3262,-0.070,-0.175
3263,-0.095,-0.175
3264,-0.115,-0.175
3265,-0.125,-0.170
3266,-0.135,-0.165
3267,-0.140,-0.175
3268,-0.145,-0.185
3269,-0.155,-0.190
3270,-0.170,-0.195
3271,-0.185,-0.190
3272,-0.185,-0.180
3273,-0.165,-0.170
3274,-0.155,-0.165
3275,-0.155,-0.165
3276,-0.160,-0.145
3277,-0.170,-0.100
3278,-0.170,-0.040
3279,-0.160,0.030
3280,0.010,0.130
3281,0.250,0.235
3282,0.540,0.470
3283,0.840,0.745
3284,1.285,0.715
3285,1.765,0.595
3286,2.100,0.175
3287,2.410,-0.300
3288,1.635,-0.605
3289,0.725,-0.885
3290,0.070,-0.945
3291,-0.565,-0.990
3292,-0.680,-0.820
3293,-0.785,-0.645
3294,-0.680,-0.525
3295,-0.580,-0.410
3296,-0.515,-0.320
3297,-0.450,-0.235
3298,-0.390,-0.205
3299,-0.330,-0.170
3300,-0.290,-0.135
3301,-0.255,-0.105
3302,-0.245,-0.095
3303,-0.235,-0.085
3304,-0.230,-0.080
3305,-0.225,-0.075
3306,-0.225,-0.085
3307,-0.225,-0.095
3308,-0.215,-0.090
3309,-0.205,-0.085
3310,-0.195,-0.075
3311,-0.185,-0.065
3312,-0.195,-0.060
3313,-0.205,-0.055
3314,-0.200,-0.055
3315,-0.195,-0.055
3316,-0.190,-0.050
3317,-0.185,-0.045
3318,-0.190,-0.040
3319,-0.190,-0.035
3320,-0.180,-0.035
3321,-0.175,-0.035
3322,-0.175,-0.035
3323,-0.175,-0.030
3324,-0.170,-0.020
3325,-0.165,-0.010
3326,-0.160,0.000
3327,-0.155,0.005
3328,-0.150,0.005
3329,-0.145,0.005
3330,-0.145,0.010
3331,-0.135,0.015
3332,-0.120,0.020
3333,-0.120,0.035
3334,-0.135,0.055
3335,-0.120,0.060
3336,-0.105,0.065
3337,-0.100,0.065
3338,-0.095,0.065
3339,-0.080,0.075
3340,-0.065,0.085
3341,-0.055,0.105
3342,-0.045,0.125
3343,-0.035,0.125
3344,-0.025,0.125
3345,-0.020,0.130
3346,-0.010,0.135
3347,0.010,0.140
3348,0.025,0.145
3349,0.030,0.150
3350,0.040,0.155
3351,0.055,0.160
3352,0.065,0.165
3353,0.075,0.160
3354,0.085,0.155
3355,0.090,0.155
3356,0.100,0.155
3357,0.110,0.155
3358,0.115,0.150
3359,0.110,0.135
3360,0.100,0.115
3361,0.085,0.095
3362,0.065,0.075
3363,0.050,0.055
3364,0.030,0.035
3365,0.005,0.020
3366,-0.020,0.000
3367,-0.040,-0.030
3368,-0.055,-0.050
3369,-0.070,-0.070
3370,-0.080,-0.080
3371,-0.090,-0.090
3372,-0.095,-0.095
3373,-0.100,-0.100
3374,-0.115,-0.105
3375,-0.105,-0.105
3376,-0.140,-0.125
3377,-0.145,-0.135
3378,-0.145,-0.130
3379,-0.145,-0.125
3380,-0.155,-0.120
3381,-0.165,-0.115
3382,-0.160,-0.120
3383,-0.155,-0.125
3384,-0.155,-0.125
3385,-0.155,-0.125
3386,-0.160,-0.125
3387,-0.165,-0.125
3388,-0.160,-0.115
3389,-0.155,-0.105
3390,-0.155,-0.105
3391,-0.155,-0.105
3392,-0.160,-0.115
3393,-0.165,-0.125
3394,-0.160,-0.120
3395,-0.155,-0.115
3396,-0.170,-0.110
3397,-0.170,-0.105
3398,-0.155,-0.105
3399,-0.145,-0.105
3400,-0.150,-0.110
3401,-0.155,-0.115
3402,-0.155,-0.110
3403,-0.150,-0.105
3404,-0.140,-0.105
3405,-0.135,-0.105
3406,-0.135,-0.105
3407,-0.135,-0.110
3408,-0.135,-0.120
3409,-0.135,-0.125
3410,-0.130,-0.125
3411,-0.130,-0.125
3412,-0.140,-0.125
3413,-0.145,-0.125
3414,-0.140,-0.130
3415,-0.135,-0.135
3416,-0.140,-0.140
3417,-0.145,-0.145
3418,-0.145,-0.145
3419,-0.140,-0.145
3420,-0.135,-0.145
3421,-0.140,-0.150
3422,-0.145,-0.155
3423,-0.150,-0.165
3424,-0.155,-0.175
3425,-0.160,-0.170
3426,-0.165,-0.165
3427,-0.165,-0.160
3428,-0.165,-0.155
3429,-0.165,-0.160
3430,-0.165,-0.165
3431,-0.160,-0.170
3432,-0.155,-0.175
3433,-0.155,-0.170
3434,-0.155,-0.165
3435,-0.150,-0.165
3436,-0.145,-0.165
3437,-0.155,-0.165
3438,-0.165,-0.165
3439,-0.165,-0.165
3440,-0.165,-0.165
3441,-0.160,-0.165
3442,-0.155,-0.165
3443,-0.160,-0.160
3444,-0.160,-0.155
3445,-0.150,-0.155
3446,-0.145,-0.160
3447,-0.150,-0.170
3448,-0.150,-0.170
3449,-0.140,-0.160
3450,-0.140,-0.155
3451,-0.150,-0.155
3452,-0.155,-0.155
3453,-0.150,-0.160
3454,-0.150,-0.165
3455,-0.160,-0.170
3456,-0.165,-0.175
3457,-0.160,-0.170
3458,-0.155,-0.165
3459,-0.155,-0.155
3460,-0.145,-0.155
3461,-0.135,-0.155
3462,-0.145,-0.160
3463,-0.155,-0.165
3464,-0.150,-0.165
3465,-0.145,-0.165
3466,-0.135,-0.155
3467,-0.125,-0.145
3468,-0.115,-0.130
3469,-0.105,-0.115
3470,-0.105,-0.115
3471,-0.105,-0.115
3472,-0.100,-0.110
3473,-0.095,-0.105
3474,-0.085,-0.095
3475,-0.065,-0.085
3476,-0.030,-0.085
3477,0.000,-0.085
3478,0.020,-0.085
3479,0.030,-0.085
3480,0.015,-0.090
3481,0.000,-0.105
3482,-0.015,-0.130
3483,-0.030,-0.145
3484,-0.045,-0.145
3485,-0.055,-0.150
3486,-0.055,-0.160
3487,-0.075,-0.165
3488,-0.105,-0.170
3489,-0.125,-0.175
3490,-0.140,-0.175
3491,-0.135,-0.170
3492,-0.120,-0.160
3493,-0.130,-0.170
3494,-0.150,-0.190
3495,-0.155,-0.195
3496,-0.155,-0.190
3497,-0.155,-0.175
3498,-0.150,-0.160
3499,-0.145,-0.155
3500,-0.145,-0.155
3501,-0.125,-0.140
3502,-0.115,-0.125
3503,-0.175,-0.060
3504,-0.220,0.010
3505,-0.060,0.070
3506,0.125,0.165
3507,0.420,0.450
3508,0.740,0.695
3509,1.145,0.770
3510,1.565,0.740
3511,2.055,0.360
3512,2.255,-0.025
3513,1.705,-0.430
3514,1.085,-0.750
3515,0.325,-0.895
3516,-0.270,-0.955
3517,-0.580,-0.875
3518,-0.745,-0.760
3519,-0.695,-0.600
3520,-0.640,-0.475
3521,-0.575,-0.390
3522,-0.495,-0.305
3523,-0.400,-0.225
3524,-0.335,-0.175
3525,-0.295,-0.155
3526,-0.260,-0.130
3527,-0.230,-0.100
3528,-0.210,-0.085
3529,-0.200,-0.085
3530,-0.195,-0.085
3531,-0.195,-0.080
3532,-0.195,-0.075
3533,-0.195,-0.080
3534,-0.190,-0.085
3535,-0.180,-0.080
3536,-0.180,-0.075
3537,-0.190,-0.070
3538,-0.185,-0.065
3539,-0.170,-0.060
3540,-0.165,-0.055
3541,-0.170,-0.060
3542,-0.165,-0.060
3543,-0.155,-0.055
3544,-0.145,-0.045
3545,-0.135,-0.035
3546,-0.145,-0.035
3547,-0.155,-0.035
3548,-0.150,-0.035
3549,-0.145,-0.035
3550,-0.140,-0.030
3551,-0.135,-0.025
3552,-0.135,-0.015
3553,-0.135,-0.005
3554,-0.135,-0.005
3555,-0.135,-0.005
3556,-0.130,0.000
3557,-0.125,0.005
3558,-0.120,0.005
3559,-0.115,0.010
3560,-0.105,0.030
3561,-0.095,0.045
3562,-0.085,0.045
3563,-0.075,0.045
3564,-0.070,0.050
3565,-0.060,0.055
3566,-0.045,0.060
3567,-0.030,0.070
3568,-0.020,0.085
3569,-0.015,0.095
3570,-0.010,0.095
3571,0.005,0.095
3572,0.020,0.100
3573,0.025,0.105
3574,0.030,0.105
3575,0.045,0.105
3576,0.060,0.110
3577,0.070,0.115
3578,0.080,0.120
3579,0.085,0.120
3580,0.080,0.110
3581,0.085,0.105
3582,0.100,0.105
3583,0.100,0.105
3584,0.085,0.095
3585,0.085,0.085
3586,0.085,0.075
3587,0.070,0.055
3588,0.055,0.035
3589,0.040,0.015
3590,0.025,-0.005
3591,0.020,-0.020
3592,0.015,-0.035
3593,-0.005,-0.055
3594,-0.030,-0.075
3595,-0.055,-0.090
3596,-0.075,-0.105
3597,-0.075,-0.110
3598,-0.080,-0.115
3599,-0.095,-0.115
3600,-0.105,-0.115
3601,-0.110,-0.120
3602,-0.115,-0.125
3603,-0.120,-0.130
3604,-0.125,-0.135
3605,-0.130,-0.135
3606,-0.130,-0.130
3607,-0.120,-0.120
3608,-0.115,-0.115
3609,-0.120,-0.120
3610,-0.125,-0.125
3611,-0.130,-0.130
3612,-0.135,-0.130
3613,-0.130,-0.120
3614,-0.125,-0.115
3615,-0.120,-0.115
3616,-0.115,-0.115
3617,-0.115,-0.115
3618,-0.115,-0.115
3619,-0.110,-0.120
3620,-0.105,-0.125
3621,-0.110,-0.120
3622,-0.110,-0.115
3623,-0.100,-0.110
3624,-0.095,-0.105
3625,-0.095,-0.105
3626,-0.105,-0.120
3627,-0.105,-0.125
3628,-0.100,-0.125
3629,-0.095,-0.125
3630,-0.100,-0.125
3631,-0.105,-0.125
3632,-0.100,-0.125
3633,-0.095,-0.125
3634,-0.095,-0.135
3635,-0.095,-0.145
3636,-0.090,-0.145
3637,-0.085,-0.145
3638,-0.085,-0.140
3639,-0.085,-0.135
3640,-0.085,-0.140
3641,-0.085,-0.145
3642,-0.095,-0.155
3643,-0.105,-0.165
3644,-0.095,-0.165
3645,-0.090,-0.165
3646,-0.105,-0.165
3647,-0.110,-0.165
3648,-0.100,-0.165
3649,-0.095,-0.165
3650,-0.095,-0.170
3651,-0.095,-0.175
3652,-0.090,-0.170
3653,-0.085,-0.165
3654,-0.080,-0.165
3655,-0.075,-0.165
3656,-0.080,-0.165
3657,-0.085,-0.165
3658,-0.090,-0.170
3659,-0.095,-0.175
3660,-0.095,-0.175
3661,-0.095,-0.175
3662,-0.095,-0.170
3663,-0.095,-0.165
3664,-0.100,-0.170
3665,-0.100,-0.175
3666,-0.090,-0.175
3667,-0.090,-0.175
3668,-0.095,-0.175
3669,-0.090,-0.175
3670,-0.085,-0.175
3671,-0.085,-0.170
3672,-0.085,-0.165
3673,-0.080,-0.170
3674,-0.075,-0.175
3675,-0.080,-0.170
3676,-0.085,-0.165
3677,-0.075,-0.155
3678,-0.065,-0.145
3679,-0.050,-0.135
3680,-0.035,-0.125
3681,-0.030,-0.130
3682,-0.020,-0.135
3683,-0.005,-0.125
3684,0.015,-0.115
3685,0.055,-0.105
3686,0.075,-0.095
3687,0.085,-0.095
3688,0.095,-0.095
3689,0.090,-0.095
3690,0.075,-0.110
3691,0.050,-0.140
3692,0.020,-0.155
3693,-0.005,-0.160
3694,-0.010,-0.165
3695,0.010,-0.165
3696,-0.005,-0.175
3697,-0.045,-0.190
3698,-0.055,-0.195
3699,-0.060,-0.195
3700,-0.065,-0.190
3701,-0.060,-0.180
3702,-0.070,-0.185
3703,-0.090,-0.200
3704,-0.105,-0.205
3705,-0.120,-0.205
3706,-0.115,-0.200
3707,-0.100,-0.190
3708,-0.095,-0.185
3709,-0.105,-0.175
3710,-0.090,-0.160
3711,-0.075,-0.145
3712,-0.125,-0.100
3713,-0.165,-0.050
3714,-0.075,0.010
3715,0.045,0.090
3716,0.335,0.250
3717,0.630,0.430
3718,0.955,0.665
3719,1.340,0.795
3720,1.880,0.585
3721,2.260,0.300
3722,2.235,-0.160
3723,1.865,-0.550
3724,0.835,-0.805
3725,0.025,-0.960
3726,-0.435,-0.945
3727,-0.695,-0.855
3728,-0.695,-0.665
3729,-0.655,-0.525
3730,-0.560,-0.440
3731,-0.465,-0.350
3732,-0.370,-0.265
3733,-0.305,-0.205
3734,-0.265,-0.165
3735,-0.225,-0.135
3736,-0.190,-0.115
3737,-0.170,-0.105
3738,-0.160,-0.105
3739,-0.155,-0.100
3740,-0.160,-0.090
3741,-0.160,-0.085
3742,-0.150,-0.090
3743,-0.145,-0.095
3744,-0.145,-0.090
3745,-0.145,-0.085
3746,-0.150,-0.080
3747,-0.145,-0.075
3748,-0.130,-0.070
3749,-0.125,-0.065
3750,-0.125,-0.065
3751,-0.125,-0.065
3752,-0.125,-0.065
3753,-0.120,-0.060
3754,-0.115,-0.055
3755,-0.110,-0.050
3756,-0.105,-0.045
3757,-0.105,-0.040
3758,-0.105,-0.035
3759,-0.100,-0.035
3760,-0.095,-0.035
3761,-0.100,-0.030
3762,-0.100,-0.025
3763,-0.080,-0.020
3764,-0.065,-0.015
3765,-0.065,-0.010
3766,-0.065,-0.005
3767,-0.065,-0.005
3768,-0.060,0.000
3769,-0.045,0.015
3770,-0.035,0.030
3771,-0.050,0.045
3772,-0.045,0.055
3773,-0.025,0.055
3774,-0.015,0.055
3775,-0.015,0.060
3776,-0.010,0.065
3777,0.005,0.070
3778,0.020,0.085
3779,0.030,0.100
3780,0.045,0.105
3781,0.060,0.100
3782,0.065,0.095
3783,0.070,0.095
3784,0.080,0.095
3785,0.090,0.100
3786,0.090,0.105
3787,0.080,0.105
3788,0.085,0.105
3789,0.100,0.100
3790,0.105,0.090
3791,0.110,0.080
3792,0.115,0.070
3793,0.115,0.065
3794,0.110,0.060
3795,0.105,0.055
3796,0.090,0.035
3797,0.075,0.015
3798,0.055,-0.005
3799,0.035,-0.025
3800,0.020,-0.040
3801,0.005,-0.055
3802,-0.015,-0.070
3803,-0.035,-0.085
3804,-0.045,-0.095
3805,-0.055,-0.105
3806,-0.065,-0.125
3807,-0.075,-0.135
3808,-0.085,-0.140
3809,-0.095,-0.145
3810,-0.090,-0.140
3811,-0.085,-0.135
3812,-0.095,-0.135
3813,-0.110,-0.135
3814,-0.120,-0.140
3815,-0.120,-0.145
3816,-0.110,-0.145
3817,-0.110,-0.145
3818,-0.120,-0.140
3819,-0.125,-0.135
3820,-0.120,-0.130
3821,-0.115,-0.125
3822,-0.120,-0.125
3823,-0.120,-0.125
3824,-0.110,-0.125
3825,-0.105,-0.125
3826,-0.105,-0.120
3827,-0.105,-0.115
3828,-0.105,-0.110
3829,-0.105,-0.105
3830,-0.110,-0.110
3831,-0.110,-0.115
3832,-0.100,-0.110
3833,-0.100,-0.105
3834,-0.115,-0.105
3835,-0.095,-0.105
3836,-0.075,-0.105
3837,-0.080,-0.115
3838,-0.085,-0.125
3839,-0.080,-0.120
3840,-0.075,-0.115
3841,-0.065,-0.110
3842,-0.055,-0.105
3843,-0.065,-0.115
3844,-0.075,-0.125
3845,-0.080,-0.130
3846,-0.085,-0.135
3847,-0.080,-0.140
3848,-0.075,-0.145
3849,-0.085,-0.140
3850,-0.095,-0.135
3851,-0.090,-0.140
3852,-0.085,-0.145
3853,-0.090,-0.155
3854,-0.095,-0.165
3855,-0.095,-0.160
3856,-0.090,-0.155
3857,-0.080,-0.150
3858,-0.080,-0.145
3859,-0.090,-0.150
3860,-0.095,-0.155
3861,-0.095,-0.160
3862,-0.095,-0.165
3863,-0.095,-0.165
3864,-0.095,-0.165
3865,-0.095,-0.160
3866,-0.095,-0.155
3867,-0.090,-0.160
3868,-0.085,-0.165
3869,-0.085,-0.170
3870,-0.085,-0.175
3871,-0.090,-0.175
3872,-0.090,-0.165
3873,-0.080,-0.150
3874,-0.075,-0.145
3875,-0.075,-0.145
3876,-0.090,-0.160
3877,-0.095,-0.165
3878,-0.090,-0.160
3879,-0.085,-0.155
3880,-0.080,-0.145
3881,-0.075,-0.135
3882,-0.055,-0.120
3883,-0.035,-0.105
3884,-0.030,-0.110
3885,-0.025,-0.115
3886,-0.020,-0.100
3887,-0.005,-0.085
3888,0.030,-0.080
3889,0.055,-0.075
3890,0.060,-0.080
3891,0.070,-0.085
3892,0.085,-0.085
3893,0.085,-0.095
3894,0.055,-0.120
3895,0.025,-0.135
3896,0.000,-0.135
3897,-0.010,-0.135
3898,0.005,-0.140
3899,0.005,-0.150
3900,-0.025,-0.165
3901,-0.050,-0.175
3902,-0.080,-0.180
3903,-0.095,-0.180
3904,-0.090,-0.170
3905,-0.090,-0.170
3906,-0.100,-0.180
3907,-0.115,-0.185
3908,-0.130,-0.190
3909,-0.130,-0.190
3910,-0.120,-0.180
3911,-0.115,-0.170
3912,-0.115,-0.160
3913,-0.100,-0.155
3914,-0.080,-0.150
3915,-0.125,-0.100
3916,-0.180,-0.050
3917,-0.065,0.010
3918,0.060,0.070
3919,0.320,0.260
3920,0.590,0.445
3921,0.950,0.620
3922,1.335,0.740
3923,1.895,0.455
3924,2.345,0.140
3925,2.210,-0.305
3926,1.900,-0.690
3927,0.960,-0.850
3928,0.135,-0.970
3929,-0.360,-0.950
3930,-0.705,-0.880
3931,-0.700,-0.695
3932,-0.665,-0.545
3933,-0.580,-0.445
3934,-0.490,-0.350
3935,-0.405,-0.265
3936,-0.335,-0.200
3937,-0.290,-0.165
3938,-0.250,-0.135
3939,-0.220,-0.110
3940,-0.200,-0.095
3941,-0.185,-0.090
3942,-0.175,-0.085
3943,-0.180,-0.080
3944,-0.185,-0.075
3945,-0.180,-0.070
3946,-0.175,-0.065
3947,-0.175,-0.065
3948,-0.170,-0.065
3949,-0.160,-0.060
3950,-0.150,-0.050
3951,-0.140,-0.040
3952,-0.135,-0.035
3953,-0.140,-0.035
3954,-0.145,-0.035
3955,-0.150,-0.040
3956,-0.155,-0.045
3957,-0.150,-0.040
3958,-0.145,-0.030
3959,-0.145,-0.015
3960,-0.135,-0.010
3961,-0.125,-0.005
3962,-0.130,-0.010
3963,-0.135,-0.015
3964,-0.120,-0.005
3965,-0.105,0.005
3966,-0.100,0.015
3967,-0.095,0.025
3968,-0.095,0.030
3969,-0.095,0.035
3970,-0.095,0.035
3971,-0.095,0.035
3972,-0.085,0.050
3973,-0.075,0.065
3974,-0.075,0.075
3975,-0.070,0.085
3976,-0.055,0.095
3977,-0.045,0.105
3978,-0.040,0.110
3979,-0.030,0.115
3980,-0.015,0.130
3981,0.005,0.140
3982,0.025,0.155
3983,0.040,0.165
3984,0.050,0.170
3985,0.060,0.175
3986,0.070,0.170
3987,0.085,0.170
3988,0.100,0.180
3989,0.105,0.185
3990,0.110,0.185
3991,0.120,0.185
3992,0.130,0.185
3993,0.140,0.185
3994,0.150,0.180
3995,0.155,0.175
3996,0.155,0.170
3997,0.155,0.160
3998,0.160,0.150
3999,0.145,0.125
4000,0.165,0.145
4001,0.095,0.070
4002,0.075,0.045
4003,0.055,0.025
4004,0.035,0.005
4005,0.010,-0.010
4006,-0.015,-0.025
4007,-0.035,-0.040
4008,-0.055,-0.055
4009,-0.075,-0.085
4010,-0.095,-0.105
4011,-0.100,-0.105
4012,-0.105,-0.105
4013,-0.105,-0.105
4014,-0.105,-0.105
4015,-0.115,-0.105
4016,-0.130,-0.110
4017,-0.145,-0.125
4018,-0.155,-0.135
4019,-0.145,-0.130
4020,-0.135,-0.125
4021,-0.150,-0.120
4022,-0.155,-0.115
4023,-0.155,-0.115
4024,-0.155,-0.115
4025,-0.160,-0.120
4026,-0.165,-0.125
4027,-0.160,-0.120
4028,-0.155,-0.110
4029,-0.150,-0.100
4030,-0.145,-0.095
4031,-0.150,-0.100
4032,-0.155,-0.105
4033,-0.155,-0.105
4034,-0.150,-0.105
4035,-0.140,-0.105
4036,-0.140,-0.100
4037,-0.150,-0.090
4038,-0.150,-0.085
4039,-0.140,-0.090
4040,-0.135,-0.095
4041,-0.135,-0.100
4042,-0.130,-0.100
4043,-0.125,-0.095
4044,-0.120,-0.090
4045,-0.115,-0.085
4046,-0.115,-0.090
4047,-0.115,-0.095
4048,-0.115,-0.100
4049,-0.115,-0.105
4050,-0.110,-0.110
4051,-0.105,-0.115
4052,-0.115,-0.110
4053,-0.125,-0.105
4054,-0.120,-0.110
4055,-0.115,-0.115
4056,-0.115,-0.120
4057,-0.115,-0.125
4058,-0.120,-0.135
4059,-0.125,-0.145
4060,-0.120,-0.135
4061,-0.115,-0.125
4062,-0.125,-0.130
4063,-0.135,-0.135
4064,-0.135,-0.140
4065,-0.135,-0.145
4066,-0.130,-0.145
4067,-0.125,-0.145
4068,-0.130,-0.140
4069,-0.135,-0.135
4070,-0.135,-0.140
4071,-0.135,-0.145
4072,-0.135,-0.150
4073,-0.135,-0.155
4074,-0.135,-0.150
4075,-0.130,-0.145
4076,-0.120,-0.140
4077,-0.115,-0.135
4078,-0.120,-0.140
4079,-0.125,-0.145
4080,-0.130,-0.145
4081,-0.130,-0.145
4082,-0.120,-0.145
4083,-0.120,-0.145
4084,-0.135,-0.135
4085,-0.130,-0.135
4086,-0.125,-0.135
4087,-0.130,-0.140
4088,-0.135,-0.145
4089,-0.125,-0.135
4090,-0.115,-0.125
4091,-0.100,-0.105
4092,-0.085,-0.085
4093,-0.075,-0.080
4094,-0.065,-0.075
4095,-0.065,-0.085
4096,-0.060,-0.095
4097,-0.040,-0.080
4098,-0.020,-0.065
4099,-0.005,-0.060
4100,0.010,-0.055
4101,0.030,-0.060
4102,0.045,-0.065
4103,0.035,-0.075
4104,0.015,-0.090
4105,-0.010,-0.115
4106,-0.025,-0.125
4107,-0.030,-0.120
4108,-0.035,-0.120
4109,-0.035,-0.130
4110,-0.050,-0.140
4111,-0.080,-0.150
4112,-0.100,-0.155
4113,-0.110,-0.160
4114,-0.115,-0.155
4115,-0.120,-0.140
4116,-0.135,-0.145
4117,-0.150,-0.160
4118,-0.155,-0.165
4119,-0.155,-0.165
4120,-0.155,-0.160
4121,-0.150,-0.150
4122,-0.135,-0.140
4123,-0.120,-0.130
4124,-0.115,-0.110
4125,-0.115,-0.125
4126,-0.160,-0.030
4127,-0.200,0.025
4128,-0.010,0.075
4129,0.190,0.150
4130,0.465,0.420
4131,0.750,0.665
4132,1.090,0.740
4133,1.455,0.745
4134,1.950,0.425
4135,2.260,0.075
4136,1.935,-0.355
4137,1.455,-0.705
4138,0.580,-0.855
4139,-0.125,-0.940
4140,-0.500,-0.890
4141,-0.730,-0.790
4142,-0.700,-0.620
4143,-0.650,-0.475
4144,-0.555,-0.370
4145,-0.475,-0.280
4146,-0.400,-0.205
4147,-0.340,-0.150
4148,-0.280,-0.115
4149,-0.245,-0.090
4150,-0.225,-0.080
4151,-0.215,-0.075
4152,-0.210,-0.075
4153,-0.205,-0.075
4154,-0.200,-0.070
4155,-0.195,-0.065
4156,-0.190,-0.060
4157,-0.185,-0.055
4158,-0.190,-0.055
4159,-0.195,-0.055
4160,-0.190,-0.050
4161,-0.185,-0.040
4162,-0.185,-0.030
4163,-0.185,-0.025
4164,-0.180,-0.025
4165,-0.175,-0.025
4166,-0.180,-0.025
4167,-0.175,-0.020
4168,-0.165,-0.015
4169,-0.155,-0.005
4170,-0.145,0.005
4171,-0.150,0.010
4172,-0.155,0.015
4173,-0.150,0.010
4174,-0.145,0.005
4175,-0.140,0.005
4176,-0.135,0.005
4177,-0.135,0.025
4178,-0.135,0.045
4179,-0.125,0.045
4180,-0.115,0.045
4181,-0.110,0.050
4182,-0.105,0.055
4183,-0.105,0.060
4184,-0.100,0.070
4185,-0.085,0.085
4186,-0.075,0.095
4187,-0.070,0.105
4188,-0.060,0.115
4189,-0.050,0.120
4190,-0.040,0.130
4191,-0.025,0.140
4192,-0.010,0.150
4193,0.000,0.160
4194,0.010,0.165
4195,0.030,0.170
4196,0.040,0.175
4197,0.050,0.170
4198,0.060,0.170
4199,0.070,0.180
4200,0.090,0.185
4201,0.110,0.190
4202,0.115,0.195
4203,0.115,0.190
4204,0.115,0.185
4205,0.120,0.180
4206,0.130,0.175
4207,0.140,0.170
4208,0.130,0.160
4209,0.105,0.145
4210,0.095,0.125
4211,0.085,0.105
4212,0.060,0.075
4213,0.035,0.045
4214,0.015,0.025
4215,-0.005,0.005
4216,-0.025,-0.010
4217,-0.045,-0.025
4218,-0.065,-0.040
4219,-0.085,-0.055
4220,-0.100,-0.065
4221,-0.115,-0.075
4222,-0.115,-0.080
4223,-0.120,-0.085
4224,-0.140,-0.090
4225,-0.155,-0.095
4226,-0.145,-0.095
4227,-0.135,-0.095
4228,-0.145,-0.100
4229,-0.155,-0.105
4230,-0.150,-0.105
4231,-0.145,-0.105
4232,-0.145,-0.100
4233,-0.145,-0.095
4234,-0.150,-0.095
4235,-0.155,-0.095
4236,-0.160,-0.100
4237,-0.165,-0.105
4238,-0.160,-0.100
4239,-0.160,-0.095
4240,-0.170,-0.090
4241,-0.175,-0.085
4242,-0.170,-0.080
4243,-0.165,-0.075
4244,-0.160,-0.075
4245,-0.155,-0.075
4246,-0.160,-0.080
4247,-0.160,-0.080
4248,-0.150,-0.070
4249,-0.145,-0.065
4250,-0.145,-0.065
4251,-0.145,-0.080
4252,-0.145,-0.085
4253,-0.140,-0.085
4254,-0.135,-0.085
4255,-0.140,-0.080
4256,-0.145,-0.075
4257,-0.145,-0.080
4258,-0.145,-0.085
4259,-0.145,-0.095
4260,-0.145,-0.105
4261,-0.145,-0.100
4262,-0.145,-0.095
4263,-0.135,-0.100
4264,-0.125,-0.105
4265,-0.130,-0.105
4266,-0.135,-0.105
4267,-0.140,-0.115
4268,-0.145,-0.125
4269,-0.140,-0.125
4270,-0.140,-0.125
4271,-0.155,-0.120
4272,-0.160,-0.115
4273,-0.150,-0.120
4274,-0.150,-0.125
4275,-0.160,-0.130
4276,-0.165,-0.135
4277,-0.160,-0.135
4278,-0.155,-0.135
4279,-0.150,-0.130
4280,-0.145,-0.125
4281,-0.150,-0.130
4282,-0.160,-0.135
4283,-0.170,-0.135
4284,-0.170,-0.135
4285,-0.160,-0.135
4286,-0.160,-0.135
4287,-0.170,-0.130
4288,-0.165,-0.125
4289,-0.150,-0.125
4290,-0.155,-0.130
4291,-0.170,-0.140
4292,-0.165,-0.135
4293,-0.155,-0.125
4294,-0.150,-0.125
4295,-0.145,-0.125
4296,-0.145,-0.125
4297,-0.145,-0.125
4298,-0.150,-0.130
4299,-0.155,-0.135
4300,-0.150,-0.130
4301,-0.145,-0.125
4302,-0.145,-0.115
4303,-0.140,-0.105
4304,-0.120,-0.090
4305,-0.105,-0.075
4306,-0.105,-0.080
4307,-0.105,-0.085
4308,-0.100,-0.075
4309,-0.080,-0.065
4310,-0.040,-0.055
4311,-0.015,-0.045
4312,-0.005,-0.050
4313,0.015,-0.055
4314,0.035,-0.050
4315,0.030,-0.055
4316,0.000,-0.080
4317,-0.030,-0.095
4318,-0.060,-0.100
4319,-0.070,-0.105
4320,-0.060,-0.110
4321,-0.065,-0.125
4322,-0.080,-0.140
4323,-0.100,-0.145
4324,-0.125,-0.145
4325,-0.135,-0.145
4326,-0.135,-0.140
4327,-0.140,-0.135
4328,-0.150,-0.140
4329,-0.170,-0.150
4330,-0.190,-0.160
4331,-0.185,-0.160
4332,-0.170,-0.150
4333,-0.170,-0.135
4334,-0.185,-0.115
4335,-0.165,-0.115
4336,-0.145,-0.115
4337,-0.165,-0.095
4338,-0.185,-0.070
4339,-0.200,0.010
4340,-0.180,0.085
4341,0.045,0.150
4342,0.285,0.265
4343,0.590,0.565
4344,0.930,0.795
4345,1.355,0.795
4346,1.775,0.675
4347,2.195,0.275
4348,2.175,-0.125
4349,1.300,-0.510
4350,0.525,-0.785
4351,-0.100,-0.900
4352,-0.530,-0.910
4353,-0.705,-0.785
4354,-0.765,-0.655
4355,-0.690,-0.525
4356,-0.610,-0.420
4357,-0.525,-0.325
4358,-0.450,-0.250
4359,-0.390,-0.180
4360,-0.340,-0.140
4361,-0.300,-0.115
4362,-0.270,-0.095
4363,-0.245,-0.075
4364,-0.235,-0.065
4365,-0.230,-0.060
4366,-0.225,-0.055
4367,-0.225,-0.055
4368,-0.220,-0.055
4369,-0.210,-0.055
4370,-0.205,-0.055
4371,-0.210,-0.050
4372,-0.205,-0.040
4373,-0.190,-0.030
4374,-0.185,-0.025
4375,-0.185,-0.025
4376,-0.185,-0.030
4377,-0.185,-0.035
4378,-0.175,-0.025
4379,-0.165,-0.015
4380,-0.170,-0.010
4381,-0.175,-0.005
4382,-0.165,-0.005
4383,-0.155,-0.005
4384,-0.160,-0.005
4385,-0.165,-0.005
4386,-0.155,0.005
4387,-0.145,0.015
4388,-0.135,0.020
4389,-0.125,0.025
4390,-0.125,0.030
4391,-0.125,0.035
4392,-0.130,0.030
4393,-0.130,0.025
4394,-0.110,0.035
4395,-0.095,0.045
4396,-0.095,0.060
4397,-0.090,0.070
4398,-0.080,0.080
4399,-0.075,0.085
4400,-0.080,0.085
4401,-0.075,0.085
4402,-0.055,0.090
4403,-0.035,0.100
4404,-0.020,0.110
4405,-0.015,0.120
4406,-0.010,0.130
4407,-0.005,0.135
4408,-0.005,0.135
4409,0.010,0.135
4410,0.030,0.130
4411,0.035,0.130
4412,0.035,0.140
4413,0.050,0.145
4414,0.070,0.145
4415,0.075,0.145
4416,0.075,0.140
4417,0.080,0.135
4418,0.085,0.135
4419,0.095,0.135
4420,0.105,0.135
4421,0.090,0.120
4422,0.075,0.105
4423,0.060,0.085
4424,0.045,0.065
4425,0.015,0.045
4426,-0.005,0.025
4427,-0.020,0.010
4428,-0.035,-0.005
4429,-0.050,-0.020
4430,-0.065,-0.035
4431,-0.085,-0.055
4432,-0.100,-0.065
4433,-0.120,-0.075
4434,-0.135,-0.085
4435,-0.125,-0.085
4436,-0.115,-0.085
4437,-0.125,-0.085
4438,-0.140,-0.090
4439,-0.150,-0.100
4440,-0.155,-0.105
4441,-0.150,-0.100
4442,-0.145,-0.095
4443,-0.150,-0.090
4444,-0.155,-0.085
4445,-0.150,-0.085
4446,-0.145,-0.085
4447,-0.150,-0.090
4448,-0.150,-0.095
4449,-0.140,-0.095
4450,-0.135,-0.085
4451,-0.130,-0.070
4452,-0.125,-0.065
4453,-0.130,-0.070
4454,-0.135,-0.075
4455,-0.135,-0.080
4456,-0.135,-0.085
4457,-0.130,-0.080
4458,-0.125,-0.075
4459,-0.125,-0.065
4460,-0.120,-0.070
4461,-0.115,-0.075
4462,-0.115,-0.080
4463,-0.115,-0.085
4464,-0.110,-0.085
4465,-0.105,-0.085
4466,-0.105,-0.085
4467,-0.105,-0.085
4468,-0.095,-0.085
4469,-0.085,-0.085
4470,-0.090,-0.090
4471,-0.095,-0.095
4472,-0.090,-0.100
4473,-0.090,-0.105
4474,-0.105,-0.105
4475,-0.110,-0.105
4476,-0.095,-0.105
4477,-0.085,-0.105
4478,-0.090,-0.115
4479,-0.095,-0.125
4480,-0.100,-0.120
4481,-0.105,-0.115
4482,-0.105,-0.115
4483,-0.105,-0.115
4484,-0.100,-0.120
4485,-0.100,-0.125
4486,-0.110,-0.130
4487,-0.115,-0.135
4488,-0.110,-0.130
4489,-0.105,-0.125
4490,-0.110,-0.120
4491,-0.115,-0.115
4492,-0.115,-0.115
4493,-0.115,-0.120
4494,-0.110,-0.130
4495,-0.105,-0.135
4496,-0.105,-0.135
4497,-0.105,-0.135
4498,-0.100,-0.130
4499,-0.095,-0.125
4500,-0.095,-0.125
4501,-0.105,-0.130
4502,-0.105,-0.135
4503,-0.105,-0.130
4504,-0.105,-0.125
4505,-0.090,-0.110
4506,-0.075,-0.095
4507,-0.065,-0.090
4508,-0.055,-0.085
4509,-0.050,-0.095
4510,-0.045,-0.105
4511,-0.035,-0.090
4512,-0.015,-0.075
4513,0.020,-0.065
4514,0.050,-0.055
4515,0.065,-0.055
4516,0.075,-0.055
4517,0.065,-0.065
4518,0.045,-0.080
4519,0.020,-0.095
4520,0.000,-0.105
4521,-0.025,-0.110
4522,-0.025,-0.115
4523,-0.005,-0.120
4524,-0.015,-0.135
4525,-0.055,-0.155
4526,-0.080,-0.160
4527,-0.090,-0.150
4528,-0.090,-0.145
4529,-0.080,-0.140
4530,-0.090,-0.145
4531,-0.115,-0.160
4532,-0.130,-0.165
4533,-0.140,-0.165
4534,-0.135,-0.165
4535,-0.120,-0.160
4536,-0.120,-0.150
4537,-0.130,-0.140
4538,-0.115,-0.130
4539,-0.090,-0.120
4540,-0.135,-0.080
4541,-0.190,-0.040
4542,-0.090,0.025
4543,0.020,0.090
4544,0.325,0.275
4545,0.630,0.460
4546,0.965,0.670
4547,1.330,0.825
4548,1.890,0.580
4549,2.320,0.300
4550,2.095,-0.145
4551,1.715,-0.540
4552,0.775,-0.755
4553,-0.020,-0.915
4554,-0.430,-0.905
4555,-0.715,-0.845
4556,-0.705,-0.670
4557,-0.670,-0.530
4558,-0.595,-0.445
4559,-0.510,-0.360
4560,-0.410,-0.275
4561,-0.340,-0.210
4562,-0.300,-0.170
4563,-0.260,-0.130
4564,-0.225,-0.100
4565,-0.200,-0.085
4566,-0.185,-0.080
4567,-0.175,-0.075
4568,-0.175,-0.070
4569,-0.175,-0.065
4570,-0.175,-0.065
4571,-0.170,-0.065
4572,-0.160,-0.060
4573,-0.155,-0.055
4574,-0.160,-0.050
4575,-0.150,-0.045
4576,-0.130,-0.040
4577,-0.125,-0.035
4578,-0.130,-0.030
4579,-0.135,-0.025
4580,-0.135,-0.030
4581,-0.130,-0.035
4582,-0.120,-0.030
4583,-0.120,-0.025
4584,-0.135,-0.015
4585,-0.120,-0.010
4586,-0.105,-0.005
4587,-0.105,-0.010
4588,-0.105,-0.015
4589,-0.105,-0.005
4590,-0.105,0.005
4591,-0.095,0.015
4592,-0.085,0.025
4593,-0.080,0.025
4594,-0.075,0.025
4595,-0.080,0.030
4596,-0.080,0.035
4597,-0.060,0.040
4598,-0.045,0.045
4599,-0.050,0.055
4600,-0.055,0.065
4601,-0.045,0.070
4602,-0.035,0.075
4603,-0.030,0.080
4604,-0.020,0.085
4605,-0.005,0.100
4606,0.010,0.110
4607,0.025,0.120
4608,0.040,0.125
4609,0.055,0.125
4610,0.065,0.125
4611,0.070,0.120
4612,0.085,0.115
4613,0.100,0.120
4614,0.105,0.125
4615,0.105,0.130
4616,0.105,0.135
4617,0.110,0.130
4618,0.115,0.120
4619,0.120,0.110
4620,0.125,0.105
4621,0.125,0.100
4622,0.120,0.095
4623,0.110,0.090
4624,0.100,0.070
4625,0.105,0.085
4626,0.060,0.020
4627,0.035,-0.005
4628,0.020,-0.020
4629,0.005,-0.035
4630,-0.015,-0.045
4631,-0.035,-0.055
4632,-0.045,-0.065
4633,-0.055,-0.075
4634,-0.070,-0.090
4635,-0.085,-0.105
4636,-0.090,-0.105
4637,-0.095,-0.105
4638,-0.095,-0.105
4639,-0.095,-0.105
4640,-0.100,-0.105
4641,-0.105,-0.105
4642,-0.115,-0.115
4643,-0.125,-0.125
4644,-0.120,-0.120
4645,-0.115,-0.115
4646,-0.120,-0.110
4647,-0.125,-0.105
4648,-0.125,-0.105
4649,-0.125,-0.105
4650,-0.125,-0.110
4651,-0.125,-0.115
4652,-0.120,-0.110
4653,-0.115,-0.105
4654,-0.115,-0.100
4655,-0.115,-0.095
4656,-0.110,-0.095
4657,-0.105,-0.095
4658,-0.110,-0.100
4659,-0.110,-0.105
4660,-0.100,-0.100
4661,-0.095,-0.095
4662,-0.100,-0.090
4663,-0.100,-0.085
4664,-0.090,-0.085
4665,-0.085,-0.090
4666,-0.085,-0.100
4667,-0.080,-0.100
4668,-0.075,-0.095
4669,-0.065,-0.095
4670,-0.055,-0.095
4671,-0.065,-0.095
4672,-0.075,-0.095
4673,-0.080,-0.105
4674,-0.085,-0.115
4675,-0.080,-0.115
4676,-0.075,-0.115
4677,-0.080,-0.115
4678,-0.085,-0.115
4679,-0.080,-0.120
4680,-0.075,-0.125
4681,-0.080,-0.135
4682,-0.085,-0.145
4683,-0.090,-0.145
4684,-0.090,-0.145
4685,-0.075,-0.140
4686,-0.065,-0.135
4687,-0.075,-0.135
4688,-0.085,-0.135
4689,-0.085,-0.140
4690,-0.085,-0.145
4691,-0.085,-0.145
4692,-0.085,-0.145
4693,-0.090,-0.145
4694,-0.090,-0.145
4695,-0.080,-0.145
4696,-0.080,-0.145
4697,-0.090,-0.145
4698,-0.090,-0.145
4699,-0.080,-0.150
4700,-0.075,-0.155
4701,-0.075,-0.150
4702,-0.075,-0.145
4703,-0.075,-0.140
4704,-0.080,-0.135
4705,-0.090,-0.140
4706,-0.085,-0.145
4707,-0.070,-0.140
4708,-0.060,-0.120
4709,-0.045,-0.095
4710,-0.035,-0.095
4711,-0.025,-0.095
4712,-0.025,-0.095
4713,-0.025,-0.095
4714,0.000,-0.085
4715,0.025,-0.075
4716,0.050,-0.075
4717,0.075,-0.075
4718,0.085,-0.070
4719,0.090,-0.070
4720,0.070,-0.090
4721,0.050,-0.105
4722,0.030,-0.120
4723,0.010,-0.135
4724,-0.005,-0.135
4725,-0.015,-0.135
4726,-0.005,-0.140
4727,-0.010,-0.150
4728,-0.045,-0.170
4729,-0.065,-0.185
4730,-0.070,-0.170
4731,-0.075,-0.165
4732,-0.075,-0.165
4733,-0.080,-0.170
4734,-0.095,-0.180
4735,-0.105,-0.185
4736,-0.110,-0.185
4737,-0.110,-0.180
4738,-0.100,-0.170
4739,-0.095,-0.160
4740,-0.090,-0.150
4741,-0.085,-0.130
4742,-0.080,-0.110
4743,-0.115,-0.065
4744,-0.165,-0.015
4745,-0.030,0.035
4746,0.145,0.090
4747,0.435,0.335
4748,0.740,0.600
4749,1.145,0.645
4750,0.755,0.615
4751,2.065,0.280
4752,2.530,-0.130
4753,1.975,-0.490
4754,1.385,-0.820
4755,0.525,-0.925
4756,-0.250,-0.995
4757,-0.520,-0.855
4758,-0.735,-0.710
4759,-0.655,-0.565
4760,-0.575,-0.435
4761,-0.490,-0.330
4762,-0.405,-0.240
4763,-0.330,-0.185
4764,-0.265,-0.135
4765,-0.225,-0.105
4766,-0.190,-0.085
4767,-0.175,-0.085
4768,-0.165,-0.085
4769,-0.160,-0.080
4770,-0.155,-0.075
4771,-0.160,-0.070
4772,-0.160,-0.065
4773,-0.150,-0.060
4774,-0.145,-0.055
4775,-0.150,-0.055
4776,-0.150,-0.055
4777,-0.140,-0.050
4778,-0.135,-0.040
4779,-0.135,-0.030
4780,-0.135,-0.025
4781,-0.130,-0.025
4782,-0.125,-0.025
4783,-0.130,-0.030
4784,-0.130,-0.030
4785,-0.120,-0.020
4786,-0.120,-0.015
4787,-0.130,-0.010
4788,-0.125,-0.005
4789,-0.110,-0.005
4790,-0.105,-0.005
4791,-0.105,0.000
4792,-0.100,0.010
4793,-0.095,0.015
4794,-0.085,0.020
4795,-0.075,0.025
4796,-0.075,0.035
4797,-0.075,0.045
4798,-0.075,0.050
4799,-0.075,0.055
4800,-0.065,0.060
4801,-0.055,0.065
4802,-0.050,0.075
4803,-0.045,0.085
4804,-0.035,0.100
4805,-0.025,0.115
4806,-0.015,0.120
4807,0.000,0.125
4808,0.015,0.135
4809,0.030,0.145
4810,0.050,0.155
4811,0.065,0.165
4812,0.075,0.170
4813,0.085,0.175
4814,0.090,0.170
4815,0.100,0.170
4816,0.115,0.180
4817,0.125,0.185
4818,0.130,0.185
4819,0.140,0.185
4820,0.160,0.185
4821,0.165,0.185
4822,0.165,0.180
4823,0.165,0.165
4824,0.170,0.150
4825,0.175,0.140
4826,0.170,0.130
4827,0.150,0.110
4828,0.130,0.090
4829,0.095,0.060
4830,0.060,0.030
4831,0.050,0.010
4832,0.040,-0.010
4833,0.000,-0.030
4834,-0.045,-0.055
4835,-0.055,-0.065
4836,-0.065,-0.075
4837,-0.085,-0.090
4838,-0.105,-0.105
4839,-0.105,-0.105
4840,-0.105,-0.105
4841,-0.110,-0.110
4842,-0.115,-0.115
4843,-0.120,-0.120
4844,-0.125,-0.125
4845,-0.135,-0.125
4846,-0.145,-0.125
4847,-0.145,-0.130
4848,-0.145,-0.135
4849,-0.150,-0.130
4850,-0.155,-0.125
4851,-0.155,-0.120
4852,-0.155,-0.115
4853,-0.160,-0.120
4854,-0.165,-0.125
4855,-0.160,-0.125
4856,-0.150,-0.120
4857,-0.140,-0.110
4858,-0.135,-0.105
4859,-0.140,-0.105
4860,-0.145,-0.105
4861,-0.150,-0.105
4862,-0.155,-0.105
4863,-0.150,-0.105
4864,-0.145,-0.105
4865,-0.145,-0.100
4866,-0.145,-0.095
4867,-0.140,-0.095
4868,-0.135,-0.095
4869,-0.130,-0.100
4870,-0.125,-0.105
4871,-0.125,-0.105
4872,-0.120,-0.105
4873,-0.110,-0.100
4874,-0.105,-0.100
4875,-0.105,-0.095
4876,-0.115,-0.120
4877,-0.115,-0.125
4878,-0.115,-0.125
4879,-0.115,-0.125
4880,-0.120,-0.120
4881,-0.125,-0.115
4882,-0.125,-0.120
4883,-0.125,-0.125
4884,-0.125,-0.135
4885,-0.125,-0.145
4886,-0.130,-0.140
4887,-0.135,-0.135
4888,-0.130,-0.135
4889,-0.125,-0.135
4890,-0.125,-0.140
4891,-0.125,-0.145
4892,-0.130,-0.155
4893,-0.135,-0.165
4894,-0.130,-0.155
4895,-0.125,-0.145
4896,-0.140,-0.145
4897,-0.145,-0.145
4898,-0.140,-0.145
4899,-0.135,-0.150
4900,-0.135,-0.160
4901,-0.135,-0.165
4902,-0.135,-0.160
4903,-0.135,-0.155
4904,-0.135,-0.150
4905,-0.135,-0.145
4906,-0.130,-0.145
4907,-0.125,-0.150
4908,-0.130,-0.160
4909,-0.135,-0.165
4910,-0.130,-0.165
4911,-0.130,-0.165
4912,-0.140,-0.160
4913,-0.140,-0.155
4914,-0.130,-0.155
4915,-0.125,-0.155
4916,-0.130,-0.160
4917,-0.135,-0.160
4918,-0.135,-0.155
4919,-0.135,-0.150
4920,-0.135,-0.145
4921,-0.130,-0.140
4922,-0.125,-0.135
4923,-0.120,-0.135
4924,-0.115,-0.135
4925,-0.085,-0.115
4926,-0.065,-0.095
4927,-0.075,-0.095
4928,-0.085,-0.095
4929,-0.075,-0.080
4930,-0.055,-0.065
4931,-0.020,-0.075
4932,0.005,-0.085
4933,0.010,-0.085
4934,0.025,-0.080
4935,0.050,-0.065
4936,0.050,-0.065
4937,0.010,-0.095
4938,-0.025,-0.120
4939,-0.045,-0.135
4940,-0.050,-0.145
4941,-0.040,-0.140
4942,-0.040,-0.135
4943,-0.055,-0.140
4944,-0.080,-0.150
4945,-0.115,-0.160
4946,-0.125,-0.165
4947,-0.125,-0.165
4948,-0.130,-0.165
4949,-0.140,-0.170
4950,-0.145,-0.175
4951,-0.150,-0.175
4952,-0.155,-0.170
4953,-0.160,-0.160
4954,-0.165,-0.155
4955,-0.160,-0.160
4956,-0.145,-0.160
4957,-0.130,-0.150
4958,-0.140,-0.115
4959,-0.165,-0.075
4960,-0.170,-0.015
4961,-0.165,0.050
4962,0.065,0.135
4963,0.310,0.245
4964,0.640,0.555
4965,1.005,0.795
4966,1.550,0.645
4967,2.010,0.420
4968,2.145,-0.095
4969,2.005,-0.545
4970,1.030,-0.790
4971,0.190,-0.965
4972,-0.330,-0.955
4973,-0.685,-0.880
4974,-0.720,-0.695
4975,-0.710,-0.535
4976,-0.610,-0.435
4977,-0.525,-0.345
4978,-0.455,-0.265
4979,-0.390,-0.210
4980,-0.335,-0.175
4981,-0.290,-0.140
4982,-0.255,-0.105
4983,-0.230,-0.085
4984,-0.220,-0.085
4985,-0.215,-0.085
4986,-0.215,-0.090
4987,-0.215,-0.090
4988,-0.210,-0.080
4989,-0.205,-0.070
4990,-0.205,-0.060
4991,-0.205,-0.055
4992,-0.200,-0.055
4993,-0.195,-0.055
4994,-0.190,-0.060
4995,-0.185,-0.065
4996,-0.185,-0.060
4997,-0.175,-0.055
4998,-0.160,-0.050
4999,-0.160,-0.040
5000,-0.155,-0.045
5001,-0.175,-0.030
5002,-0.175,-0.035
5003,-0.175,-0.030
5004,-0.175,-0.025
5005,-0.175,-0.015
5006,-0.175,-0.005
5007,-0.170,0.000
5008,-0.165,0.005
5009,-0.160,0.005
5010,-0.155,0.005
5011,-0.145,0.015
5012,-0.135,0.025
5013,-0.130,0.035
5014,-0.125,0.045
5015,-0.120,0.050
5016,-0.115,0.055
5017,-0.110,0.060
5018,-0.105,0.070
5019,-0.095,0.085
5020,-0.085,0.095
5021,-0.080,0.110
5022,-0.070,0.120
5023,-0.055,0.130
5024,-0.040,0.135
5025,-0.030,0.135
5026,-0.020,0.135
5027,-0.005,0.140
5028,0.015,0.150
5029,0.035,0.160
5030,0.045,0.165
5031,0.050,0.165
5032,0.060,0.165
5033,0.070,0.165
5034,0.085,0.165
5035,0.100,0.170
5036,0.105,0.175
5037,0.105,0.180
5038,0.110,0.180
5039,0.120,0.170
5040,0.125,0.150
5041,0.120,0.130
5042,0.110,0.120
5043,0.105,0.115
5044,0.095,0.100
5045,0.085,0.085
5046,0.050,0.060
5047,0.015,0.035
5048,-0.005,0.010
5049,-0.025,-0.015
5050,-0.055,-0.035
5051,-0.075,-0.055
5052,-0.095,-0.065
5053,-0.115,-0.075
5054,-0.130,-0.085
5055,-0.145,-0.095
5056,-0.150,-0.100
5057,-0.155,-0.105
5058,-0.160,-0.110
5059,-0.165,-0.115
5060,-0.155,-0.110
5061,-0.150,-0.105
5062,-0.165,-0.110
5063,-0.175,-0.115
5064,-0.175,-0.115
5065,-0.175,-0.115
5066,-0.175,-0.120
5067,-0.180,-0.125
5068,-0.190,-0.120
5069,-0.195,-0.115
5070,-0.190,-0.110
5071,-0.185,-0.105
5072,-0.185,-0.110
5073,-0.185,-0.115
5074,-0.185,-0.110
5075,-0.185,-0.105
5076,-0.185,-0.110
5077,-0.185,-0.110
5078,-0.180,-0.100
5079,-0.175,-0.095
5080,-0.175,-0.095
5081,-0.175,-0.095
5082,-0.175,-0.100
5083,-0.175,-0.105
5084,-0.175,-0.095
5085,-0.175,-0.095
5086,-0.175,-0.095
5087,-0.175,-0.095
5088,-0.175,-0.095
5089,-0.165,-0.100
5090,-0.155,-0.105
5091,-0.150,-0.105
5092,-0.145,-0.105
5093,-0.150,-0.105
5094,-0.155,-0.105
5095,-0.160,-0.115
5096,-0.165,-0.125
5097,-0.160,-0.125
5098,-0.155,-0.125
5099,-0.160,-0.125
5100,-0.165,-0.125
5101,-0.165,-0.125
5102,-0.165,-0.125
5103,-0.170,-0.130
5104,-0.175,-0.135
5105,-0.175,-0.140
5106,-0.170,-0.145
5107,-0.155,-0.140
5108,-0.150,-0.135
5109,-0.160,-0.140
5110,-0.165,-0.145
5111,-0.170,-0.150
5112,-0.175,-0.155
5113,-0.175,-0.155
5114,-0.175,-0.155
5115,-0.180,-0.150
5116,-0.185,-0.145
5117,-0.185,-0.145
5118,-0.185,-0.145
5119,-0.185,-0.150
5120,-0.185,-0.155
5121,-0.180,-0.150
5122,-0.170,-0.145
5123,-0.160,-0.145
5124,-0.165,-0.145
5125,-0.155,-0.145
5126,-0.185,-0.145
5127,-0.185,-0.145
5128,-0.180,-0.145
5129,-0.175,-0.145
5130,-0.175,-0.145
5131,-0.175,-0.145
5132,-0.175,-0.145
5133,-0.175,-0.145
5134,-0.175,-0.150
5135,-0.175,-0.155
5136,-0.170,-0.150
5137,-0.165,-0.145
5138,-0.165,-0.145
5139,-0.165,-0.145
5140,-0.170,-0.140
5141,-0.175,-0.135
5142,-0.180,-0.140
5143,-0.185,-0.145
5144,-0.180,-0.145
5145,-0.175,-0.145
5146,-0.180,-0.140
5147,-0.180,-0.135
5148,-0.170,-0.140
5149,-0.165,-0.145
5150,-0.170,-0.145
5151,-0.175,-0.145
5152,-0.170,-0.145
5153,-0.165,-0.145
5154,-0.165,-0.140
5155,-0.165,-0.135
5156,-0.165,-0.130
5157,-0.165,-0.130
5158,-0.170,-0.140
5159,-0.165,-0.145
5160,-0.150,-0.145
5161,-0.155,-0.140
5162,-0.170,-0.130
5163,-0.170,-0.125
5164,-0.160,-0.125
5165,-0.155,-0.125
5166,-0.155,-0.125
5167,-0.135,-0.105
5168,-0.115,-0.085
5169,-0.110,-0.080
5170,-0.105,-0.075
5171,-0.100,-0.070
5172,-0.095,-0.065
5173,-0.070,-0.060
5174,-0.045,-0.055
5175,-0.030,-0.060
5176,-0.015,-0.065
5177,0.000,-0.050
5178,0.010,-0.040
5179,-0.020,-0.065
5180,-0.050,-0.085
5181,-0.070,-0.105
5182,-0.085,-0.115
5183,-0.085,-0.115
5184,-0.085,-0.115
5185,-0.085,-0.120
5186,-0.095,-0.125
5187,-0.125,-0.135
5188,-0.140,-0.145
5189,-0.130,-0.140
5190,-0.135,-0.140
5191,-0.155,-0.150
5192,-0.170,-0.155
5193,-0.180,-0.150
5194,-0.185,-0.140
5195,-0.180,-0.130
5196,-0.175,-0.125
5197,-0.175,-0.130
5198,-0.160,-0.125
5199,-0.140,-0.110
5200,-0.155,-0.075
5201,-0.185,-0.035
5202,-0.180,0.030
5203,-0.160,0.095
5204,0.055,0.190
5205,0.295,0.295
5206,0.600,0.560
5207,0.915,0.845
5208,1.390,0.760
5209,1.865,0.650
5210,2.160,0.215
5211,2.385,-0.210
5212,1.520,-0.515
5213,0.680,-0.790
5214,0.055,-0.880
5215,-0.495,-0.930
5216,-0.645,-0.770
5217,-0.755,-0.615
5218,-0.680,-0.510
5219,-0.610,-0.405
5220,-0.545,-0.325
5221,-0.475,-0.250
5222,-0.400,-0.190
5223,-0.340,-0.135
5224,-0.315,-0.105
5225,-0.285,-0.080
5226,-0.255,-0.065
5227,-0.235,-0.055
5228,-0.240,-0.060
5229,-0.245,-0.065
5230,-0.230,-0.060
5231,-0.220,-0.050
5232,-0.205,-0.040
5233,-0.200,-0.035
5234,-0.210,-0.035
5235,-0.215,-0.035
5236,-0.215,-0.035
5237,-0.215,-0.035
5238,-0.210,-0.035
5239,-0.205,-0.030
5240,-0.205,-0.020
5241,-0.205,-0.015
5242,-0.200,-0.015
5243,-0.195,-0.015
5244,-0.195,-0.015
5245,-0.195,-0.015
5246,-0.190,-0.010
5247,-0.180,0.000
5248,-0.170,0.010
5249,-0.165,0.015
5250,-0.165,0.015
5251,-0.175,0.020
5252,-0.175,0.015
5253,-0.165,0.025
5254,-0.155,0.035
5255,-0.155,0.045
5256,-0.155,0.055
5257,-0.145,0.060
5258,-0.135,0.065
5259,-0.130,0.065
5260,-0.125,0.065
5261,-0.115,0.080
5262,-0.105,0.095
5263,-0.095,0.105
5264,-0.085,0.115
5265,-0.075,0.125
5266,-0.065,0.135
5267,-0.060,0.130
5268,-0.050,0.125
5269,-0.035,0.135
5270,-0.025,0.145
5271,-0.010,0.150
5272,0.005,0.155
5273,0.025,0.160
5274,0.035,0.160
5275,0.040,0.150
5276,0.050,0.150
5277,0.060,0.160
5278,0.065,0.165
5279,0.070,0.165
5280,0.080,0.165
5281,0.090,0.160
5282,0.090,0.145
5283,0.080,0.130
5284,0.075,0.120
5285,0.070,0.110
5286,0.045,0.095
5287,0.020,0.080
5288,0.015,0.055
5289,0.010,0.030
5290,-0.015,0.015
5291,-0.040,0.000
5292,-0.060,-0.020
5293,-0.075,-0.035
5294,-0.080,-0.045
5295,-0.085,-0.055
5296,-0.105,-0.060
5297,-0.125,-0.065
5298,-0.135,-0.080
5299,-0.145,-0.095
5300,-0.150,-0.100
5301,-0.155,-0.105
5302,-0.160,-0.095
5303,-0.165,-0.085
5304,-0.165,-0.090
5305,-0.165,-0.095
5306,-0.165,-0.100
5307,-0.165,-0.105
5308,-0.165,-0.100
5309,-0.165,-0.095
5310,-0.160,-0.085
5311,-0.155,-0.075
5312,-0.160,-0.075
5313,-0.165,-0.075
5314,-0.165,-0.080
5315,-0.165,-0.085
5316,-0.165,-0.085
5317,-0.165,-0.085
5318,-0.170,-0.080
5319,-0.170,-0.075
5320,-0.150,-0.075
5321,-0.145,-0.075
5322,-0.145,-0.080
5323,-0.145,-0.085
5324,-0.145,-0.080
5325,-0.135,-0.075
5326,-0.120,-0.075
5327,-0.120,-0.075
5328,-0.130,-0.075
5329,-0.135,-0.080
5330,-0.135,-0.090
5331,-0.130,-0.095
5332,-0.120,-0.095
5333,-0.120,-0.095
5334,-0.135,-0.095
5335,-0.125,-0.095
5336,-0.115,-0.095
5337,-0.125,-0.100
5338,-0.135,-0.105
5339,-0.130,-0.110
5340,-0.125,-0.115
5341,-0.125,-0.110
5342,-0.125,-0.105
5343,-0.120,-0.105
5344,-0.115,-0.105
5345,-0.125,-0.115
5346,-0.135,-0.125
5347,-0.130,-0.125
5348,-0.130,-0.125
5349,-0.145,-0.125
5350,-0.155,-0.125
5351,-0.145,-0.125
5352,-0.135,-0.125
5353,-0.135,-0.135
5354,-0.135,-0.145
5355,-0.135,-0.145
5356,-0.135,-0.145
5357,-0.130,-0.140
5358,-0.125,-0.135
5359,-0.125,-0.130
5360,-0.130,-0.130
5361,-0.140,-0.140
5362,-0.140,-0.145
5363,-0.130,-0.145
5364,-0.130,-0.140
5365,-0.140,-0.130
5366,-0.145,-0.125
5367,-0.150,-0.130
5368,-0.155,-0.135
5369,-0.150,-0.140
5370,-0.140,-0.145
5371,-0.130,-0.140
5372,-0.125,-0.135
5373,-0.120,-0.130
5374,-0.120,-0.125
5375,-0.115,-0.125
5376,-0.135,-0.140
5377,-0.135,-0.145
5378,-0.135,-0.140
5379,-0.135,-0.135
5380,-0.140,-0.130
5381,-0.145,-0.125
5382,-0.135,-0.125
5383,-0.125,-0.125
5384,-0.130,-0.130
5385,-0.135,-0.135
5386,-0.135,-0.135
5387,-0.135,-0.135
5388,-0.130,-0.130
5389,-0.125,-0.125
5390,-0.130,-0.125
5391,-0.135,-0.125
5392,-0.125,-0.120
5393,-0.110,-0.110
5394,-0.090,-0.095
5395,-0.075,-0.085
5396,-0.090,-0.080
5397,-0.090,-0.075
5398,-0.075,-0.070
5399,-0.060,-0.065
5400,-0.050,-0.065
5401,-0.030,-0.065
5402,0.000,-0.060
5403,0.025,-0.050
5404,0.045,-0.040
5405,0.050,-0.045
5406,0.040,-0.060
5407,0.005,-0.085
5408,-0.035,-0.115
5409,-0.045,-0.125
5410,-0.040,-0.120
5411,-0.040,-0.115
5412,-0.050,-0.120
5413,-0.070,-0.125
5414,-0.090,-0.130
5415,-0.100,-0.135
5416,-0.110,-0.135
5417,-0.115,-0.140
5418,-0.115,-0.145
5419,-0.120,-0.145
5420,-0.125,-0.145
5421,-0.125,-0.140
5422,-0.125,-0.135
5423,-0.130,-0.135
5424,-0.135,-0.135
5425,-0.125,-0.125
5426,-0.115,-0.110
5427,-0.120,-0.080
5428,-0.130,-0.040
5429,-0.170,0.025
5430,-0.120,0.100
5431,0.125,0.180
5432,0.415,0.345
5433,0.775,0.650
5434,1.210,0.790
5435,1.740,0.680
5436,2.130,0.405
5437,2.350,-0.060
5438,1.985,-0.425
5439,1.015,-0.690
5440,0.245,-0.840
5441,-0.355,-0.890
5442,-0.650,-0.815
5443,-0.725,-0.640
5444,-0.705,-0.515
5445,-0.625,-0.420
5446,-0.525,-0.330
5447,-0.425,-0.240
5448,-0.360,-0.180
5449,-0.310,-0.130
5450,-0.260,-0.095
5451,-0.215,-0.070
5452,-0.195,-0.060
5453,-0.180,-0.050
5454,-0.175,-0.045
5455,-0.180,-0.050
5456,-0.175,-0.055
5457,-0.160,-0.050
5458,-0.165,-0.045
5459,-0.185,-0.035
5460,-0.170,-0.030
5461,-0.155,-0.025
5462,-0.160,-0.030
5463,-0.165,-0.035
5464,-0.150,-0.030
5465,-0.135,-0.025
5466,-0.130,-0.015
5467,-0.125,-0.005
5468,-0.125,-0.005
5469,-0.125,-0.005
5470,-0.135,-0.010
5471,-0.145,-0.015
5472,-0.135,-0.010
5473,-0.125,-0.005
5474,-0.125,0.005
5475,-0.125,0.015
5476,-0.125,0.020
5477,-0.125,0.025
5478,-0.120,0.020
5479,-0.115,0.015
5480,-0.115,0.020
5481,-0.105,0.030
5482,-0.085,0.045
5483,-0.075,0.055
5484,-0.080,0.060
5485,-0.085,0.065
5486,-0.085,0.065
5487,-0.075,0.070
5488,-0.060,0.080
5489,-0.055,0.095
5490,-0.055,0.110
5491,-0.045,0.115
5492,-0.030,0.120
5493,-0.020,0.125
5494,-0.010,0.125
5495,0.005,0.130
5496,0.020,0.140
5497,0.040,0.145
5498,0.060,0.150
5499,0.065,0.155
5500,0.065,0.155
5501,0.075,0.155
5502,0.085,0.145
5503,0.095,0.150
5504,0.105,0.155
5505,0.105,0.155
5506,0.105,0.155
5507,0.115,0.150
5508,0.125,0.145
5509,0.120,0.125
5510,0.115,0.105
5511,0.120,0.095
5512,0.125,0.085
5513,0.115,0.075
5514,0.100,0.060
5515,0.075,0.040
5516,0.050,0.020
5517,0.020,-0.010
5518,0.005,-0.030
5519,-0.005,-0.045
5520,-0.025,-0.055
5521,-0.050,-0.070
5522,-0.065,-0.075
5523,-0.070,-0.080
5524,-0.080,-0.090
5525,-0.095,-0.105
5526,-0.105,-0.115
5527,-0.100,-0.115
5528,-0.095,-0.115
5529,-0.095,-0.115
5530,-0.095,-0.115
5531,-0.100,-0.110
5532,-0.110,-0.105
5533,-0.120,-0.110
5534,-0.125,-0.115
5535,-0.125,-0.120
5536,-0.125,-0.120
5537,-0.125,-0.110
5538,-0.125,-0.105
5539,-0.125,-0.105
5540,-0.125,-0.105
5541,-0.125,-0.110
5542,-0.125,-0.110
5543,-0.125,-0.105
5544,-0.105,-0.100
5545,-0.085,-0.095
5546,-0.095,-0.095
5547,-0.105,-0.095
5548,-0.105,-0.095
5549,-0.105,-0.095
5550,-0.100,-0.095
5551,-0.095,-0.095
5552,-0.095,-0.090
5553,-0.095,-0.085
5554,-0.090,-0.090
5555,-0.085,-0.095
5556,-0.080,-0.100
5557,-0.075,-0.105
5558,-0.075,-0.105
5559,-0.075,-0.105
5560,-0.065,-0.100
5561,-0.055,-0.095
5562,-0.060,-0.100
5563,-0.070,-0.110
5564,-0.080,-0.120
5565,-0.085,-0.125
5566,-0.080,-0.125
5567,-0.075,-0.125
5568,-0.075,-0.125
5569,-0.075,-0.125
5570,-0.075,-0.130
5571,-0.080,-0.140
5572,-0.090,-0.150
5573,-0.095,-0.155
5574,-0.090,-0.150
5575,-0.085,-0.145
5576,-0.080,-0.145
5577,-0.075,-0.145
5578,-0.075,-0.145
5579,-0.080,-0.150
5580,-0.090,-0.160
5581,-0.090,-0.165
5582,-0.080,-0.160
5583,-0.085,-0.155
5584,-0.105,-0.155
5585,-0.095,-0.150
5586,-0.085,-0.145
5587,-0.090,-0.155
5588,-0.095,-0.165
5589,-0.085,-0.165
5590,-0.075,-0.165
5591,-0.075,-0.155
5592,-0.075,-0.145
5593,-0.075,-0.145
5594,-0.075,-0.145
5595,-0.085,-0.150
5596,-0.095,-0.155
5597,-0.090,-0.160
5598,-0.085,-0.165
5599,-0.090,-0.160
5600,-0.095,-0.155
5601,-0.090,-0.150
5602,-0.085,-0.145
5603,-0.085,-0.155
5604,-0.085,-0.165
5605,-0.080,-0.160
5606,-0.075,-0.155
5607,-0.070,-0.150
5608,-0.070,-0.145
5609,-0.080,-0.145
5610,-0.085,-0.150
5611,-0.085,-0.160
5612,-0.085,-0.160
5613,-0.085,-0.150
5614,-0.080,-0.135
5615,-0.070,-0.120
5616,-0.050,-0.110
5617,-0.030,-0.100
5618,-0.025,-0.095
5619,-0.020,-0.100
5620,-0.010,-0.100
5621,0.000,-0.090
5622,0.035,-0.085
5623,0.070,-0.080
5624,0.075,-0.075
5625,0.075,-0.075
5626,0.085,-0.080
5627,0.085,-0.085
5628,0.055,-0.110
5629,0.025,-0.135
5630,0.005,-0.135
5631,-0.015,-0.135
5632,-0.005,-0.140
5633,0.005,-0.145
5634,-0.015,-0.160
5635,-0.035,-0.175
5636,-0.060,-0.175
5637,-0.075,-0.175
5638,-0.060,-0.165
5639,-0.050,-0.160
5640,-0.070,-0.175
5641,-0.090,-0.185
5642,-0.105,-0.185
5643,-0.110,-0.185
5644,-0.095,-0.175
5645,-0.085,-0.165
5646,-0.090,-0.150
5647,-0.085,-0.135
5648,-0.065,-0.115
5649,-0.085,-0.075
5650,-0.150,-0.020
5651,-0.060,0.035
5652,0.125,0.085
5653,0.395,0.300
5654,0.700,0.605
5655,1.090,0.665
5656,1.515,0.620
5657,1.980,0.275
5658,2.455,-0.170
5659,2.020,-0.515
5660,1.345,-0.835
5661,0.585,-0.935
5662,-0.190,-0.995
5663,-0.465,-0.865
5664,-0.680,-0.705
5665,-0.635,-0.580
5666,-0.570,-0.460
5667,-0.480,-0.360
5668,-0.395,-0.265
5669,-0.330,-0.215
5670,-0.265,-0.165
5671,-0.230,-0.135
5672,-0.195,-0.105
5673,-0.175,-0.100
5674,-0.155,-0.095
5675,-0.155,-0.095
5676,-0.155,-0.095
5677,-0.155,-0.085
5678,-0.155,-0.075
5679,-0.150,-0.070
5680,-0.145,-0.065
5681,-0.145,-0.070
5682,-0.145,-0.075
5683,-0.145,-0.070
5684,-0.140,-0.065
5685,-0.125,-0.060
5686,-0.115,-0.055
5687,-0.125,-0.050
5688,-0.135,-0.045
5689,-0.130,-0.045
5690,-0.125,-0.040
5691,-0.120,-0.030
5692,-0.115,-0.025
5693,-0.120,-0.020
5694,-0.125,-0.015
5695,-0.120,-0.010
5696,-0.115,-0.005
5697,-0.110,-0.005
5698,-0.105,-0.005
5699,-0.105,0.000
5700,-0.100,0.010
5701,-0.090,0.020
5702,-0.085,0.030
5703,-0.085,0.040
5704,-0.085,0.045
5705,-0.080,0.045
5706,-0.070,0.050
5707,-0.060,0.060
5708,-0.055,0.075
5709,-0.065,0.095
5710,-0.050,0.105
5711,-0.035,0.115
5712,-0.030,0.115
5713,-0.025,0.115
5714,-0.005,0.130
5715,0.015,0.145
5716,0.030,0.155
5717,0.045,0.165
5718,0.060,0.170
5719,0.075,0.175
5720,0.085,0.175
5721,0.100,0.175
5722,0.120,0.180
5723,0.135,0.185
5724,0.130,0.190
5725,0.130,0.195
5726,0.145,0.195
5727,0.155,0.190
5728,0.155,0.175
5729,0.155,0.160
5730,0.160,0.145
5731,0.165,0.130
5732,0.160,0.120
5733,0.145,0.100
5734,0.125,0.070
5735,0.100,0.040
5736,0.070,0.010
5737,0.045,-0.015
5738,0.025,-0.030
5739,-0.005,-0.045
5740,-0.035,-0.070
5741,-0.055,-0.085
5742,-0.070,-0.100
5743,-0.085,-0.115
5744,-0.100,-0.130
5745,-0.110,-0.135
5746,-0.120,-0.135
5747,-0.125,-0.135
5748,-0.125,-0.135
5749,-0.130,-0.135
5750,-0.125,-0.135
5751,-0.150,-0.150
5752,-0.155,-0.165
5753,-0.155,-0.155
5754,-0.155,-0.145
5755,-0.160,-0.140
5756,-0.165,-0.135
5757,-0.160,-0.135
5758,-0.155,-0.135
5759,-0.155,-0.140
5760,-0.155,-0.145
5761,-0.155,-0.140
5762,-0.155,-0.135
5763,-0.155,-0.130
5764,-0.155,-0.125
5765,-0.150,-0.125
5766,-0.145,-0.125
5767,-0.155,-0.130
5768,-0.165,-0.135
5769,-0.155,-0.130
5770,-0.145,-0.125
5771,-0.150,-0.120
5772,-0.150,-0.115
5773,-0.140,-0.115
5774,-0.135,-0.115
5775,-0.140,-0.120
5776,-0.140,-0.125
5777,-0.130,-0.125
5778,-0.120,-0.125
5779,-0.110,-0.120
5780,-0.105,-0.115
5781,-0.110,-0.120
5782,-0.120,-0.125
5783,-0.130,-0.130
5784,-0.130,-0.135
5785,-0.120,-0.135
5786,-0.120,-0.135
5787,-0.130,-0.130
5788,-0.135,-0.125
5789,-0.130,-0.130
5790,-0.125,-0.140
5791,-0.130,-0.150
5792,-0.135,-0.155
5793,-0.135,-0.155
5794,-0.125,-0.150
5795,-0.115,-0.145
5796,-0.120,-0.150
5797,-0.125,-0.155
5798,-0.135,-0.160
5799,-0.145,-0.165
5800,-0.140,-0.165
5801,-0.135,-0.165
5802,-0.145,-0.160
5803,-0.155,-0.155
5804,-0.150,-0.160
5805,-0.145,-0.165
5806,-0.145,-0.165
5807,-0.145,-0.165
5808,-0.145,-0.170
5809,-0.145,-0.175
5810,-0.140,-0.170
5811,-0.135,-0.165
5812,-0.140,-0.165
5813,-0.145,-0.165
5814,-0.145,-0.170
5815,-0.145,-0.175
5816,-0.140,-0.170
5817,-0.135,-0.165
5818,-0.140,-0.160
5819,-0.145,-0.155
5820,-0.140,-0.155
5821,-0.135,-0.160
5822,-0.140,-0.170
5823,-0.145,-0.175
5824,-0.140,-0.170
5825,-0.135,-0.165
5826,-0.130,-0.160
5827,-0.125,-0.155
5828,-0.130,-0.155
5829,-0.135,-0.160
5830,-0.140,-0.170
5831,-0.140,-0.175
5832,-0.130,-0.170
5833,-0.130,-0.165
5834,-0.145,-0.155
5835,-0.135,-0.155
5836,-0.125,-0.155
5837,-0.135,-0.160
5838,-0.145,-0.165
5839,-0.140,-0.165
5840,-0.135,-0.165
5841,-0.125,-0.155
5842,-0.115,-0.145
5843,-0.120,-0.150
5844,-0.125,-0.155
5845,-0.130,-0.160
5846,-0.135,-0.165
5847,-0.125,-0.165
5848,-0.115,-0.165
5849,-0.125,-0.155
5850,-0.135,-0.145
5851,-0.125,-0.150
5852,-0.115,-0.155
5853,-0.120,-0.155
5854,-0.125,-0.155
5855,-0.120,-0.155
5856,-0.115,-0.155
5857,-0.110,-0.150
5858,-0.105,-0.145
5859,-0.105,-0.140
5860,-0.100,-0.130
5861,-0.085,-0.120
5862,-0.065,-0.110
5863,-0.050,-0.100
5864,-0.050,-0.095
5865,-0.060,-0.090
5866,-0.050,-0.085
5867,-0.020,-0.080
5868,0.005,-0.075
5869,0.030,-0.075
5870,0.045,-0.075
5871,0.060,-0.070
5872,0.065,-0.065
5873,0.065,-0.070
5874,0.030,-0.095
5875,0.065,-0.075
5876,-0.025,-0.130
5877,-0.035,-0.135
5878,-0.030,-0.140
5879,-0.025,-0.145
5880,-0.050,-0.150
5881,-0.075,-0.155
5882,-0.095,-0.155
5883,-0.115,-0.155
5884,-0.105,-0.155
5885,-0.100,-0.155
5886,-0.125,-0.165
5887,-0.145,-0.175
5888,-0.135,-0.165
5889,-0.125,-0.155
5890,-0.125,-0.145
5891,-0.125,-0.135
5892,-0.115,-0.135
5893,-0.110,-0.120
5894,-0.130,-0.080
5895,-0.145,-0.025
5896,-0.145,0.040
5897,-0.020,0.130
5898,0.235,0.245
5899,0.525,0.445
5900,0.845,0.715
5901,1.270,0.735
5902,1.765,0.580
5903,2.105,0.225
5904,2.375,-0.235
5905,1.815,-0.565
5906,0.895,-0.845
5907,0.200,-0.930
5908,-0.425,-0.955
5909,-0.620,-0.820
5910,-0.700,-0.635
5911,-0.660,-0.520
5912,-0.595,-0.420
5913,-0.500,-0.325
5914,-0.405,-0.235
5915,-0.355,-0.195
5916,-0.310,-0.160
5917,-0.265,-0.125
5918,-0.225,-0.095
5919,-0.205,-0.080
5920,-0.185,-0.065
5921,-0.185,-0.065
5922,-0.185,-0.065
5923,-0.185,-0.065
5924,-0.185,-0.065
5925,-0.180,-0.060
5926,-0.175,-0.055
5927,-0.180,-0.045
5928,-0.185,-0.035
5929,-0.175,-0.040
5930,-0.165,-0.045
5931,-0.170,-0.045
5932,-0.175,-0.045
5933,-0.170,-0.040
5934,-0.165,-0.035
5935,-0.160,-0.025
5936,-0.155,-0.015
5937,-0.155,-0.010
5938,-0.155,-0.005
5939,-0.155,-0.010
5940,-0.155,-0.010
5941,-0.150,0.000
5942,-0.145,0.005
5943,-0.145,0.010
5944,-0.145,0.015
5945,-0.140,0.020
5946,-0.135,0.025
5947,-0.135,0.025
5948,-0.130,0.030
5949,-0.120,0.040
5950,-0.110,0.050
5951,-0.100,0.060
5952,-0.095,0.070
5953,-0.095,0.080
5954,-0.095,0.085
5955,-0.095,0.090
5956,-0.085,0.095
5957,-0.070,0.100
5958,-0.065,0.120
5959,-0.065,0.145
5960,-0.045,0.150
5961,-0.025,0.155
5962,-0.015,0.160
5963,-0.005,0.165
5964,0.020,0.175
5965,0.045,0.185
5966,0.060,0.195
5967,0.075,0.205
5968,0.080,0.200
5969,0.085,0.195
5970,0.090,0.200
5971,0.095,0.205
5972,0.110,0.195
5973,0.125,0.185
5974,0.125,0.190
5975,0.125,0.195
5976,0.135,0.185
5977,0.140,0.165
5978,0.125,0.140
5979,0.115,0.120
5980,0.100,0.095
5981,0.090,0.080
5982,0.075,0.065
5983,0.050,0.045
5984,0.020,0.015
5985,-0.005,-0.010
5986,-0.025,-0.035
5987,-0.045,-0.050
5988,-0.065,-0.060
5989,-0.085,-0.070
5990,-0.110,-0.080
5991,-0.115,-0.085
5992,-0.120,-0.090
5993,-0.125,-0.100
5994,-0.130,-0.110
5995,-0.135,-0.115
5996,-0.140,-0.115
5997,-0.140,-0.115
5998,-0.130,-0.110
5999,-0.135,-0.105
6000,-0.125,-0.105
6001,-0.160,-0.120
6002,-0.165,-0.125
6003,-0.160,-0.120
6004,-0.155,-0.115
6005,-0.165,-0.115
6006,-0.175,-0.115
6007,-0.165,-0.110
6008,-0.155,-0.105
6009,-0.160,-0.110
6010,-0.165,-0.115
6011,-0.160,-0.110
6012,-0.155,-0.105
6013,-0.155,-0.100
6014,-0.155,-0.095
6015,-0.155,-0.095
6016,-0.155,-0.095
6017,-0.160,-0.100
6018,-0.165,-0.105
6019,-0.155,-0.105
6020,-0.145,-0.105
6021,-0.160,-0.100
6022,-0.160,-0.095
6023,-0.145,-0.095
6024,-0.135,-0.095
6025,-0.140,-0.100
6026,-0.140,-0.105
6027,-0.130,-0.105
6028,-0.125,-0.105
6029,-0.120,-0.105
6030,-0.120,-0.105
6031,-0.130,-0.110
6032,-0.135,-0.115
6033,-0.140,-0.120
6034,-0.140,-0.125
6035,-0.130,-0.125
6036,-0.135,-0.125
6037,-0.150,-0.125
6038,-0.150,-0.125
6039,-0.140,-0.130
6040,-0.135,-0.135
6041,-0.140,-0.135
6042,-0.145,-0.140
6043,-0.145,-0.145
6044,-0.135,-0.140
6045,-0.125,-0.135
6046,-0.140,-0.135
6047,-0.155,-0.135
6048,-0.150,-0.145
6049,-0.145,-0.155
6050,-0.150,-0.150
6051,-0.155,-0.145
6052,-0.155,-0.145
6053,-0.155,-0.145
6054,-0.155,-0.145
6055,-0.155,-0.145
6056,-0.160,-0.150
6057,-0.165,-0.155
6058,-0.155,-0.155
6059,-0.145,-0.155
6060,-0.135,-0.145
6061,-0.125,-0.135
6062,-0.135,-0.135
6063,-0.145,-0.140
6064,-0.150,-0.150
6065,-0.155,-0.155
6066,-0.150,-0.150
6067,-0.145,-0.145
6068,-0.145,-0.140
6069,-0.145,-0.135
6070,-0.150,-0.135
6071,-0.150,-0.140
6072,-0.140,-0.150
6073,-0.135,-0.155
6074,-0.140,-0.150
6075,-0.145,-0.140
6076,-0.140,-0.130
6077,-0.135,-0.125
6078,-0.140,-0.130
6079,-0.145,-0.140
6080,-0.145,-0.150
6081,-0.145,-0.150
6082,-0.140,-0.140
6083,-0.135,-0.135
6084,-0.145,-0.135
6085,-0.140,-0.135
6086,-0.135,-0.135
6087,-0.135,-0.140
6088,-0.135,-0.145
6089,-0.135,-0.145
6090,-0.135,-0.145
6091,-0.130,-0.135
6092,-0.125,-0.125
6093,-0.130,-0.130
6094,-0.135,-0.135
6095,-0.135,-0.140
6096,-0.135,-0.145
6097,-0.125,-0.140
6098,-0.120,-0.135
6099,-0.135,-0.130
6100,-0.145,-0.125
6101,-0.135,-0.125
6102,-0.125,-0.125
6103,-0.125,-0.125
6104,-0.120,-0.120
6105,-0.105,-0.105
6106,-0.090,-0.090
6107,-0.075,-0.075
6108,-0.065,-0.065
6109,-0.065,-0.070
6110,-0.065,-0.075
6111,-0.065,-0.070
6112,-0.040,-0.065
6113,0.000,-0.060
6114,0.015,-0.050
6115,0.020,-0.040
6116,0.035,-0.035
6117,0.050,-0.035
6118,0.035,-0.060
6119,0.000,-0.095
6120,-0.020,-0.105
6121,-0.040,-0.105
6122,-0.030,-0.105
6123,-0.010,-0.100
6124,-0.035,-0.105
6125,-0.005,-0.095
6126,-0.090,-0.130
6127,-0.105,-0.135
6128,-0.095,-0.125
6129,-0.085,-0.115
6130,-0.105,-0.125
6131,-0.125,-0.135
6132,-0.130,-0.135
6133,-0.135,-0.135
6134,-0.135,-0.130
6135,-0.135,-0.125
6136,-0.130,-0.115
6137,-0.125,-0.100
6138,-0.110,-0.080
6139,-0.115,-0.045
6140,-0.180,0.015
6141,-0.155,0.070
6142,0.035,0.125
6143,0.260,0.255
6144,0.545,0.495
6145,0.850,0.690
6146,1.180,0.835
6147,1.605,0.755
6148,2.120,0.465
6149,2.180,0.085
6150,1.875,-0.365
6151,1.235,-0.650
6152,0.375,-0.830
6153,-0.180,-0.885
6154,-0.575,-0.870
6155,-0.695,-0.740
6156,-0.690,-0.560
6157,-0.640,-0.470
6158,-0.570,-0.400
6159,-0.490,-0.320
6160,-0.410,-0.230
6161,-0.360,-0.180
6162,-0.315,-0.135
6163,-0.270,-0.100
6164,-0.230,-0.070
6165,-0.220,-0.065
6166,-0.210,-0.060
6167,-0.195,-0.055
6168,-0.185,-0.055
6169,-0.175,-0.050
6170,-0.165,-0.045
6171,-0.170,-0.040
6172,-0.175,-0.035
6173,-0.170,-0.035
6174,-0.165,-0.035
6175,-0.165,-0.030
6176,-0.165,-0.025
6177,-0.170,-0.020
6178,-0.175,-0.015
6179,-0.165,-0.010
6180,-0.155,-0.005
6181,-0.150,-0.005
6182,-0.145,-0.005
6183,-0.140,-0.005
6184,-0.135,-0.005
6185,-0.125,0.000
6186,-0.115,0.005
6187,-0.120,0.015
6188,-0.125,0.025
6189,-0.120,0.025
6190,-0.115,0.025
6191,-0.115,0.025
6192,-0.115,0.030
6193,-0.115,0.040
6194,-0.110,0.045
6195,-0.100,0.045
6196,-0.095,0.050
6197,-0.095,0.060
6198,-0.090,0.065
6199,-0.080,0.065
6200,-0.065,0.080
6201,-0.050,0.100
6202,-0.045,0.105
6203,-0.045,0.110
6204,-0.045,0.115
6205,-0.040,0.120
6206,-0.020,0.130
6207,0.000,0.140
6208,0.005,0.150
6209,0.005,0.165
6210,0.030,0.170
6211,0.055,0.175
6212,0.055,0.170
6213,0.055,0.165
6214,0.070,0.165
6215,0.085,0.165
6216,0.095,0.170
6217,0.105,0.175
6218,0.115,0.170
6219,0.125,0.165
6220,0.110,0.155
6221,0.095,0.145
6222,0.105,0.130
6223,0.105,0.110
6224,0.075,0.095
6225,0.055,0.080
6226,0.060,0.060
6227,0.055,0.035
6228,0.025,0.010
6229,0.005,-0.010
6230,-0.010,-0.025
6231,-0.020,-0.035
6232,-0.035,-0.040
6233,-0.050,-0.050
6234,-0.060,-0.065
6235,-0.070,-0.080
6236,-0.085,-0.090
6237,-0.095,-0.095
6238,-0.100,-0.095
6239,-0.105,-0.095
6240,-0.105,-0.095
6241,-0.105,-0.095
6242,-0.105,-0.095
6243,-0.105,-0.095
6244,-0.110,-0.100
6245,-0.115,-0.105
6246,-0.115,-0.100
6247,-0.115,-0.095
6248,-0.110,-0.090
6249,-0.105,-0.085
6250,-0.105,-0.085
6251,-0.110,-0.090
6252,-0.105,-0.095
6253,-0.100,-0.090
6254,-0.095,-0.085
6255,-0.100,-0.080
6256,-0.105,-0.075
6257,-0.105,-0.075
6258,-0.105,-0.075
6259,-0.100,-0.080
6260,-0.095,-0.085
6261,-0.095,-0.085
6262,-0.095,-0.085
6263,-0.085,-0.075
6264,-0.075,-0.065
6265,-0.075,-0.075
6266,-0.075,-0.085
6267,-0.075,-0.090
6268,-0.075,-0.095
6269,-0.070,-0.095
6270,-0.065,-0.095
6271,-0.080,-0.090
6272,-0.080,-0.085
6273,-0.070,-0.090
6274,-0.065,-0.095
6275,-0.070,-0.100
6276,-0.075,-0.105
6277,-0.075,-0.105
6278,-0.075,-0.105
6279,-0.080,-0.105
6280,-0.085,-0.105
6281,-0.085,-0.110
6282,-0.085,-0.115
6283,-0.090,-0.120
6284,-0.090,-0.125
6285,-0.080,-0.125
6286,-0.075,-0.125
6287,-0.080,-0.120
6288,-0.085,-0.115
6289,-0.080,-0.120
6290,-0.085,-0.125
6291,-0.100,-0.130
6292,-0.095,-0.135
6293,-0.085,-0.135
6294,-0.085,-0.135
6295,-0.085,-0.135
6296,-0.090,-0.130
6297,-0.095,-0.125
6298,-0.100,-0.130
6299,-0.105,-0.135
6300,-0.095,-0.135
6301,-0.085,-0.135
6302,-0.095,-0.130
6303,-0.105,-0.125
6304,-0.095,-0.125
6305,-0.085,-0.125
6306,-0.090,-0.130
6307,-0.095,-0.135
6308,-0.100,-0.135
6309,-0.105,-0.135
6310,-0.095,-0.130
6311,-0.085,-0.125
6312,-0.085,-0.125
6313,-0.085,-0.125
6314,-0.090,-0.130
6315,-0.095,-0.135
6316,-0.090,-0.130
6317,-0.085,-0.125
6318,-0.090,-0.125
6319,-0.095,-0.125
6320,-0.095,-0.125
6321,-0.095,-0.125
6322,-0.090,-0.120
6323,-0.070,-0.110
6324,-0.050,-0.100
6325,-0.045,-0.095
6326,-0.040,-0.090
6327,-0.035,-0.085
6328,-0.030,-0.080
6329,-0.020,-0.075
6330,-0.010,-0.070
6331,0.030,-0.065
6332,0.070,-0.065
6333,0.080,-0.060
6334,0.095,-0.045
6335,0.080,-0.055
6336,0.065,-0.065
6337,0.030,-0.095
6338,-0.005,-0.125
6339,0.010,-0.120
6340,0.025,-0.115
6341,0.015,-0.120
6342,0.000,-0.125
6343,-0.030,-0.135
6344,-0.055,-0.145
6345,-0.070,-0.145
6346,-0.085,-0.145
6347,-0.075,-0.150
6348,-0.070,-0.155
6349,-0.095,-0.155
6350,-0.115,-0.155
6351,-0.105,-0.145
6352,-0.095,-0.135
6353,-0.095,-0.135
6354,-0.090,-0.135
6355,-0.075,-0.130
6356,-0.070,-0.105
6357,-0.085,-0.065
6358,-0.095,-0.005
6359,-0.100,0.065
6360,0.040,0.135
6361,0.275,0.200
6362,0.565,0.425
6363,0.885,0.730
6364,1.290,0.775
6365,1.730,0.720
6366,2.125,0.395
6367,2.500,-0.015
6368,1.960,-0.365
6369,1.195,-0.705
6370,0.465,-0.855
6371,-0.255,-0.970
6372,-0.495,-0.845
6373,-0.685,-0.685
6374,-0.645,-0.550
6375,-0.695,-0.675
6376,-0.500,-0.335
6377,-0.415,-0.255
6378,-0.340,-0.200
6379,-0.275,-0.145
6380,-0.235,-0.110
6381,-0.195,-0.075
6382,-0.175,-0.060
6383,-0.155,-0.045
6384,-0.155,-0.055
6385,-0.155,-0.065
6386,-0.150,-0.055
6387,-0.145,-0.045
6388,-0.135,-0.040
6389,-0.125,-0.035
6390,-0.125,-0.035
6391,-0.125,-0.035
6392,-0.125,-0.040
6393,-0.125,-0.045
6394,-0.120,-0.035
6395,-0.115,-0.025
6396,-0.120,-0.020
6397,-0.120,-0.015
6398,-0.110,-0.015
6399,-0.105,-0.015
6400,-0.110,-0.010
6401,-0.110,-0.005
6402,-0.095,0.000
6403,-0.085,0.005
6404,-0.085,0.010
6405,-0.085,0.015
6406,-0.080,0.020
6407,-0.075,0.025
6408,-0.080,0.025
6409,-0.080,0.025
6410,-0.070,0.025
6411,-0.065,0.030
6412,-0.070,0.040
6413,-0.070,0.050
6414,-0.060,0.060
6415,-0.055,0.065
6416,-0.050,0.065
6417,-0.030,0.080
6418,-0.015,0.095
6419,-0.010,0.100
6420,-0.005,0.105
6421,0.005,0.120
6422,0.015,0.135
6423,0.025,0.135
6424,0.035,0.135
6425,0.055,0.140
6426,0.075,0.145
6427,0.075,0.155
6428,0.075,0.165
6429,0.090,0.165
6430,0.105,0.165
6431,0.115,0.155
6432,0.125,0.145
6433,0.130,0.150
6434,0.135,0.155
6435,0.145,0.160
6436,0.155,0.165
6437,0.155,0.155
6438,0.155,0.135
6439,0.150,0.115
6440,0.140,0.100
6441,0.130,0.090
6442,0.115,0.075
6443,0.095,0.055
6444,0.080,0.030
6445,0.060,0.005
6446,0.045,-0.020
6447,0.025,-0.045
6448,0.000,-0.060
6449,-0.025,-0.070
6450,-0.035,-0.075
6451,-0.035,-0.080
6452,-0.045,-0.085
6453,-0.060,-0.090
6454,-0.065,-0.100
6455,-0.070,-0.110
6456,-0.075,-0.115
6457,-0.075,-0.115
6458,-0.085,-0.115
6459,-0.105,-0.105
6460,-0.100,-0.105
6461,-0.095,-0.105
6462,-0.100,-0.115
6463,-0.105,-0.125
6464,-0.105,-0.115
6465,-0.105,-0.105
6466,-0.100,-0.100
6467,-0.095,-0.095
6468,-0.095,-0.100
6469,-0.095,-0.105
6470,-0.105,-0.105
6471,-0.115,-0.105
6472,-0.105,-0.100
6473,-0.095,-0.095
6474,-0.105,-0.090
6475,-0.110,-0.085
6476,-0.095,-0.085
6477,-0.085,-0.085
6478,-0.085,-0.090
6479,-0.085,-0.095
6480,-0.085,-0.095
6481,-0.085,-0.095
6482,-0.080,-0.090
6483,-0.075,-0.085
6484,-0.070,-0.085
6485,-0.065,-0.090
6486,-0.070,-0.100
6487,-0.070,-0.105
6488,-0.060,-0.105
6489,-0.055,-0.105
6490,-0.060,-0.100
6491,-0.065,-0.095
6492,-0.065,-0.100
6493,-0.065,-0.110
6494,-0.065,-0.120
6495,-0.065,-0.125
6496,-0.065,-0.120
6497,-0.065,-0.115
6498,-0.060,-0.115
6499,-0.060,-0.115
6500,-0.055,-0.115
6501,-0.075,-0.135
6502,-0.075,-0.145
6503,-0.075,-0.145
6504,-0.075,-0.145
6505,-0.080,-0.140
6506,-0.085,-0.135
6507,-0.085,-0.135
6508,-0.085,-0.135
6509,-0.085,-0.145
6510,-0.085,-0.155
6511,-0.090,-0.150
6512,-0.095,-0.145
