'sample interval','ECG1','ECG2'
'0.004 sec','mV','mV'
0,-0.195,-0.165
1,-0.175,-0.150
2,-0.155,-0.145
3,-0.135,-0.140
4,-0.115,-0.135
5,-0.110,-0.120
6,-0.105,-0.105
7,-0.105,-0.095
8,-0.105,-0.085
9,-0.075,-0.085
10,-0.055,-0.085
11,-0.030,-0.080
12,-0.015,-0.075
13,-0.025,-0.080
14,-0.040,-0.090
15,-0.055,-0.110
16,-0.060,-0.130
17,-0.040,-0.145
18,-0.030,-0.150
19,-0.045,-0.135
20,-0.075,-0.125
21,-0.120,-0.140
22,-0.155,-0.150
23,-0.180,-0.160
24,-0.195,-0.165
25,-0.195,-0.170
26,-0.195,-0.175
27,-0.195,-0.175
28,-0.195,-0.175
29,-0.195,-0.180
30,-0.195,-0.185
31,-0.200,-0.185
32,-0.205,-0.185
33,-0.205,-0.180
34,-0.205,-0.175
35,-0.205,-0.175
36,-0.205,-0.175
37,-0.210,-0.175
38,-0.210,-0.175
39,-0.200,-0.170
40,-0.195,-0.165
41,-0.190,-0.165
42,-0.185,-0.165
43,-0.185,-0.165
44,-0.185,-0.165
45,-0.185,-0.165
46,-0.175,-0.160
47,-0.165,-0.155
48,-0.155,-0.150
49,-0.155,-0.145
50,-0.225,-0.140
51,-0.305,-0.130
52,-0.415,-0.090
53,-0.460,-0.035
54,-0.315,0.055
55,-0.050,0.120
56,0.480,0.145
57,1.055,0.180
58,1.695,0.230
59,2.015,0.255
60,1.870,0.225
61,1.310,0.030
62,0.260,-0.365
63,-0.435,-0.810
64,-0.785,-1.300
65,-0.925,-1.550
66,-0.885,-1.600
67,-0.720,-1.495
68,-0.475,-1.270
69,-0.310,-0.985
70,-0.195,-0.675
71,-0.135,-0.435
72,-0.105,-0.225
73,-0.095,-0.120
74,-0.090,-0.060
75,-0.085,-0.030
76,-0.085,-0.010
77,-0.085,0.000
78,-0.080,0.010
79,-0.075,0.020
80,-0.070,0.030
81,-0.060,0.040
82,-0.050,0.050
83,-0.045,0.055
84,-0.045,0.065
85,-0.035,0.075
86,-0.025,0.085
87,-0.015,0.095
88,-0.005,0.105
89,0.000,0.105
90,0.005,0.105
91,0.015,0.110
92,0.025,0.115
93,0.030,0.120
94,0.035,0.125
95,0.045,0.135
96,0.055,0.145
97,0.065,0.145
98,0.075,0.145
99,0.085,0.155
100,0.100,0.165
101,0.115,0.175
102,0.130,0.190
103,0.150,0.210
104,0.165,0.230
105,0.180,0.245
106,0.195,0.260
107,0.215,0.275
108,0.235,0.295
109,0.255,0.315
110,0.280,0.340
111,0.310,0.365
112,0.345,0.385
113,0.380,0.400
114,0.415,0.415
115,0.445,0.430
116,0.475,0.450
117,0.505,0.470
118,0.535,0.485
119,0.560,0.500
120,0.575,0.505
121,0.590,0.505
122,0.610,0.505
123,0.630,0.500
124,0.635,0.495
125,0.635,0.495
126,0.630,0.460
127,0.615,0.435
128,0.570,0.395
129,0.520,0.355
130,0.450,0.300
131,0.375,0.250
132,0.305,0.205
133,0.235,0.160
134,0.160,0.115
135,0.095,0.070
136,0.040,0.025
137,-0.015,-0.010
138,-0.055,-0.040
139,-0.090,-0.070
140,-0.110,-0.090
141,-0.130,-0.110
142,-0.145,-0.125
143,-0.160,-0.135
144,-0.175,-0.135
145,-0.185,-0.135
146,-0.200,-0.150
147,-0.205,-0.155
148,-0.205,-0.155
149,-0.205,-0.155
150,-0.210,-0.155
151,-0.215,-0.155
152,-0.210,-0.160
153,-0.205,-0.165
154,-0.205,-0.170
155,-0.205,-0.170
156,-0.210,-0.160
157,-0.215,-0.155
158,-0.215,-0.155
159,-0.215,-0.155
160,-0.210,-0.155
161,-0.205,-0.155
162,-0.205,-0.155
163,-0.205,-0.155
164,-0.205,-0.155
165,-0.205,-0.155
166,-0.205,-0.150
167,-0.200,-0.145
168,-0.195,-0.145
169,-0.200,-0.150
170,-0.205,-0.155
171,-0.200,-0.155
172,-0.195,-0.155
173,-0.190,-0.150
174,-0.185,-0.145
175,-0.190,-0.145
176,-0.195,-0.145
177,-0.195,-0.150
178,-0.195,-0.155
179,-0.195,-0.150
180,-0.195,-0.145
181,-0.195,-0.145
182,-0.195,-0.145
183,-0.200,-0.150
184,-0.205,-0.155
185,-0.205,-0.160
186,-0.205,-0.165
187,-0.205,-0.165
188,-0.205,-0.165
189,-0.205,-0.165
190,-0.205,-0.165
191,-0.205,-0.170
192,-0.205,-0.175
193,-0.210,-0.175
194,-0.215,-0.175
195,-0.215,-0.180
196,-0.215,-0.185
197,-0.215,-0.180
198,-0.215,-0.175
199,-0.215,-0.180
200,-0.215,-0.185
201,-0.215,-0.185
202,-0.215,-0.185
203,-0.210,-0.180
204,-0.205,-0.175
205,-0.205,-0.175
206,-0.200,-0.175
207,-0.190,-0.175
208,-0.175,-0.170
209,-0.155,-0.155
210,-0.140,-0.135
211,-0.125,-0.115
212,-0.120,-0.110
213,-0.115,-0.105
214,-0.090,-0.110
215,-0.065,-0.115
216,-0.045,-0.110
217,-0.025,-0.105
218,-0.040,-0.105
219,-0.055,-0.110
220,-0.070,-0.130
221,-0.080,-0.145
222,-0.060,-0.160
223,-0.050,-0.175
224,-0.065,-0.165
225,-0.085,-0.155
226,-0.120,-0.160
227,-0.160,-0.165
228,-0.200,-0.170
229,-0.225,-0.175
230,-0.220,-0.190
231,-0.215,-0.195
232,-0.220,-0.200
233,-0.225,-0.205
234,-0.225,-0.205
235,-0.225,-0.205
236,-0.225,-0.200
237,-0.225,-0.195
238,-0.225,-0.200
239,-0.225,-0.205
240,-0.230,-0.205
241,-0.235,-0.205
242,-0.230,-0.200
243,-0.225,-0.195
244,-0.230,-0.190
245,-0.235,-0.185
246,-0.230,-0.185
247,-0.225,-0.185
248,-0.225,-0.190
249,-0.220,-0.190
250,-0.225,-0.195
251,-0.205,-0.170
252,-0.205,-0.165
253,-0.195,-0.170
254,-0.185,-0.175
255,-0.205,-0.175
256,-0.240,-0.175
257,-0.350,-0.140
258,-0.445,-0.105
259,-0.430,-0.025
260,-0.330,0.045
261,0.045,0.090
262,0.510,0.125
263,1.220,0.135
264,1.740,0.155
265,1.885,0.185
266,1.620,0.095
267,0.660,-0.200
268,-0.125,-0.580
269,-0.680,-1.065
270,-0.975,-1.405
271,-0.970,-1.585
272,-0.870,-1.590
273,-0.680,-1.415
274,-0.500,-1.195
275,-0.325,-0.935
276,-0.215,-0.675
277,-0.150,-0.410
278,-0.120,-0.245
279,-0.110,-0.140
280,-0.105,-0.080
281,-0.105,-0.045
282,-0.105,-0.030
283,-0.100,-0.020
284,-0.095,-0.015
285,-0.090,-0.010
286,-0.085,-0.005
287,-0.080,0.000
288,-0.070,0.010
289,-0.060,0.020
290,-0.050,0.035
291,-0.040,0.050
292,-0.030,0.050
293,-0.025,0.045
294,-0.020,0.055
295,-0.015,0.065
296,-0.010,0.070
297,-0.005,0.075
298,0.010,0.085
299,0.025,0.095
300,0.030,0.100
301,0.035,0.105
302,0.050,0.110
303,0.065,0.115
304,0.080,0.120
305,0.095,0.130
306,0.115,0.150
307,0.130,0.165
308,0.145,0.175
309,0.160,0.185
310,0.175,0.195
311,0.195,0.210
312,0.220,0.230
313,0.240,0.250
314,0.255,0.265
315,0.275,0.280
316,0.295,0.295
317,0.325,0.315
318,0.360,0.335
319,0.390,0.355
320,0.425,0.375
321,0.465,0.395
322,0.510,0.415
323,0.540,0.425
324,0.565,0.425
325,0.590,0.430
326,0.610,0.440
327,0.615,0.445
328,0.620,0.445
329,0.630,0.440
330,0.640,0.430
331,0.635,0.410
332,0.620,0.390
333,0.585,0.350
334,0.545,0.305
335,0.480,0.265
336,0.415,0.225
337,0.335,0.185
338,0.260,0.140
339,0.195,0.095
340,0.130,0.050
341,0.065,0.015
342,0.010,-0.020
343,-0.030,-0.045
344,-0.070,-0.065
345,-0.095,-0.080
346,-0.120,-0.095
347,-0.145,-0.110
348,-0.170,-0.130
349,-0.185,-0.145
350,-0.195,-0.155
351,-0.200,-0.155
352,-0.205,-0.155
353,-0.205,-0.155
354,-0.205,-0.155
355,-0.205,-0.160
356,-0.205,-0.165
357,-0.210,-0.170
358,-0.215,-0.175
359,-0.220,-0.170
360,-0.220,-0.165
361,-0.210,-0.160
362,-0.205,-0.155
363,-0.205,-0.160
364,-0.205,-0.165
365,-0.205,-0.165
366,-0.205,-0.165
367,-0.205,-0.160
368,-0.205,-0.155
369,-0.200,-0.150
370,-0.195,-0.145
371,-0.195,-0.145
372,-0.195,-0.145
373,-0.200,-0.150
374,-0.205,-0.155
375,-0.205,-0.155
376,-0.200,-0.145
377,-0.205,-0.145
378,-0.205,-0.145
379,-0.205,-0.145
380,-0.205,-0.150
381,-0.205,-0.155
382,-0.200,-0.155
383,-0.195,-0.155
384,-0.190,-0.150
385,-0.185,-0.145
386,-0.190,-0.150
387,-0.195,-0.155
388,-0.200,-0.160
389,-0.205,-0.165
390,-0.210,-0.160
391,-0.215,-0.155
392,-0.210,-0.155
393,-0.205,-0.155
394,-0.210,-0.165
395,-0.215,-0.175
396,-0.220,-0.180
397,-0.225,-0.185
398,-0.225,-0.180
399,-0.225,-0.175
400,-0.220,-0.175
401,-0.215,-0.175
402,-0.220,-0.175
403,-0.225,-0.175
404,-0.225,-0.180
405,-0.225,-0.185
406,-0.225,-0.185
407,-0.225,-0.185
408,-0.220,-0.185
409,-0.215,-0.185
410,-0.215,-0.185
411,-0.215,-0.185
412,-0.215,-0.190
413,-0.190,-0.185
414,-0.160,-0.170
415,-0.140,-0.150
416,-0.120,-0.130
417,-0.125,-0.120
418,-0.135,-0.115
419,-0.120,-0.115
420,-0.105,-0.115
421,-0.075,-0.110
422,-0.045,-0.105
423,-0.045,-0.105
424,-0.045,-0.105
425,-0.075,-0.125
426,-0.095,-0.145
427,-0.090,-0.165
428,-0.085,-0.185
429,-0.075,-0.185
430,-0.065,-0.185
431,-0.085,-0.175
432,-0.115,-0.165
433,-0.185,-0.165
434,-0.225,-0.175
435,-0.220,-0.205
436,-0.215,-0.225
437,-0.215,-0.215
438,-0.215,-0.205
439,-0.220,-0.210
440,-0.225,-0.215
441,-0.225,-0.210
442,-0.230,-0.205
443,-0.240,-0.210
444,-0.240,-0.215
445,-0.230,-0.210
446,-0.225,-0.205
447,-0.225,-0.205
448,-0.225,-0.205
449,-0.220,-0.205
450,-0.215,-0.205
451,-0.215,-0.205
452,-0.215,-0.205
453,-0.210,-0.200
454,-0.205,-0.195
455,-0.205,-0.190
456,-0.200,-0.185
457,-0.190,-0.185
458,-0.185,-0.185
459,-0.185,-0.195
460,-0.185,-0.185
461,-0.190,-0.175
462,-0.280,-0.150
463,-0.365,-0.120
464,-0.390,-0.070
465,-0.370,-0.015
466,-0.075,0.055
467,0.290,0.115
468,0.915,0.110
469,1.480,0.105
470,1.865,0.110
471,1.940,0.065
472,1.275,-0.120
473,0.540,-0.390
474,-0.330,-0.820
475,-0.890,-1.180
476,-0.960,-1.430
477,-0.955,-1.535
478,-0.840,-1.440
479,-0.670,-1.285
480,-0.445,-1.075
481,-0.285,-0.840
482,-0.190,-0.580
483,-0.125,-0.370
484,-0.090,-0.200
485,-0.070,-0.110
486,-0.060,-0.065
487,-0.055,-0.045
488,-0.060,-0.040
489,-0.060,-0.035
490,-0.050,-0.030
491,-0.040,-0.020
492,-0.030,-0.010
493,-0.025,0.005
494,-0.020,0.020
495,-0.015,0.025
496,-0.010,0.025
497,-0.005,0.025
498,0.000,0.030
499,0.010,0.035
500,0.005,0.035
501,0.035,0.055
502,0.045,0.065
503,0.055,0.065
504,0.065,0.065
505,0.070,0.070
506,0.075,0.075
507,0.090,0.090
508,0.105,0.105
509,0.115,0.115
510,0.125,0.125
511,0.135,0.130
512,0.145,0.135
513,0.160,0.140
514,0.180,0.150
515,0.200,0.165
516,0.220,0.180
517,0.240,0.200
518,0.260,0.220
519,0.280,0.240
520,0.310,0.260
521,0.345,0.275
522,0.380,0.295
523,0.410,0.315
524,0.445,0.330
525,0.480,0.340
526,0.510,0.350
527,0.535,0.365
528,0.560,0.375
529,0.585,0.380
530,0.610,0.385
531,0.635,0.385
532,0.645,0.385
533,0.650,0.385
534,0.655,0.380
535,0.650,0.370
536,0.635,0.345
537,0.620,0.320
538,0.580,0.295
539,0.540,0.270
540,0.480,0.235
541,0.420,0.200
542,0.350,0.160
543,0.285,0.125
544,0.225,0.085
545,0.165,0.045
546,0.110,0.015
547,0.060,-0.015
548,0.020,-0.040
549,-0.020,-0.065
550,-0.060,-0.085
551,-0.100,-0.105
552,-0.125,-0.120
553,-0.145,-0.135
554,-0.150,-0.140
555,-0.155,-0.145
556,-0.175,-0.150
557,-0.185,-0.155
558,-0.185,-0.160
559,-0.185,-0.165
560,-0.190,-0.170
561,-0.195,-0.175
562,-0.195,-0.175
563,-0.195,-0.175
564,-0.190,-0.170
565,-0.185,-0.165
566,-0.185,-0.165
567,-0.185,-0.165
568,-0.185,-0.165
569,-0.185,-0.165
570,-0.180,-0.160
571,-0.175,-0.155
572,-0.175,-0.155
573,-0.175,-0.155
574,-0.175,-0.150
575,-0.175,-0.145
576,-0.180,-0.150
577,-0.185,-0.155
578,-0.180,-0.155
579,-0.175,-0.155
580,-0.175,-0.150
581,-0.175,-0.145
582,-0.175,-0.145
583,-0.175,-0.145
584,-0.175,-0.155
585,-0.175,-0.150
586,-0.175,-0.145
587,-0.170,-0.145
588,-0.165,-0.145
589,-0.165,-0.145
590,-0.165,-0.145
591,-0.175,-0.155
592,-0.185,-0.165
593,-0.180,-0.160
594,-0.175,-0.155
595,-0.180,-0.155
596,-0.185,-0.155
597,-0.190,-0.160
598,-0.195,-0.165
599,-0.195,-0.170
600,-0.195,-0.175
601,-0.190,-0.175
602,-0.185,-0.175
603,-0.190,-0.170
604,-0.195,-0.165
605,-0.200,-0.170
606,-0.205,-0.175
607,-0.205,-0.180
608,-0.205,-0.185
609,-0.200,-0.180
610,-0.195,-0.175
611,-0.200,-0.175
612,-0.205,-0.175
613,-0.205,-0.180
614,-0.205,-0.185
615,-0.205,-0.185
616,-0.190,-0.185
617,-0.160,-0.180
618,-0.140,-0.160
619,-0.120,-0.140
620,-0.115,-0.130
621,-0.115,-0.120
622,-0.115,-0.115
623,-0.110,-0.120
624,-0.080,-0.120
625,-0.105,-0.125
626,-0.035,-0.100
627,-0.025,-0.095
628,-0.050,-0.115
629,-0.075,-0.135
630,-0.070,-0.165
631,-0.065,-0.195
632,-0.055,-0.180
633,-0.045,-0.165
634,-0.065,-0.155
635,-0.095,-0.145
636,-0.145,-0.155
637,-0.185,-0.170
638,-0.200,-0.200
639,-0.215,-0.225
640,-0.220,-0.215
641,-0.225,-0.205
642,-0.220,-0.205
643,-0.215,-0.205
644,-0.220,-0.205
645,-0.225,-0.205
646,-0.225,-0.210
647,-0.225,-0.215
648,-0.225,-0.210
649,-0.225,-0.205
650,-0.230,-0.200
651,-0.235,-0.195
652,-0.230,-0.195
653,-0.225,-0.195
654,-0.230,-0.200
655,-0.230,-0.205
656,-0.220,-0.200
657,-0.215,-0.195
658,-0.220,-0.190
659,-0.225,-0.185
660,-0.220,-0.185
661,-0.215,-0.185
662,-0.210,-0.185
663,-0.200,-0.185
664,-0.190,-0.180
665,-0.235,-0.170
666,-0.290,-0.160
667,-0.385,-0.115
668,-0.475,-0.075
669,-0.340,0.010
670,-0.175,0.095
671,0.390,0.115
672,0.955,0.140
673,1.550,0.185
674,2.015,0.215
675,1.825,0.150
676,1.450,0.015
677,0.400,-0.370
678,-0.465,-0.765
679,-0.805,-1.195
680,-1.035,-1.505
681,-0.985,-1.540
682,-0.875,-1.500
683,-0.650,-1.305
684,-0.460,-1.080
685,-0.315,-0.820
686,-0.215,-0.575
687,-0.165,-0.350
688,-0.130,-0.200
689,-0.120,-0.120
690,-0.115,-0.075
691,-0.110,-0.050
692,-0.105,-0.035
693,-0.105,-0.035
694,-0.100,-0.030
695,-0.090,-0.010
696,-0.085,0.000
697,-0.080,0.010
698,-0.070,0.015
699,-0.060,0.020
700,-0.055,0.025
701,-0.055,0.025
702,-0.050,0.035
703,-0.040,0.050
704,-0.035,0.060
705,-0.030,0.070
706,-0.020,0.075
707,-0.010,0.075
708,0.000,0.075
709,0.015,0.065
710,0.025,0.080
711,0.035,0.095
712,0.050,0.100
713,0.065,0.105
714,0.075,0.120
715,0.085,0.135
716,0.090,0.145
717,0.095,0.155
718,0.115,0.170
719,0.135,0.185
720,0.150,0.195
721,0.170,0.210
722,0.190,0.230
723,0.210,0.245
724,0.230,0.255
725,0.255,0.275
726,0.285,0.300
727,0.320,0.320
728,0.355,0.335
729,0.390,0.350
730,0.425,0.375
731,0.455,0.390
732,0.480,0.405
733,0.510,0.420
734,0.540,0.430
735,0.565,0.435
736,0.585,0.440
737,0.600,0.445
738,0.610,0.440
739,0.615,0.425
740,0.610,0.410
741,0.590,0.385
742,0.570,0.355
743,0.520,0.320
744,0.455,0.285
745,0.385,0.235
746,0.315,0.180
747,0.240,0.125
748,0.160,0.070
749,0.100,0.040
750,0.155,0.065
751,-0.010,-0.020
752,-0.055,-0.045
753,-0.090,-0.070
754,-0.125,-0.095
755,-0.145,-0.115
756,-0.165,-0.135
757,-0.175,-0.140
758,-0.185,-0.145
759,-0.200,-0.150
760,-0.215,-0.155
761,-0.220,-0.160
762,-0.225,-0.165
763,-0.225,-0.170
764,-0.225,-0.175
765,-0.225,-0.170
766,-0.225,-0.165
767,-0.225,-0.160
768,-0.225,-0.155
769,-0.225,-0.160
770,-0.225,-0.165
771,-0.225,-0.165
772,-0.225,-0.165
773,-0.220,-0.160
774,-0.215,-0.155
775,-0.215,-0.155
776,-0.215,-0.155
777,-0.215,-0.155
778,-0.215,-0.155
779,-0.220,-0.155
780,-0.225,-0.155
781,-0.220,-0.150
782,-0.215,-0.145
783,-0.215,-0.145
784,-0.215,-0.145
785,-0.215,-0.150
786,-0.215,-0.155
787,-0.215,-0.155
788,-0.215,-0.155
789,-0.210,-0.150
790,-0.205,-0.145
791,-0.200,-0.140
792,-0.195,-0.140
793,-0.195,-0.145
794,-0.195,-0.150
795,-0.195,-0.155
796,-0.200,-0.150
797,-0.205,-0.145
798,-0.205,-0.145
799,-0.205,-0.145
800,-0.205,-0.155
801,-0.205,-0.165
802,-0.210,-0.165
803,-0.215,-0.165
804,-0.215,-0.165
805,-0.215,-0.165
806,-0.215,-0.165
807,-0.215,-0.165
808,-0.215,-0.170
809,-0.215,-0.175
810,-0.215,-0.180
811,-0.215,-0.185
812,-0.220,-0.180
813,-0.225,-0.175
814,-0.225,-0.175
815,-0.225,-0.175
816,-0.230,-0.175
817,-0.235,-0.180
818,-0.230,-0.190
819,-0.225,-0.195
820,-0.220,-0.190
821,-0.215,-0.185
822,-0.215,-0.180
823,-0.200,-0.175
824,-0.180,-0.170
825,-0.165,-0.160
826,-0.150,-0.150
827,-0.145,-0.135
828,-0.140,-0.120
829,-0.135,-0.115
830,-0.135,-0.110
831,-0.110,-0.105
832,-0.080,-0.105
833,-0.065,-0.105
834,-0.045,-0.105
835,-0.060,-0.115
836,-0.075,-0.125
837,-0.085,-0.145
838,-0.095,-0.165
839,-0.075,-0.165
840,-0.055,-0.165
841,-0.075,-0.160
842,-0.100,-0.155
843,-0.150,-0.160
844,-0.190,-0.165
845,-0.210,-0.175
846,-0.225,-0.185
847,-0.230,-0.190
848,-0.235,-0.195
849,-0.235,-0.200
850,-0.235,-0.205
851,-0.230,-0.205
852,-0.225,-0.205
853,-0.225,-0.200
854,-0.225,-0.195
855,-0.230,-0.200
856,-0.235,-0.205
857,-0.235,-0.205
858,-0.235,-0.205
859,-0.235,-0.200
860,-0.235,-0.195
861,-0.230,-0.190
862,-0.225,-0.185
863,-0.225,-0.185
864,-0.225,-0.185
865,-0.225,-0.190
866,-0.225,-0.190
867,-0.220,-0.180
868,-0.210,-0.175
869,-0.200,-0.170
870,-0.195,-0.165
871,-0.190,-0.165
872,-0.210,-0.165
873,-0.240,-0.170
874,-0.355,-0.145
875,-0.245,-0.175
876,-0.440,-0.025
877,-0.390,0.055
878,0.020,0.100
879,0.460,0.145
880,1.160,0.180
881,1.785,0.215
882,1.955,0.225
883,1.930,0.180
884,1.020,-0.135
885,0.175,-0.485
886,-0.465,-0.965
887,-0.935,-1.370
888,-0.980,-1.580
889,-0.955,-1.660
890,-0.760,-1.460
891,-0.565,-1.240
892,-0.375,-0.970
893,-0.240,-0.705
894,-0.180,-0.445
895,-0.145,-0.260
896,-0.140,-0.155
897,-0.135,-0.090
898,-0.130,-0.055
899,-0.125,-0.030
900,-0.120,-0.015
901,-0.110,-0.005
902,-0.100,0.000
903,-0.095,0.005
904,-0.095,0.005
905,-0.090,0.015
906,-0.080,0.030
907,-0.070,0.040
908,-0.060,0.050
909,-0.055,0.055
910,-0.050,0.060
911,-0.045,0.065
912,-0.045,0.070
913,-0.035,0.075
914,-0.020,0.080
915,-0.015,0.090
916,-0.010,0.100
917,0.005,0.110
918,0.015,0.115
919,0.025,0.120
920,0.035,0.125
921,0.045,0.135
922,0.055,0.145
923,0.075,0.160
924,0.095,0.175
925,0.105,0.185
926,0.115,0.195
927,0.130,0.205
928,0.150,0.220
929,0.175,0.245
930,0.200,0.265
931,0.225,0.285
932,0.250,0.300
933,0.275,0.320
934,0.305,0.340
935,0.330,0.360
936,0.360,0.385
937,0.400,0.410
938,0.440,0.430
939,0.475,0.445
940,0.505,0.460
941,0.530,0.475
942,0.550,0.485
943,0.565,0.485
944,0.585,0.485
945,0.605,0.490
946,0.620,0.490
947,0.630,0.480
948,0.625,0.460
949,0.610,0.435
950,0.575,0.395
951,0.535,0.355
952,0.470,0.310
953,0.395,0.265
954,0.325,0.215
955,0.255,0.170
956,0.185,0.125
957,0.120,0.080
958,0.060,0.040
959,-0.005,-0.005
960,-0.045,-0.030
961,-0.085,-0.055
962,-0.115,-0.075
963,-0.145,-0.095
964,-0.165,-0.110
965,-0.185,-0.125
966,-0.195,-0.135
967,-0.205,-0.145
968,-0.210,-0.150
969,-0.215,-0.155
970,-0.220,-0.155
971,-0.225,-0.155
972,-0.230,-0.160
973,-0.235,-0.165
974,-0.235,-0.165
975,-0.235,-0.165
976,-0.235,-0.165
977,-0.235,-0.165
978,-0.230,-0.160
979,-0.225,-0.155
980,-0.225,-0.155
981,-0.225,-0.155
982,-0.230,-0.160
983,-0.235,-0.160
984,-0.230,-0.150
985,-0.225,-0.145
986,-0.225,-0.150
987,-0.225,-0.155
988,-0.225,-0.155
989,-0.225,-0.155
990,-0.230,-0.160
991,-0.235,-0.160
992,-0.230,-0.150
993,-0.225,-0.145
994,-0.220,-0.145
995,-0.215,-0.145
996,-0.215,-0.145
997,-0.215,-0.145
998,-0.210,-0.150
999,-0.205,-0.155
1000,-0.205,-0.155
1001,-0.205,-0.145
1002,-0.205,-0.145
1003,-0.205,-0.150
1004,-0.205,-0.155
1005,-0.210,-0.155
1006,-0.215,-0.155
1007,-0.215,-0.155
1008,-0.215,-0.155
1009,-0.210,-0.155
1010,-0.205,-0.155
1011,-0.210,-0.160
1012,-0.215,-0.165
1013,-0.215,-0.170
1014,-0.215,-0.175
1015,-0.215,-0.170
1016,-0.215,-0.165
1017,-0.215,-0.170
1018,-0.215,-0.175
1019,-0.215,-0.175
1020,-0.215,-0.175
1021,-0.220,-0.180
1022,-0.225,-0.185
1023,-0.220,-0.180
1024,-0.215,-0.175
1025,-0.215,-0.175
1026,-0.215,-0.175
1027,-0.215,-0.180
1028,-0.215,-0.185
1029,-0.215,-0.185
1030,-0.215,-0.180
1031,-0.210,-0.170
1032,-0.190,-0.160
1033,-0.165,-0.150
1034,-0.150,-0.135
1035,-0.140,-0.120
1036,-0.135,-0.115
1037,-0.140,-0.115
1038,-0.125,-0.115
1039,-0.100,-0.110
1040,-0.075,-0.105
1041,-0.050,-0.100
1042,-0.055,-0.100
1043,-0.065,-0.105
1044,-0.080,-0.125
1045,-0.095,-0.145
1046,-0.080,-0.155
1047,-0.065,-0.165
1048,-0.075,-0.155
1049,-0.085,-0.145
1050,-0.115,-0.150
1051,-0.145,-0.155
1052,-0.190,-0.170
1053,-0.225,-0.185
1054,-0.230,-0.195
1055,-0.235,-0.205
1056,-0.235,-0.200
1057,-0.235,-0.195
1058,-0.235,-0.200
1059,-0.235,-0.205
1060,-0.235,-0.210
1061,-0.235,-0.215
1062,-0.230,-0.205
1063,-0.225,-0.195
1064,-0.230,-0.195
1065,-0.235,-0.195
1066,-0.235,-0.195
1067,-0.235,-0.195
1068,-0.235,-0.200
1069,-0.235,-0.205
1070,-0.235,-0.200
1071,-0.230,-0.195
1072,-0.220,-0.190
1073,-0.215,-0.185
1074,-0.215,-0.180
1075,-0.215,-0.175
1076,-0.210,-0.180
1077,-0.205,-0.185
1078,-0.200,-0.180
1079,-0.195,-0.175
1080,-0.200,-0.170
1081,-0.295,-0.155
1082,-0.400,-0.140
1083,-0.460,-0.085
1084,-0.525,-0.025
1085,-0.265,0.055
1086,0.015,0.135
1087,0.655,0.155
1088,1.275,0.175
1089,1.760,0.220
1090,2.110,0.240
1091,1.675,0.115
1092,1.130,-0.075
1093,0.145,-0.545
1094,-0.645,-1.000
1095,-0.860,-1.430
1096,-0.985,-1.705
1097,-0.865,-1.590
1098,-0.705,-1.425
1099,-0.470,-1.160
1100,-0.295,-0.875
1101,-0.205,-0.565
1102,-0.150,-0.325
1103,-0.130,-0.190
1104,-0.115,-0.100
1105,-0.120,-0.065
1106,-0.125,-0.040
1107,-0.120,-0.030
1108,-0.115,-0.025
1109,-0.110,-0.020
1110,-0.105,-0.005
1111,-0.100,0.015
1112,-0.095,0.025
1113,-0.090,0.025
1114,-0.085,0.030
1115,-0.080,0.040
1116,-0.070,0.045
1117,-0.060,0.050
1118,-0.050,0.065
1119,-0.040,0.080
1120,-0.035,0.085
1121,-0.030,0.085
1122,-0.025,0.085
1123,-0.020,0.085
1124,-0.010,0.095
1125,-0.015,0.085
1126,0.015,0.125
1127,0.025,0.135
1128,0.040,0.140
1129,0.055,0.145
1130,0.060,0.150
1131,0.065,0.155
1132,0.085,0.170
1133,0.105,0.185
1134,0.120,0.200
1135,0.135,0.215
1136,0.150,0.230
1137,0.165,0.245
1138,0.175,0.255
1139,0.195,0.270
1140,0.230,0.290
1141,0.260,0.310
1142,0.290,0.340
1143,0.320,0.365
1144,0.355,0.390
1145,0.390,0.405
1146,0.425,0.420
1147,0.460,0.435
1148,0.490,0.455
1149,0.520,0.470
1150,0.550,0.485
1151,0.575,0.495
1152,0.595,0.495
1153,0.605,0.495
1154,0.610,0.490
1155,0.615,0.475
1156,0.620,0.460
1157,0.610,0.440
1158,0.585,0.415
1159,0.535,0.370
1160,0.485,0.325
1161,0.405,0.270
1162,0.315,0.215
1163,0.245,0.165
1164,0.170,0.120
1165,0.110,0.080
1166,0.050,0.040
1167,-0.005,-0.005
1168,-0.055,-0.045
1169,-0.090,-0.070
1170,-0.125,-0.095
1171,-0.150,-0.110
1172,-0.175,-0.125
1173,-0.190,-0.130
1174,-0.205,-0.135
1175,-0.210,-0.145
1176,-0.215,-0.155
1177,-0.225,-0.160
1178,-0.235,-0.165
1179,-0.235,-0.165
1180,-0.235,-0.165
1181,-0.230,-0.160
1182,-0.225,-0.155
1183,-0.220,-0.155
1184,-0.215,-0.155
1185,-0.225,-0.160
1186,-0.235,-0.165
1187,-0.240,-0.160
1188,-0.245,-0.155
1189,-0.240,-0.155
1190,-0.235,-0.155
1191,-0.230,-0.155
1192,-0.225,-0.155
1193,-0.230,-0.160
1194,-0.235,-0.165
1195,-0.235,-0.160
1196,-0.235,-0.155
1197,-0.230,-0.150
1198,-0.225,-0.145
1199,-0.225,-0.145
1200,-0.225,-0.145
1201,-0.225,-0.150
1202,-0.225,-0.155
1203,-0.225,-0.150
1204,-0.225,-0.145
1205,-0.220,-0.145
1206,-0.215,-0.145
1207,-0.215,-0.150
1208,-0.215,-0.155
1209,-0.215,-0.155
1210,-0.225,-0.155
1211,-0.235,-0.155
1212,-0.230,-0.155
1213,-0.225,-0.155
1214,-0.225,-0.160
1215,-0.225,-0.165
1216,-0.230,-0.170
1217,-0.235,-0.175
1218,-0.235,-0.175
1219,-0.235,-0.175
1220,-0.235,-0.170
1221,-0.235,-0.165
1222,-0.235,-0.170
1223,-0.235,-0.175
1224,-0.240,-0.180
1225,-0.245,-0.185
1226,-0.240,-0.185
1227,-0.235,-0.185
1228,-0.240,-0.185
1229,-0.245,-0.185
1230,-0.245,-0.190
1231,-0.245,-0.195
1232,-0.245,-0.195
1233,-0.245,-0.195
1234,-0.240,-0.195
1235,-0.235,-0.195
1236,-0.240,-0.190
1237,-0.245,-0.185
1238,-0.245,-0.190
1239,-0.245,-0.195
1240,-0.245,-0.200
1241,-0.245,-0.205
1242,-0.240,-0.200
1243,-0.235,-0.195
1244,-0.235,-0.190
1245,-0.235,-0.185
1246,-0.230,-0.185
1247,-0.225,-0.185
1248,-0.220,-0.190
1249,-0.195,-0.185
1250,-0.215,-0.195
1251,-0.150,-0.150
1252,-0.135,-0.135
1253,-0.140,-0.125
1254,-0.145,-0.115
1255,-0.130,-0.115
1256,-0.110,-0.115
1257,-0.070,-0.105
1258,-0.035,-0.095
1259,-0.035,-0.090
1260,-0.040,-0.085
1261,-0.070,-0.100
1262,-0.090,-0.125
1263,-0.070,-0.160
1264,-0.055,-0.180
1265,-0.055,-0.165
1266,-0.065,-0.155
1267,-0.100,-0.150
1268,-0.145,-0.150
1269,-0.195,-0.165
1270,-0.225,-0.180
1271,-0.230,-0.205
1272,-0.235,-0.210
1273,-0.230,-0.200
1274,-0.225,-0.195
1275,-0.220,-0.200
1276,-0.215,-0.205
1277,-0.215,-0.205
1278,-0.215,-0.205
1279,-0.220,-0.210
1280,-0.225,-0.215
1281,-0.230,-0.210
1282,-0.235,-0.205
1283,-0.230,-0.200
1284,-0.225,-0.195
1285,-0.225,-0.195
1286,-0.225,-0.195
1287,-0.225,-0.200
1288,-0.225,-0.205
1289,-0.220,-0.200
1290,-0.215,-0.195
1291,-0.215,-0.190
1292,-0.210,-0.185
1293,-0.205,-0.185
1294,-0.200,-0.185
1295,-0.195,-0.185
1296,-0.215,-0.180
1297,-0.245,-0.175
1298,-0.360,-0.150
1299,-0.455,-0.115
1300,-0.435,-0.035
1301,-0.330,0.035
1302,0.075,0.080
1303,0.555,0.120
1304,1.245,0.145
1305,1.775,0.165
1306,1.940,0.185
1307,1.705,0.095
1308,0.760,-0.200
1309,-0.050,-0.570
1310,-0.660,-1.055
1311,-0.995,-1.400
1312,-1.000,-1.575
1313,-0.905,-1.585
1314,-0.700,-1.415
1315,-0.510,-1.185
1316,-0.330,-0.900
1317,-0.220,-0.635
1318,-0.160,-0.380
1319,-0.135,-0.220
1320,-0.130,-0.120
1321,-0.120,-0.070
1322,-0.110,-0.045
1323,-0.105,-0.035
1324,-0.105,-0.030
1325,-0.100,-0.025
1326,-0.090,-0.020
1327,-0.085,-0.010
1328,-0.080,0.000
1329,-0.075,0.010
1330,-0.070,0.020
1331,-0.065,0.030
1332,-0.060,0.040
1333,-0.055,0.045
1334,-0.045,0.045
1335,-0.035,0.055
1336,-0.025,0.065
1337,-0.020,0.075
1338,-0.015,0.085
1339,0.000,0.085
1340,0.015,0.085
1341,0.015,0.090
1342,0.015,0.095
1343,0.035,0.100
1344,0.055,0.105
1345,0.060,0.120
1346,0.070,0.135
1347,0.090,0.145
1348,0.105,0.155
1349,0.115,0.160
1350,0.125,0.170
1351,0.135,0.190
1352,0.155,0.210
1353,0.180,0.225
1354,0.200,0.240
1355,0.225,0.255
1356,0.245,0.270
1357,0.265,0.285
1358,0.290,0.300
1359,0.320,0.315
1360,0.360,0.340
1361,0.400,0.370
1362,0.435,0.390
1363,0.470,0.400
1364,0.500,0.410
1365,0.525,0.420
1366,0.550,0.430
1367,0.580,0.440
1368,0.600,0.445
1369,0.620,0.445
1370,0.625,0.440
1371,0.630,0.430
1372,0.625,0.400
1373,0.610,0.370
1374,0.570,0.340
1375,0.605,0.365
1376,0.460,0.270
1377,0.395,0.235
1378,0.315,0.190
1379,0.240,0.145
1380,0.175,0.090
1381,0.110,0.045
1382,0.055,0.010
1383,0.000,-0.015
1384,-0.040,-0.045
1385,-0.080,-0.065
1386,-0.105,-0.090
1387,-0.130,-0.105
1388,-0.155,-0.120
1389,-0.175,-0.135
1390,-0.185,-0.140
1391,-0.195,-0.145
1392,-0.200,-0.150
1393,-0.205,-0.155
1394,-0.215,-0.155
1395,-0.225,-0.155
1396,-0.230,-0.170
1397,-0.235,-0.175
1398,-0.235,-0.170
1399,-0.235,-0.165
1400,-0.230,-0.165
1401,-0.225,-0.165
1402,-0.220,-0.165
1403,-0.215,-0.165
1404,-0.220,-0.165
1405,-0.225,-0.165
1406,-0.220,-0.165
1407,-0.215,-0.165
1408,-0.220,-0.160
1409,-0.225,-0.155
1410,-0.220,-0.160
1411,-0.215,-0.165
1412,-0.220,-0.170
1413,-0.225,-0.170
1414,-0.220,-0.160
1415,-0.215,-0.155
1416,-0.215,-0.155
1417,-0.215,-0.155
1418,-0.215,-0.155
1419,-0.215,-0.160
1420,-0.215,-0.165
1421,-0.215,-0.160
1422,-0.215,-0.155
1423,-0.215,-0.155
1424,-0.215,-0.155
1425,-0.215,-0.160
1426,-0.215,-0.165
1427,-0.220,-0.170
1428,-0.225,-0.175
1429,-0.220,-0.170
1430,-0.215,-0.165
1431,-0.220,-0.165
1432,-0.225,-0.165
1433,-0.230,-0.170
1434,-0.235,-0.175
1435,-0.235,-0.185
1436,-0.235,-0.195
1437,-0.235,-0.190
1438,-0.235,-0.185
1439,-0.235,-0.180
1440,-0.235,-0.180
1441,-0.235,-0.190
1442,-0.235,-0.195
1443,-0.235,-0.195
1444,-0.235,-0.195
1445,-0.235,-0.195
1446,-0.235,-0.195
1447,-0.235,-0.190
1448,-0.235,-0.185
1449,-0.240,-0.190
1450,-0.245,-0.195
1451,-0.245,-0.195
1452,-0.240,-0.195
1453,-0.230,-0.190
1454,-0.210,-0.180
1455,-0.190,-0.170
1456,-0.175,-0.160
1457,-0.160,-0.150
1458,-0.155,-0.140
1459,-0.165,-0.125
1460,-0.150,-0.125
1461,-0.135,-0.125
1462,-0.100,-0.120
1463,-0.065,-0.115
1464,-0.060,-0.110
1465,-0.055,-0.105
1466,-0.075,-0.125
1467,-0.095,-0.145
1468,-0.100,-0.165
1469,-0.105,-0.185
1470,-0.095,-0.175
1471,-0.085,-0.165
1472,-0.100,-0.165
1473,-0.130,-0.165
1474,-0.190,-0.170
1475,-0.225,-0.180
1476,-0.235,-0.200
1477,-0.245,-0.215
1478,-0.245,-0.210
1479,-0.245,-0.205
1480,-0.245,-0.205
1481,-0.245,-0.205
1482,-0.245,-0.210
1483,-0.245,-0.215
1484,-0.245,-0.215
1485,-0.245,-0.215
1486,-0.245,-0.210
1487,-0.250,-0.205
1488,-0.260,-0.205
1489,-0.265,-0.205
1490,-0.260,-0.210
1491,-0.255,-0.215
1492,-0.250,-0.210
1493,-0.245,-0.205
1494,-0.240,-0.200
1495,-0.235,-0.195
1496,-0.235,-0.195
1497,-0.235,-0.195
1498,-0.235,-0.200
1499,-0.230,-0.200
1500,-0.235,-0.205
1501,-0.205,-0.180
1502,-0.195,-0.175
1503,-0.240,-0.175
1504,-0.290,-0.175
1505,-0.390,-0.140
1506,-0.465,-0.095
1507,-0.385,-0.015
1508,-0.230,0.060
1509,0.225,0.090
1510,0.725,0.115
1511,1.380,0.125
1512,1.845,0.125
1513,1.805,0.090
1514,1.440,-0.035
1515,0.405,-0.340
1516,-0.415,-0.680
1517,-0.870,-1.080
1518,-1.120,-1.360
1519,-1.070,-1.480
1520,-0.950,-1.480
1521,-0.745,-1.330
1522,-0.555,-1.130
1523,-0.375,-0.875
1524,-0.255,-0.625
1525,-0.185,-0.375
1526,-0.150,-0.225
1527,-0.140,-0.135
1528,-0.130,-0.090
1529,-0.120,-0.065
1530,-0.115,-0.050
1531,-0.115,-0.040
1532,-0.115,-0.030
1533,-0.110,-0.020
1534,-0.100,-0.015
1535,-0.090,-0.010
1536,-0.085,-0.005
1537,-0.080,0.000
1538,-0.070,0.010
1539,-0.060,0.020
1540,-0.055,0.030
1541,-0.050,0.040
1542,-0.035,0.050
1543,-0.025,0.055
1544,-0.025,0.055
1545,-0.025,0.055
1546,-0.010,0.060
1547,0.005,0.065
1548,0.020,0.080
1549,0.035,0.095
1550,0.045,0.095
1551,0.055,0.095
1552,0.060,0.100
1553,0.070,0.105
1554,0.090,0.115
1555,0.105,0.130
1556,0.125,0.150
1557,0.140,0.165
1558,0.165,0.175
1559,0.190,0.190
1560,0.205,0.205
1561,0.225,0.220
1562,0.250,0.235
1563,0.280,0.255
1564,0.310,0.280
1565,0.340,0.300
1566,0.370,0.315
1567,0.400,0.330
1568,0.430,0.340
1569,0.465,0.350
1570,0.500,0.370
1571,0.535,0.380
1572,0.565,0.390
1573,0.580,0.395
1574,0.590,0.395
1575,0.600,0.395
1576,0.610,0.390
1577,0.615,0.380
1578,0.615,0.370
1579,0.595,0.345
1580,0.570,0.320
1581,0.505,0.285
1582,0.440,0.250
1583,0.370,0.210
1584,0.295,0.165
1585,0.220,0.115
1586,0.145,0.065
1587,0.090,0.040
1588,0.030,0.015
1589,-0.020,-0.015
1590,-0.070,-0.045
1591,-0.105,-0.070
1592,-0.135,-0.095
1593,-0.155,-0.105
1594,-0.175,-0.115
1595,-0.190,-0.125
1596,-0.205,-0.135
1597,-0.215,-0.140
1598,-0.225,-0.145
1599,-0.230,-0.155
1600,-0.235,-0.165
1601,-0.235,-0.165
1602,-0.235,-0.165
1603,-0.240,-0.160
1604,-0.245,-0.155
1605,-0.245,-0.160
1606,-0.245,-0.165
1607,-0.240,-0.170
1608,-0.235,-0.175
1609,-0.235,-0.170
1610,-0.235,-0.165
1611,-0.235,-0.160
1612,-0.235,-0.155
1613,-0.240,-0.150
1614,-0.245,-0.150
1615,-0.240,-0.160
1616,-0.235,-0.165
1617,-0.235,-0.160
1618,-0.235,-0.155
1619,-0.230,-0.150
1620,-0.225,-0.145
1621,-0.225,-0.140
1622,-0.225,-0.135
1623,-0.225,-0.140
1624,-0.225,-0.145
1625,-0.225,-0.145
1626,-0.210,-0.140
1627,-0.205,-0.135
1628,-0.215,-0.135
1629,-0.225,-0.135
1630,-0.225,-0.145
1631,-0.225,-0.155
1632,-0.225,-0.150
1633,-0.225,-0.145
1634,-0.225,-0.145
1635,-0.225,-0.145
1636,-0.220,-0.150
1637,-0.215,-0.155
1638,-0.220,-0.160
1639,-0.225,-0.165
1640,-0.230,-0.165
1641,-0.235,-0.165
1642,-0.240,-0.165
1643,-0.245,-0.165
1644,-0.245,-0.170
1645,-0.245,-0.175
1646,-0.250,-0.180
1647,-0.255,-0.185
1648,-0.250,-0.180
1649,-0.245,-0.175
1650,-0.240,-0.175
1651,-0.235,-0.175
1652,-0.240,-0.180
1653,-0.245,-0.185
1654,-0.245,-0.185
1655,-0.245,-0.185
1656,-0.245,-0.180
1657,-0.245,-0.175
1658,-0.245,-0.175
1659,-0.245,-0.175
1660,-0.245,-0.175
1661,-0.245,-0.175
1662,-0.245,-0.180
1663,-0.235,-0.180
1664,-0.220,-0.170
1665,-0.190,-0.160
1666,-0.160,-0.150
1667,-0.145,-0.130
1668,-0.135,-0.115
1669,-0.145,-0.110
1670,-0.155,-0.105
1671,-0.130,-0.105
1672,-0.105,-0.105
1673,-0.080,-0.095
1674,-0.055,-0.085
1675,-0.065,-0.090
1676,-0.075,-0.100
1677,-0.095,-0.125
1678,-0.110,-0.145
1679,-0.090,-0.155
1680,-0.075,-0.165
1681,-0.080,-0.145
1682,-0.095,-0.135
1683,-0.130,-0.140
1684,-0.170,-0.150
1685,-0.210,-0.165
1686,-0.235,-0.180
1687,-0.235,-0.195
1688,-0.235,-0.205
1689,-0.235,-0.200
1690,-0.235,-0.195
1691,-0.235,-0.200
1692,-0.235,-0.205
1693,-0.235,-0.205
1694,-0.235,-0.205
1695,-0.235,-0.205
1696,-0.235,-0.200
1697,-0.235,-0.190
1698,-0.235,-0.185
1699,-0.235,-0.185
1700,-0.235,-0.185
1701,-0.230,-0.190
1702,-0.225,-0.195
1703,-0.225,-0.190
1704,-0.225,-0.185
1705,-0.220,-0.180
1706,-0.215,-0.175
1707,-0.215,-0.175
1708,-0.215,-0.175
1709,-0.205,-0.175
1710,-0.190,-0.170
1711,-0.175,-0.165
1712,-0.210,-0.160
1713,-0.255,-0.155
1714,-0.355,-0.130
1715,-0.445,-0.095
1716,-0.430,-0.030
1717,-0.350,0.035
1718,-0.015,0.095
1719,0.395,0.150
1720,1.045,0.170
1721,1.605,0.190
1722,1.940,0.210
1723,1.960,0.175
1724,1.365,0.015
1725,0.650,-0.245
1726,-0.235,-0.665
1727,-0.800,-1.065
1728,-0.955,-1.440
1729,-0.965,-1.595
1730,-0.815,-1.510
1731,-0.630,-1.335
1732,-0.405,-1.090
1733,-0.265,-0.815
1734,-0.185,-0.520
1735,-0.145,-0.320
1736,-0.125,-0.175
1737,-0.115,-0.100
1738,-0.120,-0.060
1739,-0.125,-0.045
1740,-0.120,-0.040
1741,-0.110,-0.030
1742,-0.100,-0.020
1743,-0.090,-0.010
1744,-0.080,0.000
1745,-0.075,0.005
1746,-0.070,0.010
1747,-0.065,0.015
1748,-0.065,0.015
1749,-0.060,0.025
1750,-0.065,0.015
1751,-0.035,0.055
1752,-0.025,0.065
1753,-0.015,0.070
1754,-0.005,0.075
1755,-0.005,0.070
1756,-0.005,0.065
1757,0.010,0.080
1758,0.025,0.095
1759,0.035,0.100
1760,0.045,0.105
1761,0.055,0.115
1762,0.065,0.125
1763,0.075,0.125
1764,0.090,0.130
1765,0.105,0.150
1766,0.120,0.170
1767,0.140,0.190
1768,0.160,0.210
1769,0.180,0.230
1770,0.200,0.245
1771,0.215,0.260
1772,0.240,0.275
1773,0.275,0.295
1774,0.315,0.320
1775,0.350,0.350
1776,0.380,0.370
1777,0.410,0.385
1778,0.445,0.400
1779,0.475,0.410
1780,0.505,0.425
1781,0.535,0.445
1782,0.560,0.455
1783,0.580,0.460
1784,0.590,0.465
1785,0.600,0.465
1786,0.605,0.460
1787,0.610,0.450
1788,0.615,0.430
1789,0.610,0.410
1790,0.570,0.370
1791,0.530,0.330
1792,0.455,0.285
1793,0.385,0.245
1794,0.310,0.195
1795,0.235,0.145
1796,0.170,0.105
1797,0.110,0.065
1798,0.065,0.025
1799,0.020,-0.005
1800,-0.020,-0.035
1801,-0.060,-0.060
1802,-0.095,-0.085
1803,-0.130,-0.105
1804,-0.150,-0.115
1805,-0.165,-0.125
1806,-0.175,-0.135
1807,-0.185,-0.145
1808,-0.190,-0.150
1809,-0.195,-0.155
1810,-0.205,-0.160
1811,-0.215,-0.165
1812,-0.210,-0.165
1813,-0.205,-0.165
1814,-0.205,-0.165
1815,-0.205,-0.165
1816,-0.205,-0.160
1817,-0.205,-0.155
1818,-0.210,-0.160
1819,-0.215,-0.165
1820,-0.210,-0.165
1821,-0.205,-0.165
1822,-0.205,-0.160
1823,-0.205,-0.155
1824,-0.205,-0.155
1825,-0.205,-0.155
1826,-0.205,-0.160
1827,-0.205,-0.160
1828,-0.205,-0.150
1829,-0.205,-0.145
1830,-0.205,-0.145
1831,-0.205,-0.145
1832,-0.205,-0.145
1833,-0.205,-0.145
1834,-0.205,-0.155
1835,-0.200,-0.150
1836,-0.195,-0.145
1837,-0.190,-0.145
1838,-0.185,-0.145
1839,-0.185,-0.145
1840,-0.185,-0.145
1841,-0.190,-0.150
1842,-0.195,-0.155
1843,-0.195,-0.150
1844,-0.195,-0.145
1845,-0.190,-0.145
1846,-0.185,-0.145
1847,-0.190,-0.150
1848,-0.195,-0.155
1849,-0.195,-0.160
1850,-0.195,-0.165
1851,-0.200,-0.160
1852,-0.205,-0.155
1853,-0.210,-0.155
1854,-0.215,-0.155
1855,-0.210,-0.170
1856,-0.205,-0.175
1857,-0.205,-0.180
1858,-0.205,-0.185
1859,-0.210,-0.180
1860,-0.215,-0.175
1861,-0.215,-0.175
1862,-0.215,-0.175
1863,-0.215,-0.175
1864,-0.215,-0.175
1865,-0.210,-0.175
1866,-0.205,-0.175
1867,-0.205,-0.175
1868,-0.205,-0.175
1869,-0.205,-0.175
1870,-0.205,-0.175
1871,-0.205,-0.175
1872,-0.200,-0.175
1873,-0.190,-0.170
1874,-0.165,-0.165
1875,-0.185,-0.165
1876,-0.125,-0.130
1877,-0.115,-0.105
1878,-0.120,-0.105
1879,-0.125,-0.105
1880,-0.105,-0.110
1881,-0.085,-0.115
1882,-0.050,-0.105
1883,-0.025,-0.095
1884,-0.035,-0.090
1885,-0.045,-0.085
1886,-0.055,-0.110
1887,-0.065,-0.130
1888,-0.055,-0.155
1889,-0.045,-0.170
1890,-0.045,-0.155
1891,-0.055,-0.145
1892,-0.085,-0.140
1893,-0.125,-0.135
1894,-0.175,-0.140
1895,-0.205,-0.155
1896,-0.210,-0.180
1897,-0.215,-0.195
1898,-0.210,-0.190
1899,-0.205,-0.185
1900,-0.200,-0.185
1901,-0.195,-0.185
1902,-0.200,-0.185
1903,-0.205,-0.185
1904,-0.200,-0.190
1905,-0.195,-0.190
1906,-0.195,-0.180
1907,-0.195,-0.175
1908,-0.195,-0.175
1909,-0.195,-0.175
1910,-0.195,-0.180
1911,-0.195,-0.185
1912,-0.195,-0.185
1913,-0.195,-0.180
1914,-0.190,-0.170
1915,-0.185,-0.165
1916,-0.180,-0.160
1917,-0.175,-0.160
1918,-0.175,-0.165
1919,-0.165,-0.165
1920,-0.155,-0.165
1921,-0.175,-0.155
1922,-0.210,-0.145
1923,-0.330,-0.125
1924,-0.430,-0.095
1925,-0.400,-0.025
1926,-0.290,0.045
1927,0.105,0.105
1928,0.570,0.160
1929,1.235,0.200
1930,1.770,0.230
1931,2.020,0.255
1932,1.915,0.205
1933,1.155,0.005
1934,0.395,-0.305
1935,-0.380,-0.775
1936,-0.840,-1.185
1937,-0.930,-1.515
1938,-0.885,-1.615
1939,-0.695,-1.470
1940,-0.505,-1.255
1941,-0.315,-0.980
1942,-0.200,-0.700
1943,-0.140,-0.420
1944,-0.110,-0.245
1945,-0.100,-0.135
1946,-0.095,-0.070
1947,-0.095,-0.030
1948,-0.095,-0.010
1949,-0.090,0.000
1950,-0.085,0.005
1951,-0.080,0.005
1952,-0.070,0.010
1953,-0.060,0.020
1954,-0.055,0.040
1955,-0.050,0.060
1956,-0.045,0.065
1957,-0.040,0.065
1958,-0.030,0.065
1959,-0.015,0.075
1960,-0.010,0.085
1961,-0.005,0.095
1962,0.005,0.100
1963,0.015,0.105
1964,0.020,0.115
1965,0.025,0.125
1966,0.035,0.125
1967,0.045,0.125
1968,0.060,0.135
1969,0.075,0.145
1970,0.080,0.155
1971,0.085,0.165
1972,0.095,0.175
1973,0.110,0.185
1974,0.130,0.195
1975,0.150,0.210
1976,0.165,0.225
1977,0.185,0.240
1978,0.210,0.260
1979,0.230,0.280
1980,0.255,0.295
1981,0.275,0.315
1982,0.300,0.335
1983,0.335,0.355
1984,0.370,0.385
1985,0.400,0.405
1986,0.430,0.425
1987,0.465,0.440
1988,0.495,0.450
1989,0.525,0.465
1990,0.555,0.480
1991,0.580,0.490
1992,0.600,0.500
1993,0.615,0.505
1994,0.630,0.505
1995,0.635,0.500
1996,0.640,0.490
1997,0.640,0.465
1998,0.630,0.440
1999,0.590,0.410
2000,0.625,0.435
2001,0.475,0.330
2002,0.405,0.285
2003,0.325,0.235
2004,0.250,0.185
2005,0.185,0.130
2006,0.120,0.080
2007,0.070,0.040
2008,0.020,0.005
2009,-0.035,-0.025
2010,-0.080,-0.045
2011,-0.105,-0.070
2012,-0.130,-0.085
2013,-0.150,-0.100
2014,-0.165,-0.115
2015,-0.170,-0.120
2016,-0.175,-0.125
2017,-0.180,-0.125
2018,-0.185,-0.125
2019,-0.195,-0.130
2020,-0.205,-0.135
2021,-0.205,-0.140
2022,-0.205,-0.145
2023,-0.200,-0.140
2024,-0.195,-0.135
2025,-0.195,-0.135
2026,-0.195,-0.135
2027,-0.200,-0.140
2028,-0.205,-0.145
2029,-0.205,-0.150
2030,-0.205,-0.155
2031,-0.205,-0.150
2032,-0.205,-0.145
2033,-0.200,-0.140
2034,-0.195,-0.135
2035,-0.200,-0.135
2036,-0.205,-0.135
2037,-0.210,-0.135
2038,-0.210,-0.135
2039,-0.200,-0.135
2040,-0.195,-0.135
2041,-0.195,-0.130
2042,-0.195,-0.125
2043,-0.195,-0.125
2044,-0.200,-0.130
2045,-0.205,-0.135
2046,-0.195,-0.135
2047,-0.185,-0.135
2048,-0.185,-0.130
2049,-0.185,-0.125
2050,-0.190,-0.130
2051,-0.195,-0.135
2052,-0.195,-0.140
2053,-0.195,-0.145
2054,-0.195,-0.145
2055,-0.195,-0.145
2056,-0.195,-0.140
2057,-0.195,-0.135
2058,-0.195,-0.140
2059,-0.195,-0.145
2060,-0.200,-0.150
2061,-0.205,-0.155
2062,-0.205,-0.155
2063,-0.205,-0.155
2064,-0.205,-0.155
2065,-0.205,-0.155
2066,-0.210,-0.155
2067,-0.215,-0.160
2068,-0.215,-0.170
2069,-0.215,-0.175
2070,-0.215,-0.170
2071,-0.215,-0.165
2072,-0.210,-0.165
2073,-0.205,-0.165
2074,-0.210,-0.165
2075,-0.215,-0.165
2076,-0.215,-0.170
2077,-0.215,-0.175
2078,-0.210,-0.170
2079,-0.205,-0.165
2080,-0.205,-0.160
2081,-0.205,-0.155
2082,-0.205,-0.160
2083,-0.195,-0.165
2084,-0.175,-0.165
2085,-0.150,-0.145
2086,-0.125,-0.125
2087,-0.115,-0.110
2088,-0.105,-0.095
2089,-0.105,-0.095
2090,-0.105,-0.095
2091,-0.080,-0.100
2092,-0.055,-0.105
2093,-0.035,-0.090
2094,-0.015,-0.075
2095,-0.030,-0.085
2096,-0.045,-0.100
2097,-0.055,-0.120
2098,-0.060,-0.140
2099,-0.045,-0.155
2100,-0.040,-0.160
2101,-0.055,-0.140
2102,-0.085,-0.125
2103,-0.130,-0.130
2104,-0.165,-0.140
2105,-0.190,-0.165
2106,-0.205,-0.175
2107,-0.210,-0.180
2108,-0.210,-0.185
2109,-0.200,-0.185
2110,-0.195,-0.185
2111,-0.195,-0.185
2112,-0.195,-0.185
2113,-0.195,-0.185
2114,-0.200,-0.185
2115,-0.210,-0.185
2116,-0.215,-0.185
2117,-0.215,-0.180
2118,-0.215,-0.175
2119,-0.210,-0.175
2120,-0.205,-0.175
2121,-0.205,-0.170
2122,-0.205,-0.165
2123,-0.205,-0.170
2124,-0.205,-0.175
2125,-0.205,-0.175
2126,-0.190,-0.160
2127,-0.185,-0.155
2128,-0.180,-0.155
2129,-0.175,-0.155
2130,-0.170,-0.155
2131,-0.170,-0.155
2132,-0.220,-0.150
2133,-0.285,-0.140
2134,-0.410,-0.100
2135,-0.470,-0.050
2136,-0.305,0.035
2137,0.000,0.100
2138,0.665,0.130
2139,1.285,0.175
2140,1.820,0.235
2141,1.990,0.240
2142,1.540,0.145
2143,0.880,-0.100
2144,-0.055,-0.545
2145,-0.650,-0.990
2146,-0.860,-1.430
2147,-0.920,-1.625
2148,-0.830,-1.580
2149,-0.655,-1.435
2150,-0.420,-1.215
2151,-0.275,-0.930
2152,-0.185,-0.610
2153,-0.140,-0.375
2154,-0.115,-0.190
2155,-0.105,-0.100
2156,-0.105,-0.050
2157,-0.100,-0.020
2158,-0.090,0.000
2159,-0.085,0.005
2160,-0.085,0.005
2161,-0.085,0.010
2162,-0.080,0.020
2163,-0.070,0.030
2164,-0.060,0.040
2165,-0.055,0.055
2166,-0.050,0.070
2167,-0.040,0.075
2168,-0.035,0.075
2169,-0.035,0.080
2170,-0.035,0.085
2171,-0.020,0.095
2172,-0.005,0.105
2173,0.005,0.110
2174,0.015,0.115
2175,0.020,0.120
2176,0.025,0.125
2177,0.035,0.125
2178,0.045,0.130
2179,0.060,0.150
2180,0.075,0.165
2181,0.085,0.175
2182,0.100,0.185
2183,0.115,0.195
2184,0.130,0.205
2185,0.145,0.215
2186,0.160,0.230
2187,0.180,0.250
2188,0.205,0.275
2189,0.225,0.295
2190,0.245,0.310
2191,0.265,0.320
2192,0.290,0.335
2193,0.320,0.355
2194,0.350,0.380
2195,0.385,0.405
2196,0.415,0.425
2197,0.445,0.445
2198,0.470,0.455
2199,0.495,0.460
2200,0.525,0.470
2201,0.550,0.480
2202,0.570,0.490
2203,0.590,0.500
2204,0.605,0.505
2205,0.620,0.505
2206,0.625,0.490
2207,0.625,0.470
2208,0.605,0.440
2209,0.575,0.405
2210,0.520,0.365
2211,0.465,0.325
2212,0.390,0.285
2213,0.320,0.240
2214,0.240,0.190
2215,0.170,0.140
2216,0.105,0.090
2217,0.050,0.040
2218,0.000,0.010
2219,-0.045,-0.020
2220,-0.085,-0.045
2221,-0.120,-0.065
2222,-0.140,-0.080
2223,-0.160,-0.100
2224,-0.180,-0.115
2225,-0.195,-0.125
2226,-0.200,-0.130
2227,-0.205,-0.135
2228,-0.210,-0.135
2229,-0.215,-0.135
2230,-0.220,-0.135
2231,-0.225,-0.135
2232,-0.230,-0.140
2233,-0.235,-0.145
2234,-0.230,-0.145
2235,-0.225,-0.145
2236,-0.225,-0.145
2237,-0.225,-0.145
2238,-0.230,-0.145
2239,-0.235,-0.145
2240,-0.230,-0.145
2241,-0.225,-0.145
2242,-0.225,-0.145
2243,-0.225,-0.145
2244,-0.220,-0.140
2245,-0.215,-0.135
2246,-0.220,-0.135
2247,-0.225,-0.140
2248,-0.225,-0.150
2249,-0.225,-0.155
2250,-0.225,-0.155
2251,-0.215,-0.140
2252,-0.215,-0.135
2253,-0.215,-0.140
2254,-0.215,-0.145
2255,-0.215,-0.145
2256,-0.215,-0.145
2257,-0.215,-0.145
2258,-0.215,-0.145
2259,-0.210,-0.140
2260,-0.205,-0.135
2261,-0.215,-0.140
2262,-0.225,-0.145
2263,-0.225,-0.150
2264,-0.225,-0.155
2265,-0.220,-0.150
2266,-0.215,-0.145
2267,-0.215,-0.145
2268,-0.215,-0.145
2269,-0.220,-0.150
2270,-0.225,-0.155
2271,-0.240,-0.160
2272,-0.245,-0.165
2273,-0.240,-0.165
2274,-0.235,-0.165
2275,-0.230,-0.165
2276,-0.225,-0.165
2277,-0.230,-0.165
2278,-0.235,-0.170
2279,-0.235,-0.180
2280,-0.235,-0.185
2281,-0.240,-0.180
2282,-0.245,-0.175
2283,-0.240,-0.170
2284,-0.235,-0.165
2285,-0.240,-0.170
2286,-0.245,-0.175
2287,-0.240,-0.180
2288,-0.235,-0.185
2289,-0.230,-0.180
2290,-0.225,-0.175
2291,-0.220,-0.175
2292,-0.190,-0.165
2293,-0.165,-0.155
2294,-0.155,-0.140
2295,-0.145,-0.125
2296,-0.150,-0.110
2297,-0.155,-0.095
2298,-0.135,-0.100
2299,-0.110,-0.105
2300,-0.075,-0.100
2301,-0.045,-0.095
2302,-0.050,-0.095
2303,-0.060,-0.095
2304,-0.080,-0.110
2305,-0.095,-0.125
2306,-0.090,-0.145
2307,-0.085,-0.155
2308,-0.080,-0.155
2309,-0.085,-0.155
2310,-0.110,-0.155
2311,-0.145,-0.155
2312,-0.195,-0.155
2313,-0.230,-0.160
2314,-0.240,-0.175
2315,-0.245,-0.185
2316,-0.240,-0.185
2317,-0.235,-0.190
2318,-0.240,-0.200
2319,-0.245,-0.205
2320,-0.245,-0.205
2321,-0.245,-0.205
2322,-0.240,-0.205
2323,-0.235,-0.205
2324,-0.235,-0.200
2325,-0.235,-0.195
2326,-0.240,-0.200
2327,-0.245,-0.200
2328,-0.240,-0.190
2329,-0.235,-0.185
2330,-0.235,-0.180
2331,-0.235,-0.175
2332,-0.235,-0.180
2333,-0.235,-0.185
2334,-0.225,-0.185
2335,-0.225,-0.180
2336,-0.225,-0.175
2337,-0.215,-0.170
2338,-0.205,-0.165
2339,-0.200,-0.165
2340,-0.205,-0.165
2341,-0.275,-0.160
2342,-0.350,-0.150
2343,-0.430,-0.100
2344,-0.450,-0.045
2345,-0.265,0.040
2346,0.030,0.105
2347,0.585,0.115
2348,1.135,0.135
2349,1.660,0.165
2350,1.865,0.165
2351,1.545,0.110
2352,0.925,-0.105
2353,-0.090,-0.525
2354,-0.725,-0.935
2355,-0.955,-1.330
2356,-1.015,-1.525
2357,-0.920,-1.545
2358,-0.740,-1.435
2359,-0.505,-1.220
2360,-0.345,-0.960
2361,-0.235,-0.670
2362,-0.175,-0.445
2363,-0.140,-0.245
2364,-0.125,-0.145
2365,-0.130,-0.080
2366,-0.130,-0.050
2367,-0.120,-0.030
2368,-0.110,-0.020
2369,-0.100,-0.010
2370,-0.090,-0.005
2371,-0.080,0.000
2372,-0.075,0.005
2373,-0.070,0.010
2374,-0.065,0.015
2375,-0.065,0.015
2376,-0.045,0.040
2377,-0.035,0.055
2378,-0.035,0.060
2379,-0.035,0.065
2380,-0.030,0.065
2381,-0.025,0.065
2382,-0.010,0.075
2383,0.005,0.085
2384,0.015,0.090
2385,0.025,0.095
2386,0.030,0.100
2387,0.035,0.105
2388,0.045,0.110
2389,0.060,0.120
2390,0.080,0.135
2391,0.100,0.145
2392,0.115,0.155
2393,0.130,0.165
2394,0.145,0.175
2395,0.160,0.190
2396,0.185,0.205
2397,0.205,0.225
2398,0.230,0.245
2399,0.260,0.265
2400,0.290,0.285
2401,0.320,0.305
2402,0.350,0.325
2403,0.385,0.340
2404,0.415,0.350
2405,0.450,0.365
2406,0.485,0.385
2407,0.510,0.395
2408,0.535,0.400
2409,0.560,0.410
2410,0.580,0.420
2411,0.590,0.425
2412,0.600,0.420
2413,0.610,0.415
2414,0.620,0.410
2415,0.625,0.395
2416,0.620,0.380
2417,0.585,0.345
2418,0.555,0.315
2419,0.490,0.280
2420,0.420,0.245
2421,0.350,0.205
2422,0.280,0.160
2423,0.200,0.115
2424,0.125,0.070
2425,0.065,0.030
2426,0.010,-0.010
2427,-0.030,-0.040
2428,-0.070,-0.065
2429,-0.110,-0.080
2430,-0.135,-0.095
2431,-0.155,-0.115
2432,-0.170,-0.125
2433,-0.185,-0.135
2434,-0.200,-0.145
2435,-0.215,-0.150
2436,-0.225,-0.155
2437,-0.225,-0.155
2438,-0.225,-0.155
2439,-0.230,-0.155
2440,-0.235,-0.155
2441,-0.235,-0.155
2442,-0.235,-0.160
2443,-0.240,-0.170
2444,-0.240,-0.175
2445,-0.230,-0.170
2446,-0.225,-0.165
2447,-0.225,-0.165
2448,-0.225,-0.165
2449,-0.230,-0.165
2450,-0.235,-0.165
2451,-0.230,-0.165
2452,-0.225,-0.165
2453,-0.225,-0.160
2454,-0.225,-0.155
2455,-0.225,-0.150
2456,-0.225,-0.145
2457,-0.225,-0.150
2458,-0.225,-0.155
2459,-0.235,-0.155
2460,-0.225,-0.155
2461,-0.215,-0.155
2462,-0.215,-0.150
2463,-0.215,-0.145
2464,-0.215,-0.150
2465,-0.215,-0.155
2466,-0.215,-0.155
2467,-0.215,-0.155
2468,-0.215,-0.155
2469,-0.215,-0.155
2470,-0.215,-0.155
2471,-0.215,-0.155
2472,-0.225,-0.155
2473,-0.235,-0.155
2474,-0.235,-0.160
2475,-0.235,-0.165
2476,-0.225,-0.160
2477,-0.215,-0.155
2478,-0.225,-0.160
2479,-0.235,-0.165
2480,-0.235,-0.170
2481,-0.235,-0.175
2482,-0.240,-0.180
2483,-0.245,-0.185
2484,-0.245,-0.185
2485,-0.245,-0.185
2486,-0.245,-0.180
2487,-0.245,-0.175
2488,-0.245,-0.180
2489,-0.245,-0.185
2490,-0.250,-0.185
2491,-0.250,-0.185
2492,-0.240,-0.185
2493,-0.235,-0.185
2494,-0.235,-0.185
2495,-0.235,-0.185
2496,-0.240,-0.185
2497,-0.245,-0.185
2498,-0.245,-0.190
2499,-0.245,-0.195
2500,-0.245,-0.195
2501,-0.210,-0.180
2502,-0.185,-0.175
2503,-0.170,-0.160
2504,-0.155,-0.145
2505,-0.150,-0.135
2506,-0.145,-0.125
2507,-0.135,-0.120
2508,-0.120,-0.115
2509,-0.090,-0.110
2510,-0.065,-0.105
2511,-0.055,-0.100
2512,-0.050,-0.095
2513,-0.070,-0.110
2514,-0.085,-0.130
2515,-0.095,-0.150
2516,-0.100,-0.165
2517,-0.080,-0.165
2518,-0.070,-0.165
2519,-0.090,-0.155
2520,-0.130,-0.145
2521,-0.185,-0.160
2522,-0.220,-0.175
2523,-0.230,-0.195
2524,-0.235,-0.205
2525,-0.240,-0.200
2526,-0.245,-0.195
2527,-0.245,-0.195
2528,-0.240,-0.200
2529,-0.230,-0.210
2530,-0.225,-0.215
2531,-0.230,-0.210
2532,-0.235,-0.205
2533,-0.235,-0.200
2534,-0.240,-0.195
2535,-0.250,-0.195
2536,-0.255,-0.195
2537,-0.250,-0.195
2538,-0.245,-0.195
2539,-0.240,-0.190
2540,-0.235,-0.185
2541,-0.235,-0.180
2542,-0.225,-0.175
2543,-0.215,-0.175
2544,-0.215,-0.180
2545,-0.215,-0.185
2546,-0.210,-0.175
2547,-0.205,-0.165
2548,-0.200,-0.165
2549,-0.205,-0.165
2550,-0.285,-0.155
2551,-0.355,-0.135
2552,-0.425,-0.090
2553,-0.410,-0.035
2554,-0.160,0.060
2555,0.205,0.125
2556,0.820,0.125
2557,1.365,0.130
2558,1.795,0.150
2559,1.790,0.110
2560,1.130,-0.025
2561,0.375,-0.300
2562,-0.495,-0.735
2563,-0.970,-1.100
2564,-1.040,-1.390
2565,-1.015,-1.495
2566,-0.895,-1.440
2567,-0.710,-1.295
2568,-0.480,-1.085
2569,-0.330,-0.840
2570,-0.220,-0.580
2571,-0.165,-0.380
2572,-0.135,-0.205
2573,-0.120,-0.115
2574,-0.110,-0.060
2575,-0.105,-0.040
2576,-0.105,-0.030
2577,-0.100,-0.020
2578,-0.090,-0.010
2579,-0.085,0.000
2580,-0.080,0.010
2581,-0.075,0.015
2582,-0.075,0.015
2583,-0.070,0.015
2584,-0.055,0.025
2585,-0.050,0.035
2586,-0.045,0.045
2587,-0.030,0.055
2588,-0.015,0.065
2589,-0.010,0.070
2590,-0.005,0.075
2591,0.000,0.075
2592,0.005,0.075
2593,0.020,0.085
2594,0.035,0.095
2595,0.045,0.100
2596,0.055,0.105
2597,0.065,0.115
2598,0.075,0.125
2599,0.085,0.130
2600,0.100,0.140
2601,0.115,0.155
2602,0.130,0.165
2603,0.145,0.175
2604,0.160,0.190
2605,0.185,0.205
2606,0.200,0.220
2607,0.215,0.230
2608,0.240,0.245
2609,0.270,0.275
2610,0.300,0.295
2611,0.330,0.315
2612,0.365,0.335
2613,0.395,0.350
2614,0.425,0.365
2615,0.455,0.380
2616,0.485,0.395
2617,0.515,0.410
2618,0.540,0.415
2619,0.560,0.420
2620,0.580,0.425
2621,0.600,0.425
2622,0.605,0.420
2623,0.610,0.410
2624,0.615,0.400
2625,0.615,0.405
2626,0.580,0.365
2627,0.555,0.345
2628,0.490,0.310
2629,0.420,0.275
2630,0.350,0.235
2631,0.280,0.190
2632,0.215,0.150
2633,0.155,0.110
2634,0.095,0.075
2635,0.035,0.040
2636,-0.010,0.010
2637,-0.055,-0.020
2638,-0.090,-0.045
2639,-0.120,-0.065
2640,-0.145,-0.075
2641,-0.165,-0.085
2642,-0.175,-0.095
2643,-0.190,-0.105
2644,-0.205,-0.115
2645,-0.215,-0.125
2646,-0.215,-0.125
2647,-0.215,-0.125
2648,-0.215,-0.125
2649,-0.215,-0.125
2650,-0.215,-0.125
2651,-0.215,-0.125
2652,-0.215,-0.125
2653,-0.215,-0.125
2654,-0.220,-0.130
2655,-0.225,-0.135
2656,-0.230,-0.130
2657,-0.235,-0.125
2658,-0.230,-0.125
2659,-0.225,-0.125
2660,-0.225,-0.120
2661,-0.225,-0.115
2662,-0.220,-0.120
2663,-0.215,-0.120
2664,-0.210,-0.110
2665,-0.205,-0.105
2666,-0.205,-0.105
2667,-0.205,-0.105
2668,-0.205,-0.105
2669,-0.205,-0.110
2670,-0.205,-0.115
2671,-0.205,-0.115
2672,-0.205,-0.115
2673,-0.205,-0.110
2674,-0.205,-0.105
2675,-0.205,-0.110
2676,-0.205,-0.115
2677,-0.210,-0.115
2678,-0.215,-0.115
2679,-0.210,-0.115
2680,-0.205,-0.115
2681,-0.205,-0.115
2682,-0.205,-0.115
2683,-0.205,-0.120
2684,-0.205,-0.125
2685,-0.210,-0.130
2686,-0.215,-0.135
2687,-0.220,-0.130
2688,-0.225,-0.125
2689,-0.225,-0.125
2690,-0.225,-0.125
2691,-0.225,-0.125
2692,-0.225,-0.130
2693,-0.225,-0.140
2694,-0.225,-0.145
2695,-0.225,-0.145
2696,-0.225,-0.145
2697,-0.225,-0.145
2698,-0.225,-0.145
2699,-0.225,-0.145
2700,-0.225,-0.145
2701,-0.225,-0.150
2702,-0.225,-0.155
2703,-0.225,-0.150
2704,-0.225,-0.145
2705,-0.220,-0.140
2706,-0.215,-0.135
2707,-0.220,-0.140
2708,-0.205,-0.145
2709,-0.175,-0.145
2710,-0.160,-0.120
2711,-0.145,-0.095
2712,-0.140,-0.085
2713,-0.135,-0.075
2714,-0.135,-0.080
2715,-0.135,-0.085
2716,-0.100,-0.085
2717,-0.075,-0.085
2718,-0.060,-0.075
2719,-0.045,-0.065
2720,-0.060,-0.070
2721,-0.075,-0.080
2722,-0.085,-0.105
2723,-0.090,-0.125
2724,-0.075,-0.135
2725,-0.070,-0.140
2726,-0.085,-0.125
2727,-0.110,-0.115
2728,-0.150,-0.120
2729,-0.185,-0.130
2730,-0.210,-0.155
2731,-0.225,-0.170
2732,-0.225,-0.180
2733,-0.225,-0.180
2734,-0.225,-0.170
2735,-0.225,-0.165
2736,-0.225,-0.165
2737,-0.225,-0.165
2738,-0.225,-0.170
2739,-0.225,-0.175
2740,-0.225,-0.175
2741,-0.225,-0.175
2742,-0.225,-0.170
2743,-0.225,-0.165
2744,-0.230,-0.165
2745,-0.235,-0.165
2746,-0.230,-0.160
2747,-0.225,-0.155
2748,-0.225,-0.160
2749,-0.225,-0.160
2750,-0.225,-0.165
2751,-0.210,-0.145
2752,-0.205,-0.145
2753,-0.205,-0.140
2754,-0.205,-0.135
2755,-0.205,-0.135
2756,-0.210,-0.135
2757,-0.275,-0.125
2758,-0.340,-0.110
2759,-0.440,-0.070
2760,-0.480,-0.020
2761,-0.310,0.065
2762,-0.035,0.130
2763,0.515,0.150
2764,1.080,0.180
2765,1.685,0.230
2766,2.000,0.250
2767,1.815,0.210
2768,1.265,0.035
2769,0.210,-0.330
2770,-0.515,-0.745
2771,-0.865,-1.215
2772,-1.000,-1.475
2773,-0.930,-1.535
2774,-0.750,-1.440
2775,-0.490,-1.215
2776,-0.320,-0.940
2777,-0.215,-0.635
2778,-0.155,-0.395
2779,-0.125,-0.195
2780,-0.115,-0.095
2781,-0.120,-0.035
2782,-0.120,-0.005
2783,-0.110,0.010
2784,-0.105,0.015
2785,-0.105,0.020
2786,-0.105,0.025
2787,-0.100,0.025
2788,-0.095,0.035
2789,-0.090,0.050
2790,-0.080,0.060
2791,-0.070,0.070
2792,-0.055,0.080
2793,-0.045,0.085
2794,-0.040,0.085
2795,-0.035,0.085
2796,-0.030,0.095
2797,-0.025,0.105
2798,-0.015,0.110
2799,-0.005,0.115
2800,0.005,0.120
2801,0.015,0.125
2802,0.020,0.130
2803,0.025,0.135
2804,0.040,0.145
2805,0.055,0.155
2806,0.075,0.175
2807,0.090,0.185
2808,0.105,0.195
2809,0.115,0.205
2810,0.125,0.215
2811,0.140,0.230
2812,0.160,0.250
2813,0.185,0.270
2814,0.205,0.285
2815,0.225,0.305
2816,0.250,0.325
2817,0.280,0.340
2818,0.305,0.355
2819,0.335,0.375
2820,0.370,0.395
2821,0.405,0.415
2822,0.445,0.435
2823,0.480,0.455
2824,0.515,0.470
2825,0.540,0.475
2826,0.560,0.480
2827,0.575,0.490
2828,0.590,0.500
2829,0.605,0.505
2830,0.620,0.500
2831,0.625,0.480
2832,0.620,0.460
2833,0.590,0.425
2834,0.555,0.385
2835,0.500,0.345
2836,0.445,0.305
2837,0.370,0.265
2838,0.300,0.220
2839,0.230,0.175
2840,0.160,0.130
2841,0.095,0.085
2842,0.040,0.040
2843,0.000,0.010
2844,-0.040,-0.020
2845,-0.075,-0.040
2846,-0.110,-0.055
2847,-0.140,-0.070
2848,-0.170,-0.090
2849,-0.185,-0.110
2850,-0.195,-0.125
2851,-0.205,-0.125
2852,-0.215,-0.125
2853,-0.215,-0.125
2854,-0.215,-0.125
2855,-0.215,-0.130
2856,-0.215,-0.135
2857,-0.220,-0.140
2858,-0.225,-0.145
2859,-0.220,-0.140
2860,-0.215,-0.135
2861,-0.220,-0.135
2862,-0.225,-0.135
2863,-0.225,-0.135
2864,-0.225,-0.135
2865,-0.230,-0.140
2866,-0.235,-0.145
2867,-0.235,-0.140
2868,-0.235,-0.135
2869,-0.230,-0.135
2870,-0.225,-0.135
2871,-0.220,-0.130
2872,-0.215,-0.125
2873,-0.215,-0.130
2874,-0.215,-0.135
2875,-0.215,-0.135
2876,-0.210,-0.125
2877,-0.205,-0.125
2878,-0.205,-0.125
2879,-0.205,-0.125
2880,-0.205,-0.130
2881,-0.205,-0.135
2882,-0.205,-0.135
2883,-0.205,-0.135
2884,-0.205,-0.130
2885,-0.205,-0.125
2886,-0.200,-0.130
2887,-0.195,-0.135
2888,-0.200,-0.140
2889,-0.205,-0.145
2890,-0.200,-0.135
2891,-0.195,-0.125
2892,-0.200,-0.130
2893,-0.205,-0.135
2894,-0.210,-0.135
2895,-0.215,-0.135
2896,-0.215,-0.150
2897,-0.215,-0.155
2898,-0.215,-0.150
2899,-0.215,-0.145
2900,-0.215,-0.145
2901,-0.215,-0.145
2902,-0.215,-0.145
2903,-0.215,-0.150
2904,-0.220,-0.160
2905,-0.225,-0.165
2906,-0.220,-0.160
2907,-0.215,-0.155
2908,-0.215,-0.150
2909,-0.215,-0.150
2910,-0.220,-0.160
2911,-0.225,-0.165
2912,-0.220,-0.165
2913,-0.215,-0.165
2914,-0.210,-0.160
2915,-0.190,-0.155
2916,-0.170,-0.150
2917,-0.145,-0.130
2918,-0.125,-0.115
2919,-0.130,-0.110
2920,-0.135,-0.105
2921,-0.125,-0.095
2922,-0.115,-0.085
2923,-0.085,-0.085
2924,-0.055,-0.085
2925,-0.045,-0.080
2926,-0.035,-0.075
2927,-0.050,-0.090
2928,-0.065,-0.105
2929,-0.075,-0.120
2930,-0.080,-0.135
2931,-0.060,-0.140
2932,-0.050,-0.145
2933,-0.070,-0.135
2934,-0.105,-0.125
2935,-0.155,-0.135
2936,-0.190,-0.150
2937,-0.210,-0.165
2938,-0.225,-0.175
2939,-0.220,-0.175
2940,-0.215,-0.175
2941,-0.215,-0.180
2942,-0.215,-0.185
2943,-0.215,-0.185
2944,-0.215,-0.185
2945,-0.215,-0.185
2946,-0.215,-0.185
2947,-0.215,-0.180
2948,-0.215,-0.175
2949,-0.215,-0.175
2950,-0.215,-0.175
2951,-0.215,-0.180
2952,-0.215,-0.180
2953,-0.215,-0.170
2954,-0.215,-0.165
2955,-0.210,-0.165
2956,-0.205,-0.165
2957,-0.205,-0.165
2958,-0.205,-0.165
2959,-0.205,-0.165
2960,-0.195,-0.160
2961,-0.185,-0.155
2962,-0.180,-0.150
2963,-0.180,-0.145
2964,-0.270,-0.135
2965,-0.355,-0.120
2966,-0.435,-0.085
2967,-0.465,-0.040
2968,-0.260,0.045
2969,0.040,0.120
2970,0.640,0.145
2971,1.220,0.180
2972,1.760,0.230
2973,2.035,0.250
2974,1.795,0.200
2975,1.250,0.015
2976,0.240,-0.375
2977,-0.480,-0.800
2978,-0.820,-1.275
2979,-0.965,-1.545
2980,-0.890,-1.590
2981,-0.720,-1.495
2982,-0.465,-1.265
2983,-0.300,-0.985
2984,-0.195,-0.665
2985,-0.140,-0.420
2986,-0.115,-0.215
2987,-0.105,-0.110
2988,-0.105,-0.055
2989,-0.105,-0.035
2990,-0.105,-0.030
2991,-0.100,-0.015
2992,-0.090,0.000
2993,-0.085,0.010
2994,-0.080,0.020
2995,-0.070,0.030
2996,-0.060,0.040
2997,-0.055,0.045
2998,-0.050,0.045
2999,-0.045,0.055
3000,-0.045,0.045
3001,-0.025,0.080
3002,-0.015,0.085
3003,-0.010,0.090
3004,-0.005,0.095
3005,0.000,0.090
3006,0.005,0.085
3007,0.020,0.100
3008,0.035,0.115
3009,0.045,0.120
3010,0.055,0.125
3011,0.065,0.135
3012,0.075,0.145
3013,0.085,0.145
3014,0.100,0.150
3015,0.120,0.170
3016,0.135,0.185
3017,0.145,0.195
3018,0.160,0.210
3019,0.180,0.230
3020,0.200,0.250
3021,0.225,0.265
3022,0.245,0.285
3023,0.270,0.310
3024,0.305,0.335
3025,0.340,0.355
3026,0.375,0.375
3027,0.410,0.395
3028,0.445,0.410
3029,0.475,0.420
3030,0.505,0.440
3031,0.535,0.465
3032,0.560,0.475
3033,0.585,0.480
3034,0.605,0.485
3035,0.620,0.490
3036,0.630,0.485
3037,0.640,0.470
3038,0.645,0.465
3039,0.645,0.460
3040,0.630,0.435
3041,0.610,0.410
3042,0.540,0.360
3043,0.475,0.315
3044,0.405,0.265
3045,0.330,0.215
3046,0.260,0.160
3047,0.190,0.110
3048,0.115,0.070
3049,0.050,0.030
3050,0.005,-0.005
3051,-0.040,-0.040
3052,-0.075,-0.065
3053,-0.110,-0.085
3054,-0.130,-0.095
3055,-0.145,-0.105
3056,-0.155,-0.115
3057,-0.165,-0.125
3058,-0.175,-0.130
3059,-0.185,-0.135
3060,-0.190,-0.145
3061,-0.195,-0.155
3062,-0.195,-0.155
3063,-0.195,-0.155
3064,-0.195,-0.155
3065,-0.195,-0.155
3066,-0.195,-0.160
3067,-0.195,-0.165
3068,-0.200,-0.165
3069,-0.205,-0.165
3070,-0.205,-0.165
3071,-0.205,-0.165
3072,-0.205,-0.160
3073,-0.205,-0.155
3074,-0.205,-0.155
3075,-0.205,-0.155
3076,-0.205,-0.160
3077,-0.205,-0.165
3078,-0.205,-0.160
3079,-0.205,-0.155
3080,-0.200,-0.150
3081,-0.195,-0.145
3082,-0.195,-0.145
3083,-0.185,-0.145
3084,-0.165,-0.145
3085,-0.160,-0.140
3086,-0.155,-0.135
3087,-0.155,-0.140
3088,-0.155,-0.145
3089,-0.155,-0.145
3090,-0.155,-0.145
3091,-0.155,-0.145
3092,-0.155,-0.145
3093,-0.155,-0.145
3094,-0.155,-0.145
3095,-0.155,-0.140
3096,-0.155,-0.135
3097,-0.160,-0.140
3098,-0.165,-0.145
3099,-0.160,-0.155
3100,-0.155,-0.165
3101,-0.150,-0.160
3102,-0.145,-0.155
3103,-0.150,-0.160
3104,-0.155,-0.165
3105,-0.160,-0.165
3106,-0.165,-0.165
3107,-0.165,-0.170
3108,-0.165,-0.175
3109,-0.165,-0.175
3110,-0.165,-0.175
3111,-0.165,-0.170
3112,-0.165,-0.165
3113,-0.170,-0.170
3114,-0.175,-0.175
3115,-0.180,-0.180
3116,-0.185,-0.185
3117,-0.180,-0.180
3118,-0.175,-0.175
3119,-0.180,-0.175
3120,-0.185,-0.175
3121,-0.180,-0.175
3122,-0.175,-0.175
3123,-0.175,-0.180
3124,-0.175,-0.185
3125,-0.175,-0.185
3126,-0.165,-0.170
3127,-0.155,-0.165
3128,-0.130,-0.155
3129,-0.105,-0.145
3130,-0.095,-0.130
3131,-0.085,-0.115
3132,-0.090,-0.110
3133,-0.095,-0.105
3134,-0.075,-0.105
3135,-0.050,-0.105
3136,-0.025,-0.100
3137,-0.005,-0.095
3138,-0.010,-0.095
3139,-0.020,-0.100
3140,-0.035,-0.120
3141,-0.045,-0.140
3142,-0.035,-0.155
3143,-0.025,-0.165
3144,-0.035,-0.155
3145,-0.055,-0.145
3146,-0.090,-0.145
3147,-0.125,-0.145
3148,-0.165,-0.150
3149,-0.185,-0.165
3150,-0.190,-0.185
3151,-0.195,-0.195
3152,-0.190,-0.190
3153,-0.185,-0.190
3154,-0.185,-0.200
3155,-0.185,-0.205
3156,-0.180,-0.205
3157,-0.175,-0.205
3158,-0.180,-0.200
3159,-0.185,-0.195
3160,-0.190,-0.190
3161,-0.195,-0.185
3162,-0.200,-0.190
3163,-0.205,-0.195
3164,-0.200,-0.190
3165,-0.195,-0.185
3166,-0.190,-0.180
3167,-0.180,-0.175
3168,-0.175,-0.175
3169,-0.180,-0.175
3170,-0.185,-0.175
3171,-0.180,-0.170
3172,-0.175,-0.165
3173,-0.165,-0.165
3174,-0.160,-0.165
3175,-0.190,-0.165
3176,-0.240,-0.165
3177,-0.360,-0.145
3178,-0.445,-0.110
3179,-0.405,-0.035
3180,-0.240,0.030
3181,0.205,0.095
3182,0.735,0.145
3183,1.405,0.175
3184,1.865,0.200
3185,2.020,0.215
3186,1.695,0.115
3187,0.790,-0.135
3188,0.025,-0.505
3189,-0.600,-0.990
3190,-0.900,-1.355
3191,-0.930,-1.610
3192,-0.825,-1.610
3193,-0.620,-1.430
3194,-0.445,-1.190
3195,-0.280,-0.915
3196,-0.190,-0.645
3197,-0.130,-0.380
3198,-0.115,-0.230
3199,-0.110,-0.130
3200,-0.105,-0.085
3201,-0.100,-0.060
3202,-0.095,-0.045
3203,-0.090,-0.030
3204,-0.085,-0.020
3205,-0.080,-0.010
3206,-0.070,0.000
3207,-0.060,0.010
3208,-0.055,0.015
3209,-0.055,0.025
3210,-0.045,0.040
3211,-0.035,0.055
3212,-0.025,0.060
3213,-0.015,0.065
3214,-0.010,0.070
3215,-0.005,0.075
3216,0.000,0.075
3217,0.005,0.075
3218,0.010,0.080
3219,0.015,0.085
3220,0.030,0.100
3221,0.045,0.115
3222,0.050,0.120
3223,0.055,0.125
3224,0.065,0.125
3225,0.080,0.130
3226,0.095,0.150
3227,0.110,0.165
3228,0.130,0.175
3229,0.150,0.190
3230,0.175,0.205
3231,0.190,0.220
3232,0.200,0.235
3233,0.215,0.250
3234,0.235,0.265
3235,0.260,0.290
3236,0.290,0.315
3237,0.325,0.335
3238,0.355,0.350
3239,0.380,0.360
3240,0.405,0.370
3241,0.440,0.390
3242,0.475,0.410
3243,0.505,0.430
3244,0.540,0.450
3245,0.565,0.455
3246,0.590,0.460
3247,0.600,0.465
3248,0.610,0.460
3249,0.620,0.455
3250,0.615,0.455
3251,0.625,0.425
3252,0.615,0.405
3253,0.570,0.365
3254,0.520,0.325
3255,0.450,0.275
3256,0.375,0.230
3257,0.305,0.185
3258,0.235,0.140
3259,0.160,0.100
3260,0.095,0.060
3261,0.030,0.015
3262,-0.025,-0.025
3263,-0.065,-0.060
3264,-0.105,-0.090
3265,-0.135,-0.105
3266,-0.160,-0.115
3267,-0.175,-0.125
3268,-0.185,-0.140
3269,-0.195,-0.155
3270,-0.205,-0.165
3271,-0.220,-0.170
3272,-0.225,-0.175
3273,-0.225,-0.170
3274,-0.225,-0.165
3275,-0.230,-0.165
3276,-0.235,-0.165
3277,-0.235,-0.165
3278,-0.235,-0.170
3279,-0.235,-0.180
3280,-0.235,-0.185
3281,-0.235,-0.180
3282,-0.235,-0.175
3283,-0.235,-0.170
3284,-0.235,-0.165
3285,-0.235,-0.170
3286,-0.235,-0.175
3287,-0.230,-0.175
3288,-0.225,-0.175
3289,-0.230,-0.175
3290,-0.230,-0.175
3291,-0.220,-0.170
3292,-0.215,-0.165
3293,-0.215,-0.165
3294,-0.215,-0.170
3295,-0.215,-0.175
3296,-0.220,-0.165
3297,-0.225,-0.155
3298,-0.225,-0.155
3299,-0.225,-0.155
3300,-0.220,-0.160
3301,-0.215,-0.165
3302,-0.220,-0.170
3303,-0.225,-0.175
3304,-0.220,-0.170
3305,-0.215,-0.165
3306,-0.215,-0.165
3307,-0.215,-0.165
3308,-0.220,-0.165
3309,-0.225,-0.165
3310,-0.230,-0.175
3311,-0.235,-0.185
3312,-0.235,-0.180
3313,-0.235,-0.175
3314,-0.235,-0.180
3315,-0.235,-0.185
3316,-0.235,-0.185
3317,-0.235,-0.185
3318,-0.240,-0.185
3319,-0.245,-0.185
3320,-0.245,-0.190
3321,-0.245,-0.195
3322,-0.245,-0.190
3323,-0.245,-0.190
3324,-0.240,-0.200
3325,-0.235,-0.205
3326,-0.240,-0.205
3327,-0.245,-0.205
3328,-0.240,-0.200
3329,-0.235,-0.195
3330,-0.240,-0.200
3331,-0.245,-0.205
3332,-0.245,-0.200
3333,-0.245,-0.195
3334,-0.235,-0.205
3335,-0.225,-0.195
3336,-0.215,-0.185
3337,-0.200,-0.185
3338,-0.185,-0.185
3339,-0.170,-0.170
3340,-0.155,-0.155
3341,-0.155,-0.150
3342,-0.155,-0.145
3343,-0.140,-0.140
3344,-0.120,-0.135
3345,-0.090,-0.130
3346,-0.065,-0.125
3347,-0.060,-0.120
3348,-0.060,-0.120
3349,-0.085,-0.140
3350,-0.105,-0.160
3351,-0.095,-0.175
3352,-0.085,-0.185
3353,-0.085,-0.180
3354,-0.090,-0.175
3355,-0.105,-0.175
3356,-0.145,-0.175
3357,-0.205,-0.180
3358,-0.235,-0.195
3359,-0.240,-0.215
3360,-0.245,-0.225
3361,-0.245,-0.220
3362,-0.245,-0.215
3363,-0.245,-0.220
3364,-0.245,-0.225
3365,-0.245,-0.230
3366,-0.245,-0.235
3367,-0.245,-0.230
3368,-0.245,-0.225
3369,-0.245,-0.225
3370,-0.245,-0.225
3371,-0.245,-0.220
3372,-0.245,-0.215
3373,-0.240,-0.220
3374,-0.235,-0.225
3375,-0.235,-0.225
3376,-0.235,-0.210
3377,-0.235,-0.205
3378,-0.235,-0.205
3379,-0.235,-0.205
3380,-0.230,-0.205
3381,-0.225,-0.205
3382,-0.215,-0.205
3383,-0.205,-0.205
3384,-0.205,-0.195
3385,-0.220,-0.185
3386,-0.295,-0.180
3387,-0.375,-0.165
3388,-0.445,-0.125
3389,-0.435,-0.070
3390,-0.255,0.010
3391,0.060,0.070
3392,0.595,0.085
3393,1.130,0.105
3394,1.665,0.130
3395,1.815,0.115
3396,1.515,0.050
3397,0.860,-0.180
3398,-0.130,-0.555
3399,-0.710,-0.940
3400,-0.980,-1.325
3401,-1.045,-1.505
3402,-0.980,-1.555
3403,-0.825,-1.475
3404,-0.625,-1.315
3405,-0.460,-1.100
3406,-0.305,-0.860
3407,-0.220,-0.605
3408,-0.160,-0.350
3409,-0.145,-0.220
3410,-0.140,-0.125
3411,-0.135,-0.090
3412,-0.130,-0.070
3413,-0.125,-0.055
3414,-0.120,-0.040
3415,-0.110,-0.035
3416,-0.100,-0.030
3417,-0.095,-0.015
3418,-0.095,-0.005
3419,-0.090,0.000
3420,-0.085,0.005
3421,-0.075,0.010
3422,-0.065,0.015
3423,-0.050,0.025
3424,-0.035,0.035
3425,-0.035,0.040
3426,-0.035,0.045
3427,-0.030,0.045
3428,-0.025,0.045
3429,-0.010,0.045
3430,0.005,0.045
3431,0.010,0.065
3432,0.015,0.075
3433,0.025,0.085
3434,0.040,0.095
3435,0.055,0.100
3436,0.065,0.105
3437,0.075,0.115
3438,0.095,0.130
3439,0.115,0.140
3440,0.135,0.150
3441,0.155,0.165
3442,0.175,0.180
3443,0.195,0.195
3444,0.220,0.215
3445,0.255,0.235
3446,0.285,0.255
3447,0.315,0.275
3448,0.345,0.295
3449,0.375,0.310
3450,0.405,0.325
3451,0.435,0.340
3452,0.470,0.355
3453,0.500,0.370
3454,0.530,0.375
3455,0.560,0.380
3456,0.570,0.385
3457,0.580,0.390
3458,0.590,0.390
3459,0.605,0.375
3460,0.605,0.360
3461,0.605,0.345
3462,0.565,0.320
3463,0.520,0.295
3464,0.450,0.250
3465,0.375,0.210
3466,0.285,0.165
3467,0.200,0.120
3468,0.125,0.070
3469,0.055,0.030
3470,0.005,-0.005
3471,-0.045,-0.040
3472,-0.085,-0.070
3473,-0.125,-0.100
3474,-0.155,-0.120
3475,-0.180,-0.135
3476,-0.195,-0.140
3477,-0.210,-0.145
3478,-0.225,-0.150
3479,-0.235,-0.155
3480,-0.235,-0.170
3481,-0.235,-0.175
3482,-0.240,-0.175
3483,-0.245,-0.175
3484,-0.250,-0.175
3485,-0.255,-0.175
3486,-0.255,-0.175
3487,-0.255,-0.175
3488,-0.260,-0.175
3489,-0.265,-0.175
3490,-0.260,-0.180
3491,-0.255,-0.185
3492,-0.250,-0.180
3493,-0.245,-0.175
3494,-0.250,-0.170
3495,-0.255,-0.165
3496,-0.255,-0.165
3497,-0.255,-0.165
3498,-0.250,-0.170
3499,-0.245,-0.170
3500,-0.245,-0.175
3501,-0.240,-0.150
3502,-0.235,-0.145
3503,-0.235,-0.155
3504,-0.235,-0.165
3505,-0.240,-0.165
3506,-0.245,-0.165
3507,-0.240,-0.160
3508,-0.235,-0.155
3509,-0.235,-0.155
3510,-0.235,-0.155
3511,-0.230,-0.160
3512,-0.225,-0.165
3513,-0.235,-0.170
3514,-0.245,-0.175
3515,-0.240,-0.170
3516,-0.235,-0.165
3517,-0.240,-0.165
3518,-0.245,-0.165
3519,-0.245,-0.165
3520,-0.245,-0.165
3521,-0.250,-0.170
3522,-0.255,-0.175
3523,-0.255,-0.175
3524,-0.255,-0.175
3525,-0.255,-0.175
3526,-0.255,-0.175
3527,-0.255,-0.175
3528,-0.255,-0.175
3529,-0.255,-0.180
3530,-0.255,-0.185
3531,-0.255,-0.185
3532,-0.255,-0.185
3533,-0.255,-0.185
3534,-0.255,-0.185
3535,-0.255,-0.185
3536,-0.255,-0.185
3537,-0.260,-0.190
3538,-0.265,-0.195
3539,-0.260,-0.195
3540,-0.255,-0.195
3541,-0.255,-0.190
3542,-0.250,-0.185
3543,-0.245,-0.185
3544,-0.240,-0.185
3545,-0.235,-0.185
3546,-0.210,-0.180
3547,-0.185,-0.175
3548,-0.170,-0.155
3549,-0.155,-0.135
3550,-0.160,-0.125
3551,-0.165,-0.115
3552,-0.155,-0.120
3553,-0.135,-0.125
3554,-0.095,-0.115
3555,-0.065,-0.105
3556,-0.065,-0.100
3557,-0.070,-0.100
3558,-0.095,-0.120
3559,-0.115,-0.145
3560,-0.115,-0.170
3561,-0.110,-0.185
3562,-0.090,-0.180
3563,-0.080,-0.170
3564,-0.095,-0.155
3565,-0.135,-0.145
3566,-0.200,-0.150
3567,-0.230,-0.170
3568,-0.245,-0.195
3569,-0.255,-0.205
3570,-0.255,-0.200
3571,-0.250,-0.195
3572,-0.240,-0.200
3573,-0.235,-0.205
3574,-0.240,-0.205
3575,-0.245,-0.205
3576,-0.245,-0.210
3577,-0.245,-0.210
3578,-0.245,-0.200
3579,-0.245,-0.195
3580,-0.245,-0.195
3581,-0.245,-0.195
3582,-0.245,-0.195
3583,-0.245,-0.195
3584,-0.245,-0.195
3585,-0.240,-0.190
3586,-0.235,-0.185
3587,-0.230,-0.180
3588,-0.225,-0.175
3589,-0.225,-0.175
3590,-0.225,-0.175
3591,-0.220,-0.180
3592,-0.215,-0.185
3593,-0.210,-0.175
3594,-0.225,-0.165
3595,-0.305,-0.155
3596,-0.385,-0.130
3597,-0.455,-0.080
3598,-0.445,-0.020
3599,-0.260,0.055
3600,0.080,0.105
3601,0.655,0.115
3602,1.220,0.140
3603,1.755,0.175
3604,1.915,0.175
3605,1.665,0.130
3606,0.995,-0.090
3607,-0.050,-0.465
3608,-0.660,-0.855
3609,-0.955,-1.255
3610,-1.015,-1.440
3611,-0.925,-1.500
3612,-0.745,-1.390
3613,-0.520,-1.185
3614,-0.370,-0.945
3615,-0.245,-0.685
3616,-0.180,-0.465
3617,-0.135,-0.250
3618,-0.125,-0.150
3619,-0.125,-0.080
3620,-0.125,-0.050
3621,-0.120,-0.030
3622,-0.115,-0.025
3623,-0.110,-0.020
3624,-0.105,-0.015
3625,-0.105,-0.015
3626,-0.080,0.010
3627,-0.065,0.025
3628,-0.065,0.030
3629,-0.065,0.035
3630,-0.060,0.040
3631,-0.055,0.045
3632,-0.050,0.055
3633,-0.045,0.065
3634,-0.035,0.065
3635,-0.025,0.065
3636,-0.010,0.075
3637,0.005,0.085
3638,0.005,0.085
3639,0.010,0.090
3640,0.030,0.105
3641,0.045,0.115
3642,0.050,0.120
3643,0.055,0.125
3644,0.065,0.135
3645,0.080,0.145
3646,0.095,0.160
3647,0.115,0.170
3648,0.140,0.185
3649,0.160,0.200
3650,0.175,0.215
3651,0.200,0.230
3652,0.225,0.245
3653,0.245,0.265
3654,0.265,0.280
3655,0.295,0.295
3656,0.325,0.315
3657,0.360,0.340
3658,0.395,0.360
3659,0.425,0.375
3660,0.450,0.390
3661,0.480,0.400
3662,0.510,0.410
3663,0.535,0.420
3664,0.560,0.430
3665,0.575,0.435
3666,0.590,0.440
3667,0.610,0.440
3668,0.625,0.435
3669,0.615,0.415
3670,0.605,0.395
3671,0.580,0.375
3672,0.550,0.355
3673,0.485,0.315
3674,0.415,0.280
3675,0.345,0.225
3676,0.270,0.175
3677,0.200,0.125
3678,0.135,0.080
3679,0.075,0.050
3680,0.025,0.020
3681,-0.015,-0.015
3682,-0.055,-0.040
3683,-0.090,-0.060
3684,-0.125,-0.080
3685,-0.150,-0.100
3686,-0.165,-0.115
3687,-0.175,-0.120
3688,-0.185,-0.125
3689,-0.190,-0.130
3690,-0.195,-0.135
3691,-0.200,-0.140
3692,-0.205,-0.145
3693,-0.210,-0.145
3694,-0.215,-0.145
3695,-0.215,-0.145
3696,-0.215,-0.145
3697,-0.215,-0.145
3698,-0.215,-0.145
3699,-0.215,-0.150
3700,-0.215,-0.155
3701,-0.215,-0.155
3702,-0.215,-0.155
3703,-0.210,-0.155
3704,-0.205,-0.150
3705,-0.205,-0.140
3706,-0.205,-0.135
3707,-0.210,-0.135
3708,-0.215,-0.135
3709,-0.225,-0.145
3710,-0.220,-0.140
3711,-0.215,-0.135
3712,-0.205,-0.130
3713,-0.195,-0.125
3714,-0.195,-0.125
3715,-0.195,-0.125
3716,-0.195,-0.130
3717,-0.195,-0.135
3718,-0.190,-0.130
3719,-0.185,-0.125
3720,-0.185,-0.120
3721,-0.185,-0.115
3722,-0.185,-0.120
3723,-0.185,-0.125
3724,-0.190,-0.130
3725,-0.195,-0.135
3726,-0.190,-0.135
3727,-0.185,-0.135
3728,-0.190,-0.135
3729,-0.195,-0.135
3730,-0.200,-0.135
3731,-0.205,-0.140
3732,-0.205,-0.150
3733,-0.205,-0.155
3734,-0.205,-0.155
3735,-0.205,-0.155
3736,-0.205,-0.150
3737,-0.205,-0.145
3738,-0.210,-0.150
3739,-0.215,-0.155
3740,-0.220,-0.155
3741,-0.225,-0.155
3742,-0.220,-0.160
3743,-0.215,-0.165
3744,-0.215,-0.160
3745,-0.215,-0.155
3746,-0.215,-0.160
3747,-0.215,-0.165
3748,-0.215,-0.170
3749,-0.215,-0.175
3750,-0.215,-0.175
3751,-0.215,-0.165
3752,-0.215,-0.165
3753,-0.210,-0.160
3754,-0.205,-0.155
3755,-0.210,-0.160
3756,-0.215,-0.165
3757,-0.200,-0.160
3758,-0.185,-0.155
3759,-0.155,-0.145
3760,-0.135,-0.135
3761,-0.120,-0.110
3762,-0.105,-0.095
3763,-0.115,-0.095
3764,-0.120,-0.095
3765,-0.095,-0.090
3766,-0.070,-0.085
3767,-0.040,-0.080
3768,-0.025,-0.075
3769,-0.030,-0.075
3770,-0.040,-0.085
3771,-0.065,-0.110
3772,-0.070,-0.130
3773,-0.055,-0.145
3774,-0.045,-0.150
3775,-0.050,-0.135
3776,-0.070,-0.125
3777,-0.095,-0.125
3778,-0.135,-0.130
3779,-0.185,-0.140
3780,-0.205,-0.155
3781,-0.210,-0.175
3782,-0.215,-0.180
3783,-0.210,-0.170
3784,-0.205,-0.165
3785,-0.205,-0.170
3786,-0.205,-0.175
3787,-0.205,-0.180
3788,-0.205,-0.185
3789,-0.205,-0.180
3790,-0.205,-0.175
3791,-0.200,-0.170
3792,-0.200,-0.165
3793,-0.205,-0.165
3794,-0.205,-0.165
3795,-0.205,-0.165
3796,-0.200,-0.165
3797,-0.195,-0.165
3798,-0.190,-0.155
3799,-0.185,-0.145
3800,-0.185,-0.150
3801,-0.185,-0.155
3802,-0.185,-0.150
3803,-0.185,-0.145
3804,-0.175,-0.140
3805,-0.165,-0.135
3806,-0.170,-0.135
3807,-0.210,-0.130
3808,-0.320,-0.115
3809,-0.395,-0.085
3810,-0.420,-0.030
3811,-0.290,0.040
3812,0.030,0.120
3813,0.545,0.175
3814,1.250,0.200
3815,1.745,0.230
3816,2.065,0.260
3817,1.765,0.160
3818,1.030,-0.040
3819,0.260,-0.400
3820,-0.525,-0.850
3821,-0.845,-1.230
3822,-0.945,-1.570
3823,-0.860,-1.575
3824,-0.700,-1.445
3825,-0.505,-1.225
3826,-0.305,-0.980
3827,-0.205,-0.685
3828,-0.125,-0.385
3829,-0.105,-0.225
3830,-0.090,-0.090
3831,-0.085,-0.040
3832,-0.090,0.000
3833,-0.095,0.005
3834,-0.085,0.015
3835,-0.075,0.020
3836,-0.065,0.025
3837,-0.060,0.035
3838,-0.055,0.045
3839,-0.050,0.055
3840,-0.045,0.065
3841,-0.035,0.070
3842,-0.025,0.075
3843,-0.020,0.080
3844,-0.015,0.085
3845,-0.005,0.095
3846,0.005,0.105
3847,0.010,0.105
3848,0.015,0.110
3849,0.020,0.125
3850,0.025,0.135
3851,0.035,0.135
3852,0.050,0.135
3853,0.065,0.145
3854,0.075,0.160
3855,0.090,0.175
3856,0.100,0.185
3857,0.110,0.190
3858,0.120,0.200
3859,0.135,0.210
3860,0.155,0.225
3861,0.175,0.245
3862,0.195,0.260
3863,0.210,0.270
3864,0.225,0.285
3865,0.250,0.310
3866,0.275,0.330
3867,0.305,0.360
3868,0.335,0.380
3869,0.370,0.400
3870,0.405,0.410
3871,0.440,0.420
3872,0.470,0.440
3873,0.500,0.460
3874,0.535,0.480
3875,0.505,0.465
3876,0.595,0.510
3877,0.615,0.515
3878,0.635,0.515
3879,0.655,0.515
3880,0.660,0.505
3881,0.665,0.495
3882,0.655,0.475
3883,0.645,0.455
3884,0.615,0.425
3885,0.580,0.395
3886,0.515,0.350
3887,0.445,0.300
3888,0.365,0.245
3889,0.285,0.195
3890,0.220,0.155
3891,0.155,0.110
3892,0.085,0.070
3893,0.030,0.030
3894,-0.020,-0.005
3895,-0.060,-0.035
3896,-0.105,-0.070
3897,-0.130,-0.085
3898,-0.145,-0.090
3899,-0.155,-0.100
3900,-0.160,-0.110
3901,-0.165,-0.115
3902,-0.170,-0.120
3903,-0.175,-0.125
3904,-0.180,-0.130
3905,-0.185,-0.135
3906,-0.185,-0.130
3907,-0.185,-0.125
3908,-0.185,-0.125
3909,-0.185,-0.125
3910,-0.190,-0.125
3911,-0.195,-0.130
3912,-0.195,-0.140
3913,-0.195,-0.140
3914,-0.190,-0.130
3915,-0.185,-0.125
3916,-0.185,-0.125
3917,-0.185,-0.125
3918,-0.185,-0.125
3919,-0.190,-0.130
3920,-0.195,-0.135
3921,-0.190,-0.130
3922,-0.185,-0.125
3923,-0.185,-0.120
3924,-0.185,-0.115
3925,-0.180,-0.115
3926,-0.175,-0.115
3927,-0.175,-0.120
3928,-0.175,-0.125
3929,-0.175,-0.120
3930,-0.175,-0.115
3931,-0.175,-0.110
3932,-0.175,-0.105
3933,-0.175,-0.110
3934,-0.175,-0.115
3935,-0.180,-0.115
3936,-0.185,-0.115
3937,-0.180,-0.115
3938,-0.175,-0.115
3939,-0.175,-0.115
3940,-0.175,-0.115
3941,-0.180,-0.115
3942,-0.185,-0.120
3943,-0.190,-0.130
3944,-0.195,-0.135
3945,-0.195,-0.130
3946,-0.195,-0.125
3947,-0.190,-0.125
3948,-0.185,-0.125
3949,-0.190,-0.130
3950,-0.195,-0.140
3951,-0.195,-0.150
3952,-0.195,-0.155
3953,-0.195,-0.150
3954,-0.195,-0.145
3955,-0.195,-0.145
3956,-0.195,-0.145
3957,-0.200,-0.145
3958,-0.205,-0.145
3959,-0.205,-0.155
3960,-0.195,-0.150
3961,-0.185,-0.145
3962,-0.190,-0.145
3963,-0.195,-0.145
3964,-0.190,-0.145
3965,-0.185,-0.145
3966,-0.190,-0.150
3967,-0.195,-0.155
3968,-0.190,-0.145
3969,-0.180,-0.135
3970,-0.160,-0.130
3971,-0.140,-0.125
3972,-0.120,-0.120
3973,-0.105,-0.110
3974,-0.105,-0.090
3975,-0.105,-0.075
3976,-0.100,-0.075
3977,-0.085,-0.075
3978,-0.055,-0.070
3979,-0.030,-0.065
3980,-0.015,-0.060
3981,-0.015,-0.060
3982,-0.035,-0.075
3983,-0.045,-0.095
3984,-0.050,-0.115
3985,-0.050,-0.125
3986,-0.035,-0.125
3987,-0.035,-0.120
3988,-0.055,-0.110
3989,-0.095,-0.105
3990,-0.140,-0.110
3991,-0.170,-0.130
3992,-0.190,-0.150
3993,-0.195,-0.155
3994,-0.200,-0.150
3995,-0.200,-0.145
3996,-0.190,-0.150
3997,-0.185,-0.155
3998,-0.190,-0.160
3999,-0.195,-0.165
4000,-0.195,-0.165
4001,-0.195,-0.160
4002,-0.195,-0.155
4003,-0.195,-0.155
4004,-0.195,-0.155
4005,-0.200,-0.155
4006,-0.205,-0.155
4007,-0.200,-0.150
4008,-0.195,-0.145
4009,-0.190,-0.145
4010,-0.185,-0.145
4011,-0.185,-0.140
4012,-0.185,-0.135
4013,-0.180,-0.135
4014,-0.175,-0.135
4015,-0.170,-0.130
4016,-0.165,-0.125
4017,-0.160,-0.125
4018,-0.180,-0.125
4019,-0.245,-0.115
4020,-0.330,-0.090
4021,-0.425,-0.055
4022,-0.380,0.005
4023,-0.200,0.095
4024,0.220,0.145
4025,0.825,0.175
4026,1.385,0.215
4027,1.920,0.275
4028,1.915,0.255
4029,1.615,0.185
4030,0.840,-0.130
4031,-0.140,-0.550
4032,-0.600,-1.005
4033,-0.885,-1.475
4034,-0.900,-1.575
4035,-0.835,-1.575
4036,-0.625,-1.380
4037,-0.385,-1.145
4038,-0.270,-0.835
4039,-0.175,-0.515
4040,-0.145,-0.325
4041,-0.120,-0.140
4042,-0.110,-0.085
4043,-0.105,-0.035
4044,-0.105,-0.020
4045,-0.105,-0.005
4046,-0.095,0.010
4047,-0.085,0.025
4048,-0.080,0.040
4049,-0.075,0.055
4050,-0.070,0.060
4051,-0.065,0.065
4052,-0.060,0.065
4053,-0.055,0.065
4054,-0.050,0.080
4055,-0.045,0.095
4056,-0.025,0.100
4057,-0.015,0.105
4058,-0.010,0.115
4059,-0.005,0.125
4060,0.000,0.125
4061,0.005,0.130
4062,0.015,0.145
4063,0.030,0.155
4064,0.045,0.155
4065,0.060,0.160
4066,0.070,0.170
4067,0.080,0.180
4068,0.090,0.190
4069,0.105,0.200
4070,0.125,0.220
4071,0.140,0.235
4072,0.150,0.250
4073,0.165,0.260
4074,0.180,0.270
4075,0.200,0.280
4076,0.220,0.290
4077,0.240,0.310
4078,0.260,0.330
4079,0.290,0.355
4080,0.320,0.380
4081,0.350,0.400
4082,0.380,0.420
4083,0.410,0.430
4084,0.445,0.445
4085,0.480,0.465
4086,0.515,0.485
4087,0.545,0.495
4088,0.575,0.505
4089,0.595,0.510
4090,0.615,0.515
4091,0.625,0.510
4092,0.635,0.505
4093,0.640,0.495
4094,0.645,0.480
4095,0.630,0.460
4096,0.605,0.435
4097,0.560,0.400
4098,0.500,0.360
4099,0.415,0.300
4100,0.340,0.250
4101,0.270,0.205
4102,0.200,0.155
4103,0.130,0.110
4104,0.070,0.070
4105,0.015,0.035
4106,-0.030,0.000
4107,-0.065,-0.030
4108,-0.100,-0.055
4109,-0.130,-0.075
4110,-0.150,-0.085
4111,-0.165,-0.090
4112,-0.180,-0.100
4113,-0.190,-0.110
4114,-0.200,-0.120
4115,-0.210,-0.130
4116,-0.215,-0.135
4117,-0.210,-0.135
4118,-0.205,-0.135
4119,-0.205,-0.130
4120,-0.205,-0.125
4121,-0.210,-0.130
4122,-0.215,-0.135
4123,-0.220,-0.140
4124,-0.225,-0.145
4125,-0.225,-0.145
4126,-0.215,-0.135
4127,-0.215,-0.135
4128,-0.215,-0.130
4129,-0.215,-0.125
4130,-0.220,-0.130
4131,-0.225,-0.135
4132,-0.220,-0.135
4133,-0.215,-0.135
4134,-0.215,-0.130
4135,-0.215,-0.125
4136,-0.215,-0.125
4137,-0.215,-0.125
4138,-0.215,-0.130
4139,-0.215,-0.135
4140,-0.215,-0.130
4141,-0.215,-0.125
4142,-0.210,-0.125
4143,-0.205,-0.125
4144,-0.210,-0.125
4145,-0.215,-0.125
4146,-0.215,-0.130
4147,-0.215,-0.135
4148,-0.210,-0.135
4149,-0.205,-0.135
4150,-0.210,-0.130
4151,-0.215,-0.125
4152,-0.215,-0.130
4153,-0.215,-0.140
4154,-0.215,-0.150
4155,-0.215,-0.155
4156,-0.220,-0.150
4157,-0.225,-0.145
4158,-0.225,-0.145
4159,-0.225,-0.145
4160,-0.230,-0.145
4161,-0.235,-0.150
4162,-0.235,-0.160
4163,-0.235,-0.165
4164,-0.235,-0.160
4165,-0.235,-0.155
4166,-0.230,-0.155
4167,-0.225,-0.155
4168,-0.225,-0.155
4169,-0.230,-0.165
4170,-0.235,-0.175
4171,-0.235,-0.170
4172,-0.235,-0.165
4173,-0.230,-0.165
4174,-0.225,-0.165
4175,-0.230,-0.170
4176,-0.235,-0.175
4177,-0.235,-0.175
4178,-0.235,-0.175
4179,-0.230,-0.175
4180,-0.225,-0.175
4181,-0.225,-0.170
4182,-0.225,-0.165
4183,-0.215,-0.165
4184,-0.200,-0.165
4185,-0.180,-0.160
4186,-0.160,-0.150
4187,-0.145,-0.135
4188,-0.135,-0.120
4189,-0.140,-0.105
4190,-0.140,-0.095
4191,-0.125,-0.100
4192,-0.100,-0.105
4193,-0.070,-0.100
4194,-0.055,-0.095
4195,-0.055,-0.090
4196,-0.065,-0.095
4197,-0.080,-0.110
4198,-0.085,-0.130
4199,-0.080,-0.155
4200,-0.075,-0.165
4201,-0.075,-0.160
4202,-0.095,-0.150
4203,-0.120,-0.140
4204,-0.165,-0.140
4205,-0.220,-0.150
4206,-0.230,-0.170
4207,-0.240,-0.190
4208,-0.245,-0.195
4209,-0.245,-0.185
4210,-0.235,-0.190
4211,-0.225,-0.195
4212,-0.225,-0.190
4213,-0.225,-0.185
4214,-0.230,-0.185
4215,-0.235,-0.185
4216,-0.235,-0.190
4217,-0.235,-0.195
4218,-0.235,-0.190
4219,-0.235,-0.185
4220,-0.235,-0.180
4221,-0.235,-0.175
4222,-0.235,-0.175
4223,-0.235,-0.175
4224,-0.230,-0.175
4225,-0.225,-0.175
4226,-0.220,-0.170
4227,-0.215,-0.165
4228,-0.210,-0.160
4229,-0.205,-0.155
4230,-0.190,-0.155
4231,-0.195,-0.155
4232,-0.220,-0.155
4233,-0.305,-0.140
4234,-0.425,-0.110
4235,-0.460,-0.060
4236,-0.435,0.000
4237,-0.155,0.065
4238,0.250,0.125
4239,0.855,0.160
4240,1.540,0.185
4241,1.850,0.210
4242,2.045,0.240
4243,1.430,0.060
4244,0.620,-0.170
4245,-0.100,-0.605
4246,-0.805,-1.080
4247,-0.935,-1.385
4248,-1.000,-1.680
4249,-0.850,-1.565
4250,-1.005,-1.695
4251,-0.490,-1.165
4252,-0.295,-0.905
4253,-0.220,-0.625
4254,-0.155,-0.355
4255,-0.140,-0.225
4256,-0.125,-0.110
4257,-0.125,-0.070
4258,-0.125,-0.035
4259,-0.120,-0.020
4260,-0.115,-0.005
4261,-0.110,0.000
4262,-0.105,0.005
4263,-0.095,0.010
4264,-0.085,0.020
4265,-0.085,0.035
4266,-0.080,0.045
4267,-0.065,0.055
4268,-0.055,0.065
4269,-0.055,0.065
4270,-0.055,0.065
4271,-0.050,0.070
4272,-0.040,0.080
4273,-0.025,0.095
4274,-0.015,0.105
4275,-0.015,0.105
4276,-0.010,0.105
4277,0.000,0.110
4278,0.010,0.115
4279,0.020,0.120
4280,0.035,0.130
4281,0.055,0.140
4282,0.075,0.155
4283,0.090,0.170
4284,0.100,0.175
4285,0.110,0.180
4286,0.125,0.195
4287,0.140,0.210
4288,0.165,0.225
4289,0.190,0.240
4290,0.215,0.265
4291,0.240,0.290
4292,0.270,0.310
4293,0.295,0.325
4294,0.320,0.340
4295,0.345,0.355
4296,0.380,0.380
4297,0.415,0.405
4298,0.445,0.415
4299,0.480,0.425
4300,0.510,0.440
4301,0.540,0.455
4302,0.565,0.460
4303,0.585,0.465
4304,0.600,0.470
4305,0.615,0.475
4306,0.635,0.465
4307,0.640,0.450
4308,0.625,0.425
4309,0.600,0.395
4310,0.560,0.365
4311,0.510,0.330
4312,0.455,0.290
4313,0.390,0.245
4314,0.310,0.200
4315,0.235,0.150
4316,0.160,0.105
4317,0.090,0.065
4318,0.030,0.020
4319,-0.020,-0.010
4320,-0.070,-0.045
4321,-0.100,-0.065
4322,-0.125,-0.080
4323,-0.150,-0.095
4324,-0.175,-0.110
4325,-0.190,-0.125
4326,-0.200,-0.140
4327,-0.205,-0.145
4328,-0.210,-0.145
4329,-0.215,-0.145
4330,-0.215,-0.145
4331,-0.215,-0.145
4332,-0.220,-0.150
4333,-0.225,-0.155
4334,-0.235,-0.165
4335,-0.235,-0.160
4336,-0.235,-0.155
4337,-0.240,-0.155
4338,-0.245,-0.155
4339,-0.240,-0.155
4340,-0.235,-0.155
4341,-0.235,-0.155
4342,-0.235,-0.155
4343,-0.235,-0.155
4344,-0.235,-0.155
4345,-0.235,-0.150
4346,-0.235,-0.145
4347,-0.230,-0.145
4348,-0.225,-0.145
4349,-0.230,-0.150
4350,-0.235,-0.155
4351,-0.230,-0.155
4352,-0.225,-0.155
4353,-0.220,-0.150
4354,-0.215,-0.145
4355,-0.215,-0.145
4356,-0.215,-0.145
4357,-0.220,-0.150
4358,-0.225,-0.155
4359,-0.225,-0.155
4360,-0.225,-0.155
4361,-0.225,-0.150
4362,-0.225,-0.145
4363,-0.230,-0.145
4364,-0.235,-0.150
4365,-0.230,-0.160
4366,-0.225,-0.165
4367,-0.230,-0.165
4368,-0.230,-0.160
4369,-0.220,-0.150
4370,-0.215,-0.145
4371,-0.215,-0.150
4372,-0.215,-0.155
4373,-0.215,-0.160
4374,-0.215,-0.165
4375,-0.215,-0.165
4376,-0.210,-0.165
4377,-0.205,-0.165
4378,-0.210,-0.170
4379,-0.215,-0.175
4380,-0.220,-0.180
4381,-0.225,-0.185
4382,-0.220,-0.180
4383,-0.215,-0.175
4384,-0.215,-0.175
4385,-0.215,-0.175
4386,-0.215,-0.170
4387,-0.215,-0.165
4388,-0.215,-0.170
4389,-0.215,-0.175
4390,-0.210,-0.175
4391,-0.205,-0.175
4392,-0.195,-0.165
4393,-0.180,-0.155
4394,-0.160,-0.150
4395,-0.140,-0.145
4396,-0.125,-0.130
4397,-0.115,-0.120
4398,-0.120,-0.110
4399,-0.115,-0.105
4400,-0.085,-0.100
4401,-0.060,-0.095
4402,-0.035,-0.095
4403,-0.030,-0.095
4404,-0.040,-0.095
4405,-0.055,-0.105
4406,-0.070,-0.125
4407,-0.065,-0.150
4408,-0.050,-0.170
4409,-0.045,-0.165
4410,-0.050,-0.150
4411,-0.085,-0.150
4412,-0.130,-0.160
4413,-0.170,-0.165
4414,-0.210,-0.165
4415,-0.215,-0.175
4416,-0.215,-0.190
4417,-0.220,-0.190
4418,-0.225,-0.185
4419,-0.225,-0.195
4420,-0.225,-0.205
4421,-0.220,-0.200
4422,-0.215,-0.195
4423,-0.215,-0.195
4424,-0.215,-0.195
4425,-0.215,-0.190
4426,-0.215,-0.185
4427,-0.220,-0.190
4428,-0.225,-0.195
4429,-0.225,-0.190
4430,-0.225,-0.185
4431,-0.220,-0.185
4432,-0.215,-0.185
4433,-0.210,-0.180
4434,-0.205,-0.175
4435,-0.205,-0.175
4436,-0.205,-0.175
4437,-0.200,-0.170
4438,-0.195,-0.165
4439,-0.195,-0.160
4440,-0.210,-0.155
4441,-0.240,-0.155
4442,-0.315,-0.140
4443,-0.425,-0.115
4444,-0.425,-0.050
4445,-0.360,0.035
4446,-0.015,0.085
4447,0.455,0.115
4448,1.070,0.140
4449,1.735,0.160
4450,1.805,0.135
4451,1.695,0.095
4452,0.800,-0.205
4453,-0.260,-0.560
4454,-0.710,-0.955
4455,-1.075,-1.360
4456,-1.045,-1.465
4457,-0.980,-1.540
4458,-0.760,-1.365
4459,-0.535,-1.175
4460,-0.375,-0.900
4461,-0.225,-0.635
4462,-0.185,-0.425
4463,-0.145,-0.230
4464,-0.135,-0.145
4465,-0.125,-0.075
4466,-0.115,-0.055
4467,-0.105,-0.035
4468,-0.100,-0.020
4469,-0.095,-0.005
4470,-0.085,0.000
4471,-0.075,0.005
4472,-0.070,0.015
4473,-0.065,0.025
4474,-0.065,0.030
4475,-0.065,0.035
4476,-0.055,0.045
4477,-0.045,0.055
4478,-0.035,0.060
4479,-0.025,0.065
4480,-0.010,0.065
4481,-0.005,0.065
4482,0.000,0.070
4483,0.010,0.080
4484,0.020,0.090
4485,0.030,0.100
4486,0.040,0.110
4487,0.050,0.115
4488,0.060,0.120
4489,0.075,0.125
4490,0.090,0.130
4491,0.105,0.145
4492,0.120,0.160
4493,0.140,0.170
4494,0.160,0.180
4495,0.170,0.195
4496,0.180,0.210
4497,0.200,0.225
4498,0.220,0.240
4499,0.250,0.260
4500,0.225,0.245
4501,0.315,0.300
4502,0.345,0.315
4503,0.375,0.330
4504,0.405,0.345
4505,0.435,0.355
4506,0.470,0.365
4507,0.505,0.390
4508,0.540,0.415
4509,0.570,0.420
4510,0.595,0.425
4511,0.610,0.425
4512,0.625,0.425
4513,0.635,0.420
4514,0.645,0.415
4515,0.650,0.405
4516,0.650,0.390
4517,0.630,0.375
4518,0.595,0.350
4519,0.535,0.315
4520,0.470,0.275
4521,0.395,0.230
4522,0.320,0.185
4523,0.240,0.140
4524,0.170,0.100
4525,0.105,0.070
4526,0.045,0.035
4527,-0.005,0.000
4528,-0.050,-0.030
4529,-0.090,-0.055
4530,-0.125,-0.075
4531,-0.155,-0.090
4532,-0.170,-0.100
4533,-0.180,-0.110
4534,-0.195,-0.120
4535,-0.210,-0.130
4536,-0.220,-0.135
4537,-0.230,-0.140
4538,-0.235,-0.145
4539,-0.230,-0.145
4540,-0.225,-0.145
4541,-0.225,-0.145
4542,-0.230,-0.145
4543,-0.235,-0.145
4544,-0.235,-0.150
4545,-0.235,-0.155
4546,-0.235,-0.150
4547,-0.235,-0.145
4548,-0.230,-0.140
4549,-0.225,-0.135
4550,-0.225,-0.135
4551,-0.225,-0.135
4552,-0.225,-0.135
4553,-0.225,-0.135
4554,-0.225,-0.135
4555,-0.225,-0.135
4556,-0.225,-0.130
4557,-0.225,-0.125
4558,-0.225,-0.125
4559,-0.225,-0.125
4560,-0.225,-0.130
4561,-0.225,-0.135
4562,-0.225,-0.130
4563,-0.225,-0.125
4564,-0.225,-0.125
4565,-0.225,-0.125
4566,-0.220,-0.125
4567,-0.215,-0.125
4568,-0.220,-0.130
4569,-0.225,-0.135
4570,-0.220,-0.130
4571,-0.215,-0.125
4572,-0.220,-0.125
4573,-0.225,-0.125
4574,-0.225,-0.130
4575,-0.225,-0.135
4576,-0.225,-0.140
4577,-0.225,-0.145
4578,-0.225,-0.145
4579,-0.225,-0.145
4580,-0.225,-0.140
4581,-0.225,-0.140
4582,-0.230,-0.150
4583,-0.235,-0.155
4584,-0.235,-0.155
4585,-0.235,-0.155
4586,-0.235,-0.155
4587,-0.235,-0.155
4588,-0.235,-0.155
4589,-0.235,-0.155
4590,-0.235,-0.155
4591,-0.240,-0.160
4592,-0.245,-0.165
4593,-0.240,-0.165
4594,-0.235,-0.165
4595,-0.235,-0.165
4596,-0.235,-0.165
4597,-0.235,-0.160
4598,-0.230,-0.155
4599,-0.215,-0.155
4600,-0.195,-0.150
4601,-0.170,-0.135
4602,-0.150,-0.120
4603,-0.135,-0.100
4604,-0.125,-0.085
4605,-0.140,-0.080
4606,-0.135,-0.080
4607,-0.115,-0.090
4608,-0.085,-0.090
4609,-0.050,-0.075
4610,-0.040,-0.065
4611,-0.050,-0.070
4612,-0.070,-0.090
4613,-0.095,-0.115
4614,-0.095,-0.135
4615,-0.080,-0.160
4616,-0.075,-0.155
4617,-0.080,-0.140
4618,-0.105,-0.135
4619,-0.140,-0.135
4620,-0.180,-0.145
4621,-0.220,-0.160
4622,-0.225,-0.175
4623,-0.230,-0.190
4624,-0.235,-0.195
4625,-0.235,-0.195
4626,-0.225,-0.185
4627,-0.225,-0.185
4628,-0.225,-0.185
4629,-0.225,-0.185
4630,-0.230,-0.185
4631,-0.235,-0.185
4632,-0.230,-0.180
4633,-0.225,-0.175
4634,-0.225,-0.170
4635,-0.225,-0.165
4636,-0.225,-0.165
4637,-0.225,-0.165
4638,-0.225,-0.170
4639,-0.225,-0.175
4640,-0.220,-0.170
4641,-0.215,-0.165
4642,-0.210,-0.160
4643,-0.205,-0.155
4644,-0.205,-0.155
4645,-0.205,-0.155
4646,-0.190,-0.155
4647,-0.205,-0.150
4648,-0.245,-0.140
4649,-0.330,-0.115
4650,-0.445,-0.080
4651,-0.415,-0.015
4652,-0.275,0.075
4653,0.175,0.125
4654,0.790,0.155
4655,1.370,0.200
4656,1.930,0.250
4657,1.950,0.230
4658,1.780,0.180
4659,0.935,-0.120
4660,-0.085,-0.485
4661,-0.580,-0.910
4662,-0.980,-1.345
4663,-0.990,-1.475
4664,-0.950,-1.565
4665,-0.755,-1.405
4666,-0.550,-1.220
4667,-0.390,-0.960
4668,-0.235,-0.700
4669,-0.180,-0.470
4670,-0.125,-0.250
4671,-0.120,-0.155
4672,-0.115,-0.065
4673,-0.115,-0.035
4674,-0.115,-0.005
4675,-0.105,0.000
4676,-0.095,0.005
4677,-0.095,0.010
4678,-0.095,0.015
4679,-0.080,0.030
4680,-0.065,0.045
4681,-0.060,0.055
4682,-0.055,0.065
4683,-0.050,0.070
4684,-0.045,0.075
4685,-0.040,0.075
4686,-0.035,0.075
4687,-0.025,0.080
4688,-0.010,0.090
4689,0.000,0.105
4690,0.005,0.115
4691,0.010,0.120
4692,0.020,0.125
4693,0.030,0.125
4694,0.040,0.130
4695,0.060,0.140
4696,0.070,0.150
4697,0.080,0.160
4698,0.095,0.175
4699,0.110,0.190
4700,0.125,0.195
4701,0.140,0.200
4702,0.155,0.220
4703,0.170,0.240
4704,0.190,0.255
4705,0.210,0.270
4706,0.235,0.285
4707,0.260,0.300
4708,0.285,0.320
4709,0.315,0.345
4710,0.355,0.370
4711,0.395,0.395
4712,0.425,0.415
4713,0.455,0.435
4714,0.500,0.450
4715,0.535,0.465
4716,0.560,0.470
4717,0.585,0.475
4718,0.600,0.480
4719,0.615,0.485
4720,0.630,0.485
4721,0.645,0.480
4722,0.640,0.460
4723,0.630,0.435
4724,0.610,0.405
4725,0.575,0.375
4726,0.520,0.345
4727,0.460,0.305
4728,0.390,0.260
4729,0.320,0.215
4730,0.245,0.170
4731,0.170,0.125
4732,0.105,0.075
4733,0.050,0.040
4734,-0.005,0.010
4735,-0.040,-0.020
4736,-0.070,-0.045
4737,-0.105,-0.065
4738,-0.135,-0.085
4739,-0.155,-0.100
4740,-0.180,-0.110
4741,-0.185,-0.115
4742,-0.190,-0.120
4743,-0.195,-0.125
4744,-0.200,-0.130
4745,-0.205,-0.135
4746,-0.210,-0.135
4747,-0.215,-0.135
4748,-0.215,-0.140
4749,-0.215,-0.145
4750,-0.215,-0.145
4751,-0.215,-0.140
4752,-0.215,-0.135
4753,-0.215,-0.135
4754,-0.215,-0.135
4755,-0.215,-0.140
4756,-0.215,-0.145
4757,-0.215,-0.140
4758,-0.215,-0.135
4759,-0.210,-0.135
4760,-0.205,-0.135
4761,-0.205,-0.135
4762,-0.205,-0.135
4763,-0.205,-0.135
4764,-0.205,-0.135
4765,-0.205,-0.130
4766,-0.205,-0.125
4767,-0.200,-0.125
4768,-0.195,-0.125
4769,-0.195,-0.125
4770,-0.195,-0.125
4771,-0.195,-0.130
4772,-0.195,-0.135
4773,-0.190,-0.130
4774,-0.185,-0.125
4775,-0.185,-0.125
4776,-0.185,-0.125
4777,-0.185,-0.125
4778,-0.185,-0.125
4779,-0.185,-0.130
4780,-0.185,-0.135
4781,-0.185,-0.135
4782,-0.185,-0.135
4783,-0.190,-0.135
4784,-0.195,-0.135
4785,-0.195,-0.135
4786,-0.195,-0.135
4787,-0.200,-0.140
4788,-0.205,-0.145
4789,-0.205,-0.145
4790,-0.205,-0.145
4791,-0.205,-0.145
4792,-0.205,-0.150
4793,-0.205,-0.155
4794,-0.210,-0.155
4795,-0.215,-0.155
4796,-0.210,-0.155
4797,-0.205,-0.155
4798,-0.205,-0.155
4799,-0.205,-0.155
4800,-0.205,-0.155
4801,-0.205,-0.155
4802,-0.205,-0.160
4803,-0.205,-0.165
4804,-0.190,-0.155
4805,-0.170,-0.145
4806,-0.145,-0.135
4807,-0.125,-0.120
4808,-0.120,-0.105
4809,-0.115,-0.095
4810,-0.120,-0.095
4811,-0.115,-0.095
4812,-0.085,-0.095
4813,-0.055,-0.090
4814,-0.035,-0.075
4815,-0.030,-0.070
4816,-0.040,-0.080
4817,-0.055,-0.100
4818,-0.075,-0.125
4819,-0.075,-0.140
4820,-0.055,-0.150
4821,-0.045,-0.145
4822,-0.050,-0.130
4823,-0.080,-0.125
4824,-0.115,-0.130
4825,-0.160,-0.145
4826,-0.205,-0.160
4827,-0.215,-0.170
4828,-0.220,-0.180
4829,-0.225,-0.185
4830,-0.220,-0.180
4831,-0.215,-0.175
4832,-0.210,-0.175
4833,-0.205,-0.175
4834,-0.205,-0.185
4835,-0.205,-0.180
4836,-0.205,-0.175
4837,-0.205,-0.170
4838,-0.205,-0.165
4839,-0.210,-0.165
4840,-0.215,-0.165
4841,-0.215,-0.170
4842,-0.215,-0.175
4843,-0.215,-0.170
4844,-0.215,-0.165
4845,-0.205,-0.160
4846,-0.195,-0.155
4847,-0.195,-0.155
4848,-0.195,-0.155
4849,-0.190,-0.160
4850,-0.185,-0.165
4851,-0.175,-0.155
4852,-0.175,-0.145
4853,-0.205,-0.140
4854,-0.280,-0.125
4855,-0.395,-0.100
4856,-0.435,-0.050
4857,-0.385,0.020
4858,-0.090,0.080
4859,0.385,0.135
4860,0.995,0.185
4861,1.685,0.235
4862,1.960,0.255
4863,2.030,0.250
4864,1.365,0.025
4865,0.405,-0.280
4866,-0.265,-0.725
4867,-0.845,-1.210
4868,-0.960,-1.455
4869,-0.970,-1.645
4870,-0.780,-1.500
4871,-0.550,-1.295
4872,-0.390,-1.020
4873,-0.235,-0.740
4874,-0.170,-0.490
4875,-0.225,-0.725
4876,-0.100,-0.140
4877,-0.095,-0.045
4878,-0.090,-0.025
4879,-0.085,-0.005
4880,-0.085,0.000
4881,-0.085,0.005
4882,-0.075,0.015
4883,-0.065,0.025
4884,-0.060,0.035
4885,-0.055,0.045
4886,-0.055,0.055
4887,-0.055,0.065
4888,-0.045,0.065
4889,-0.035,0.065
4890,-0.030,0.075
4891,-0.025,0.085
4892,-0.015,0.095
4893,-0.005,0.105
4894,0.000,0.105
4895,0.005,0.105
4896,0.020,0.110
4897,0.030,0.120
4898,0.045,0.130
4899,0.060,0.140
4900,0.070,0.155
4901,0.080,0.165
4902,0.090,0.170
4903,0.105,0.180
4904,0.120,0.190
4905,0.135,0.205
4906,0.150,0.220
4907,0.170,0.240
4908,0.190,0.260
4909,0.210,0.270
4910,0.230,0.280
4911,0.250,0.300
4912,0.270,0.320
4913,0.300,0.340
4914,0.330,0.360
4915,0.365,0.385
4916,0.400,0.410
4917,0.440,0.430
4918,0.475,0.445
4919,0.510,0.460
4920,0.545,0.475
4921,0.575,0.490
4922,0.605,0.505
4923,0.625,0.510
4924,0.645,0.515
4925,0.655,0.510
4926,0.665,0.500
4927,0.660,0.470
4928,0.650,0.445
4929,0.620,0.430
4930,0.580,0.405
4931,0.525,0.365
4932,0.460,0.320
4933,0.385,0.270
4934,0.305,0.215
4935,0.230,0.160
4936,0.160,0.110
4937,0.100,0.075
4938,0.045,0.040
4939,0.000,0.005
4940,-0.040,-0.025
4941,-0.080,-0.045
4942,-0.105,-0.065
4943,-0.125,-0.085
4944,-0.145,-0.100
4945,-0.165,-0.110
4946,-0.180,-0.115
4947,-0.190,-0.120
4948,-0.195,-0.125
4949,-0.200,-0.130
4950,-0.205,-0.140
4951,-0.210,-0.150
4952,-0.215,-0.150
4953,-0.215,-0.140
4954,-0.215,-0.135
4955,-0.220,-0.135
4956,-0.225,-0.135
4957,-0.225,-0.140
4958,-0.225,-0.145
4959,-0.225,-0.145
4960,-0.225,-0.140
4961,-0.225,-0.135
4962,-0.220,-0.135
4963,-0.215,-0.135
4964,-0.215,-0.135
4965,-0.215,-0.135
4966,-0.215,-0.135
4967,-0.215,-0.135
4968,-0.215,-0.135
4969,-0.215,-0.135
4970,-0.215,-0.130
4971,-0.215,-0.125
4972,-0.215,-0.125
4973,-0.215,-0.125
4974,-0.215,-0.130
4975,-0.215,-0.135
4976,-0.210,-0.130
4977,-0.205,-0.125
4978,-0.200,-0.125
4979,-0.195,-0.125
4980,-0.195,-0.125
4981,-0.200,-0.125
4982,-0.210,-0.130
4983,-0.215,-0.135
4984,-0.210,-0.130
4985,-0.205,-0.125
4986,-0.205,-0.125
4987,-0.205,-0.125
4988,-0.210,-0.130
4989,-0.215,-0.135
4990,-0.220,-0.140
4991,-0.225,-0.145
4992,-0.220,-0.140
4993,-0.215,-0.135
4994,-0.215,-0.140
4995,-0.215,-0.145
4996,-0.220,-0.145
4997,-0.225,-0.145
4998,-0.230,-0.150
4999,-0.235,-0.155
5000,-0.235,-0.155
5001,-0.225,-0.150
5002,-0.225,-0.145
5003,-0.225,-0.150
5004,-0.225,-0.155
5005,-0.225,-0.160
5006,-0.225,-0.165
5007,-0.220,-0.155
5008,-0.210,-0.145
5009,-0.180,-0.140
5010,-0.155,-0.135
5011,-0.145,-0.120
5012,-0.135,-0.105
5013,-0.140,-0.100
5014,-0.140,-0.095
5015,-0.125,-0.095
5016,-0.110,-0.095
5017,-0.080,-0.090
5018,-0.065,-0.085
5019,-0.060,-0.085
5020,-0.060,-0.090
5021,-0.075,-0.105
5022,-0.085,-0.120
5023,-0.085,-0.130
5024,-0.080,-0.135
5025,-0.070,-0.140
5026,-0.070,-0.145
5027,-0.085,-0.140
5028,-0.125,-0.135
5029,-0.175,-0.140
5030,-0.205,-0.155
5031,-0.225,-0.175
5032,-0.235,-0.185
5033,-0.230,-0.180
5034,-0.225,-0.175
5035,-0.225,-0.175
5036,-0.225,-0.175
5037,-0.230,-0.180
5038,-0.235,-0.185
5039,-0.230,-0.185
5040,-0.225,-0.185
5041,-0.225,-0.180
5042,-0.225,-0.180
5043,-0.225,-0.185
5044,-0.230,-0.185
5045,-0.235,-0.185
5046,-0.235,-0.180
5047,-0.235,-0.175
5048,-0.230,-0.170
5049,-0.225,-0.165
5050,-0.220,-0.165
5051,-0.215,-0.165
5052,-0.215,-0.165
5053,-0.215,-0.165
5054,-0.210,-0.160
5055,-0.205,-0.155
5056,-0.195,-0.150
5057,-0.205,-0.145
5058,-0.275,-0.140
5059,-0.355,-0.125
5060,-0.455,-0.085
5061,-0.430,-0.030
5062,-0.240,0.060
5063,0.175,0.115
5064,0.820,0.140
5065,1.385,0.185
5066,1.890,0.240
5067,1.825,0.200
5068,1.365,0.080
5069,0.595,-0.245
5070,-0.340,-0.685
5071,-0.765,-1.110
5072,-0.960,-1.520
5073,-0.930,-1.595
5074,-0.815,-1.540
5075,-0.610,-1.335
5076,-0.385,-1.090
5077,-0.270,-0.795
5078,-0.180,-0.485
5079,-0.155,-0.305
5080,-0.140,-0.140
5081,-0.135,-0.085
5082,-0.130,-0.040
5083,-0.125,-0.025
5084,-0.115,-0.005
5085,-0.105,0.000
5086,-0.095,0.005
5087,-0.085,0.015
5088,-0.075,0.025
5089,-0.075,0.030
5090,-0.075,0.035
5091,-0.070,0.040
5092,-0.065,0.045
5093,-0.060,0.055
5094,-0.055,0.065
5095,-0.045,0.075
5096,-0.035,0.085
5097,-0.025,0.085
5098,-0.015,0.085
5099,-0.005,0.090
5100,0.005,0.095
5101,0.010,0.105
5102,0.015,0.115
5103,0.025,0.125
5104,0.040,0.135
5105,0.055,0.140
5106,0.070,0.145
5107,0.080,0.150
5108,0.090,0.160
5109,0.105,0.175
5110,0.130,0.190
5111,0.155,0.205
5112,0.170,0.225
5113,0.180,0.240
5114,0.195,0.250
5115,0.220,0.260
5116,0.250,0.280
5117,0.285,0.300
5118,0.315,0.325
5119,0.350,0.350
5120,0.390,0.370
5121,0.430,0.390
5122,0.465,0.405
5123,0.500,0.420
5124,0.525,0.435
5125,0.505,0.425
5126,0.585,0.460
5127,0.615,0.465
5128,0.630,0.465
5129,0.645,0.465
5130,0.645,0.455
5131,0.645,0.445
5132,0.640,0.430
5133,0.630,0.410
5134,0.590,0.380
5135,0.540,0.345
5136,0.470,0.300
5137,0.395,0.255
5138,0.315,0.200
5139,0.235,0.150
5140,0.170,0.100
5141,0.105,0.060
5142,0.045,0.030
5143,-0.010,0.000
5144,-0.060,-0.035
5145,-0.100,-0.065
5146,-0.135,-0.090
5147,-0.160,-0.110
5148,-0.175,-0.120
5149,-0.185,-0.125
5150,-0.190,-0.125
5151,-0.200,-0.130
5152,-0.210,-0.140
5153,-0.220,-0.150
5154,-0.230,-0.160
5155,-0.235,-0.165
5156,-0.235,-0.160
5157,-0.235,-0.155
5158,-0.235,-0.155
5159,-0.235,-0.155
5160,-0.235,-0.160
5161,-0.235,-0.165
5162,-0.235,-0.165
5163,-0.235,-0.165
5164,-0.235,-0.160
5165,-0.235,-0.155
5166,-0.235,-0.155
5167,-0.235,-0.155
5168,-0.235,-0.155
5169,-0.235,-0.155
5170,-0.235,-0.155
5171,-0.235,-0.150
5172,-0.235,-0.145
5173,-0.230,-0.145
5174,-0.225,-0.145
5175,-0.220,-0.145
5176,-0.215,-0.145
5177,-0.220,-0.145
5178,-0.225,-0.145
5179,-0.220,-0.145
5180,-0.215,-0.145
5181,-0.215,-0.140
5182,-0.215,-0.135
5183,-0.215,-0.140
5184,-0.215,-0.145
5185,-0.220,-0.150
5186,-0.225,-0.155
5187,-0.215,-0.155
5188,-0.205,-0.155
5189,-0.210,-0.150
5190,-0.220,-0.145
5191,-0.230,-0.145
5192,-0.235,-0.150
5193,-0.230,-0.160
5194,-0.225,-0.165
5195,-0.220,-0.160
5196,-0.215,-0.155
5197,-0.220,-0.155
5198,-0.225,-0.155
5199,-0.225,-0.155
5200,-0.225,-0.160
5201,-0.230,-0.170
5202,-0.235,-0.175
5203,-0.240,-0.175
5204,-0.240,-0.175
5205,-0.230,-0.170
5206,-0.225,-0.165
5207,-0.230,-0.165
5208,-0.235,-0.165
5209,-0.245,-0.175
5210,-0.240,-0.175
5211,-0.235,-0.175
5212,-0.230,-0.170
5213,-0.225,-0.165
5214,-0.200,-0.160
5215,-0.175,-0.155
5216,-0.165,-0.145
5217,-0.155,-0.135
5218,-0.150,-0.120
5219,-0.145,-0.105
5220,-0.140,-0.105
5221,-0.130,-0.105
5222,-0.100,-0.100
5223,-0.075,-0.095
5224,-0.065,-0.095
5225,-0.060,-0.100
5226,-0.075,-0.115
5227,-0.085,-0.130
5228,-0.090,-0.145
5229,-0.095,-0.155
5230,-0.080,-0.160
5231,-0.085,-0.165
5232,-0.105,-0.160
5233,-0.135,-0.155
5234,-0.175,-0.160
5235,-0.200,-0.175
5236,-0.210,-0.195
5237,-0.215,-0.205
5238,-0.220,-0.200
5239,-0.225,-0.200
5240,-0.225,-0.210
5241,-0.225,-0.215
5242,-0.225,-0.210
5243,-0.225,-0.205
5244,-0.230,-0.200
5245,-0.235,-0.195
5246,-0.240,-0.195
5247,-0.245,-0.195
5248,-0.245,-0.195
5249,-0.245,-0.195
5250,-0.245,-0.195
5251,-0.245,-0.185
5252,-0.245,-0.185
5253,-0.235,-0.185
5254,-0.225,-0.185
5255,-0.225,-0.190
5256,-0.225,-0.195
5257,-0.220,-0.185
5258,-0.215,-0.175
5259,-0.210,-0.175
5260,-0.205,-0.175
5261,-0.210,-0.175
5262,-0.235,-0.175
5263,-0.305,-0.165
5264,-0.375,-0.140
5265,-0.450,-0.095
5266,-0.420,-0.035
5267,-0.210,0.050
5268,0.165,0.105
5269,0.770,0.115
5270,1.310,0.130
5271,1.775,0.155
5272,1.810,0.130
5273,1.435,0.060
5274,0.695,-0.200
5275,-0.315,-0.605
5276,-0.835,-0.995
5277,-1.040,-1.370
5278,-1.055,-1.510
5279,-0.955,-1.520
5280,-0.755,-1.385
5281,-0.510,-1.180
5282,-0.355,-0.920
5283,-0.230,-0.645
5284,-0.180,-0.425
5285,-0.145,-0.220
5286,-0.135,-0.145
5287,-0.135,-0.095
5288,-0.125,-0.070
5289,-0.110,-0.050
5290,-0.105,-0.040
5291,-0.100,-0.030
5292,-0.090,-0.020
5293,-0.085,-0.015
5294,-0.080,-0.005
5295,-0.075,0.005
5296,-0.065,0.015
5297,-0.055,0.025
5298,-0.050,0.035
5299,-0.045,0.045
5300,-0.035,0.045
5301,-0.025,0.045
5302,-0.025,0.050
5303,-0.025,0.055
5304,-0.010,0.060
5305,0.005,0.065
5306,0.010,0.075
5307,0.020,0.085
5308,0.035,0.090
5309,0.045,0.095
5310,0.055,0.100
5311,0.070,0.105
5312,0.085,0.115
5313,0.100,0.130
5314,0.115,0.140
5315,0.130,0.150
5316,0.140,0.165
5317,0.160,0.180
5318,0.185,0.190
5319,0.210,0.205
5320,0.245,0.225
5321,0.270,0.245
5322,0.295,0.265
5323,0.330,0.285
5324,0.365,0.300
5325,0.395,0.310
5326,0.425,0.320
5327,0.460,0.345
5328,0.500,0.370
5329,0.530,0.385
5330,0.560,0.400
5331,0.580,0.405
5332,0.600,0.405
5333,0.615,0.405
5334,0.635,0.405
5335,0.640,0.395
5336,0.645,0.385
5337,0.630,0.365
5338,0.610,0.345
5339,0.565,0.320
5340,0.515,0.290
5341,0.450,0.245
5342,0.380,0.200
5343,0.300,0.160
5344,0.220,0.115
5345,0.155,0.075
5346,0.090,0.040
5347,0.030,0.010
5348,-0.030,-0.025
5349,-0.075,-0.060
5350,-0.115,-0.090
5351,-0.140,-0.105
5352,-0.160,-0.115
5353,-0.180,-0.125
5354,-0.195,-0.135
5355,-0.210,-0.150
5356,-0.215,-0.155
5357,-0.220,-0.160
5358,-0.230,-0.165
5359,-0.240,-0.165
5360,-0.245,-0.165
5361,-0.240,-0.165
5362,-0.235,-0.165
5363,-0.240,-0.165
5364,-0.245,-0.165
5365,-0.245,-0.165
5366,-0.245,-0.165
5367,-0.240,-0.165
5368,-0.235,-0.165
5369,-0.240,-0.160
5370,-0.245,-0.155
5371,-0.240,-0.155
5372,-0.235,-0.155
5373,-0.240,-0.160
5374,-0.245,-0.165
5375,-0.245,-0.165
5376,-0.230,-0.155
5377,-0.225,-0.155
5378,-0.230,-0.155
5379,-0.235,-0.155
5380,-0.240,-0.155
5381,-0.245,-0.155
5382,-0.240,-0.155
5383,-0.235,-0.155
5384,-0.235,-0.150
5385,-0.235,-0.145
5386,-0.235,-0.145
5387,-0.235,-0.145
5388,-0.235,-0.150
5389,-0.235,-0.155
5390,-0.230,-0.150
5391,-0.225,-0.145
5392,-0.230,-0.145
5393,-0.235,-0.145
5394,-0.235,-0.150
5395,-0.235,-0.155
5396,-0.240,-0.160
5397,-0.245,-0.165
5398,-0.245,-0.165
5399,-0.245,-0.165
5400,-0.245,-0.165
5401,-0.245,-0.165
5402,-0.250,-0.170
5403,-0.255,-0.175
5404,-0.260,-0.175
5405,-0.265,-0.175
5406,-0.260,-0.175
5407,-0.255,-0.175
5408,-0.255,-0.175
5409,-0.255,-0.175
5410,-0.260,-0.180
5411,-0.265,-0.185
5412,-0.265,-0.185
5413,-0.265,-0.185
5414,-0.260,-0.185
5415,-0.255,-0.185
5416,-0.255,-0.180
5417,-0.255,-0.175
5418,-0.255,-0.175
5419,-0.240,-0.180
5420,-0.225,-0.185
5421,-0.205,-0.175
5422,-0.185,-0.165
5423,-0.170,-0.145
5424,-0.155,-0.125
5425,-0.160,-0.120
5426,-0.165,-0.115
5427,-0.145,-0.125
5428,-0.120,-0.135
5429,-0.090,-0.120
5430,-0.065,-0.105
5431,-0.075,-0.110
5432,-0.090,-0.120
5433,-0.110,-0.140
5434,-0.120,-0.160
5435,-0.105,-0.180
5436,-0.095,-0.190
5437,-0.100,-0.175
5438,-0.120,-0.165
5439,-0.150,-0.165
5440,-0.190,-0.170
5441,-0.235,-0.180
5442,-0.255,-0.195
5443,-0.260,-0.215
5444,-0.265,-0.220
5445,-0.260,-0.210
5446,-0.255,-0.205
5447,-0.255,-0.210
5448,-0.255,-0.215
5449,-0.250,-0.215
5450,-0.245,-0.215
5451,-0.250,-0.215
5452,-0.255,-0.215
5453,-0.250,-0.210
5454,-0.245,-0.205
5455,-0.245,-0.205
5456,-0.245,-0.205
5457,-0.250,-0.200
5458,-0.255,-0.195
5459,-0.245,-0.195
5460,-0.240,-0.195
5461,-0.235,-0.195
5462,-0.230,-0.190
5463,-0.225,-0.185
5464,-0.225,-0.180
5465,-0.225,-0.175
5466,-0.215,-0.180
5467,-0.205,-0.185
5468,-0.220,-0.180
5469,-0.260,-0.170
5470,-0.375,-0.150
5471,-0.455,-0.120
5472,-0.465,-0.050
5473,-0.350,0.015
5474,0.025,0.080
5475,0.540,0.135
5476,1.270,0.160
5477,1.770,0.185
5478,1.970,0.215
5479,1.685,0.130
5480,0.870,-0.095
5481,0.100,-0.440
5482,-0.635,-0.885
5483,-0.965,-1.245
5484,-1.005,-1.540
5485,-0.905,-1.565
5486,-0.705,-1.415
5487,-0.510,-1.190
5488,-0.320,-0.930
5489,-0.225,-0.650
5490,-0.170,-0.365
5491,-0.150,-0.220
5492,-0.140,-0.115
5493,-0.135,-0.075
5494,-0.130,-0.040
5495,-0.120,-0.035
5496,-0.110,-0.030
5497,-0.105,-0.020
5498,-0.110,-0.010
5499,-0.105,0.000
5500,-0.115,-0.005
5501,-0.075,0.025
5502,-0.065,0.035
5503,-0.055,0.040
5504,-0.045,0.045
5505,-0.045,0.045
5506,-0.045,0.045
5507,-0.040,0.055
5508,-0.035,0.065
5509,-0.025,0.075
5510,-0.015,0.085
5511,-0.010,0.090
5512,-0.005,0.095
5513,0.005,0.095
5514,0.015,0.100
5515,0.025,0.115
5516,0.040,0.125
5517,0.055,0.130
5518,0.065,0.135
5519,0.075,0.145
5520,0.090,0.155
5521,0.105,0.170
5522,0.125,0.185
5523,0.145,0.205
5524,0.165,0.220
5525,0.185,0.235
5526,0.210,0.255
5527,0.235,0.275
5528,0.260,0.295
5529,0.285,0.310
5530,0.320,0.325
5531,0.355,0.345
5532,0.385,0.370
5533,0.415,0.390
5534,0.450,0.410
5535,0.485,0.430
5536,0.515,0.435
5537,0.540,0.440
5538,0.570,0.450
5539,0.600,0.460
5540,0.615,0.465
5541,0.630,0.470
5542,0.635,0.460
5543,0.635,0.445
5544,0.620,0.420
5545,0.605,0.395
5546,0.565,0.365
5547,0.520,0.330
5548,0.445,0.290
5549,0.375,0.250
5550,0.305,0.205
5551,0.230,0.155
5552,0.160,0.105
5553,0.095,0.060
5554,0.050,0.030
5555,0.005,0.000
5556,-0.045,-0.035
5557,-0.085,-0.060
5558,-0.120,-0.080
5559,-0.150,-0.100
5560,-0.170,-0.115
5561,-0.185,-0.125
5562,-0.190,-0.130
5563,-0.200,-0.135
5564,-0.210,-0.140
5565,-0.215,-0.145
5566,-0.220,-0.150
5567,-0.225,-0.155
5568,-0.225,-0.160
5569,-0.225,-0.165
5570,-0.225,-0.160
5571,-0.225,-0.155
5572,-0.220,-0.150
5573,-0.215,-0.145
5574,-0.220,-0.150
5575,-0.225,-0.155
5576,-0.225,-0.160
5577,-0.225,-0.165
5578,-0.230,-0.160
5579,-0.235,-0.155
5580,-0.230,-0.150
5581,-0.225,-0.145
5582,-0.225,-0.145
5583,-0.225,-0.145
5584,-0.225,-0.155
5585,-0.220,-0.150
5586,-0.215,-0.145
5587,-0.210,-0.140
5588,-0.205,-0.135
5589,-0.210,-0.140
5590,-0.215,-0.145
5591,-0.210,-0.145
5592,-0.205,-0.145
5593,-0.205,-0.145
5594,-0.205,-0.145
5595,-0.200,-0.140
5596,-0.195,-0.135
5597,-0.200,-0.135
5598,-0.205,-0.135
5599,-0.205,-0.140
5600,-0.205,-0.145
5601,-0.200,-0.145
5602,-0.195,-0.145
5603,-0.200,-0.145
5604,-0.205,-0.145
5605,-0.205,-0.150
5606,-0.205,-0.155
5607,-0.210,-0.160
5608,-0.215,-0.165
5609,-0.215,-0.160
5610,-0.215,-0.155
5611,-0.215,-0.155
5612,-0.215,-0.155
5613,-0.220,-0.160
5614,-0.225,-0.165
5615,-0.220,-0.170
5616,-0.215,-0.175
5617,-0.215,-0.170
5618,-0.215,-0.165
5619,-0.215,-0.165
5620,-0.215,-0.165
5621,-0.215,-0.170
5622,-0.215,-0.175
5623,-0.215,-0.175
5624,-0.215,-0.175
5625,-0.215,-0.175
5626,-0.180,-0.155
5627,-0.155,-0.145
5628,-0.145,-0.135
5629,-0.135,-0.125
5630,-0.130,-0.115
5631,-0.125,-0.105
5632,-0.120,-0.100
5633,-0.115,-0.095
5634,-0.085,-0.100
5635,-0.065,-0.105
5636,-0.040,-0.095
5637,-0.025,-0.085
5638,-0.040,-0.100
5639,-0.060,-0.115
5640,-0.075,-0.125
5641,-0.080,-0.135
5642,-0.060,-0.145
5643,-0.050,-0.155
5644,-0.065,-0.145
5645,-0.095,-0.135
5646,-0.140,-0.140
5647,-0.175,-0.150
5648,-0.200,-0.165
5649,-0.215,-0.175
5650,-0.220,-0.180
5651,-0.225,-0.185
5652,-0.220,-0.185
5653,-0.215,-0.185
5654,-0.215,-0.190
5655,-0.215,-0.195
5656,-0.210,-0.190
5657,-0.205,-0.185
5658,-0.205,-0.185
5659,-0.205,-0.185
5660,-0.205,-0.180
5661,-0.205,-0.175
5662,-0.200,-0.180
5663,-0.195,-0.185
5664,-0.195,-0.180
5665,-0.195,-0.175
5666,-0.200,-0.175
5667,-0.200,-0.170
5668,-0.195,-0.165
5669,-0.195,-0.165
5670,-0.195,-0.165
5671,-0.190,-0.160
5672,-0.185,-0.155
5673,-0.175,-0.155
5674,-0.175,-0.155
5675,-0.235,-0.145
5676,-0.305,-0.130
5677,-0.420,-0.105
5678,-0.475,-0.065
5679,-0.350,0.030
5680,-0.100,0.105
5681,0.440,0.140
5682,1.015,0.180
5683,1.655,0.225
5684,2.020,0.250
5685,1.975,0.235
5686,1.480,0.080
5687,0.450,-0.250
5688,-0.295,-0.655
5689,-0.760,-1.135
5690,-0.965,-1.440
5691,-0.945,-1.600
5692,-0.775,-1.535
5693,-0.505,-1.310
5694,-0.330,-1.020
5695,-0.215,-0.690
5696,-0.155,-0.440
5697,-0.115,-0.225
5698,-0.105,-0.120
5699,-0.105,-0.060
5700,-0.105,-0.040
5701,-0.100,-0.030
5702,-0.090,-0.015
5703,-0.080,0.000
5704,-0.070,0.010
5705,-0.060,0.020
5706,-0.055,0.030
5707,-0.055,0.040
5708,-0.055,0.045
5709,-0.045,0.045
5710,-0.035,0.060
5711,-0.025,0.075
5712,-0.015,0.080
5713,-0.005,0.085
5714,0.000,0.090
5715,0.005,0.095
5716,0.015,0.100
5717,0.025,0.105
5718,0.035,0.115
5719,0.045,0.125
5720,0.050,0.135
5721,0.055,0.145
5722,0.065,0.145
5723,0.075,0.145
5724,0.085,0.155
5725,0.100,0.165
5726,0.120,0.175
5727,0.140,0.190
5728,0.155,0.205
5729,0.165,0.215
5730,0.180,0.230
5731,0.195,0.240
5732,0.215,0.255
5733,0.235,0.275
5734,0.265,0.295
5735,0.290,0.315
5736,0.320,0.335
5737,0.355,0.355
5738,0.385,0.375
5739,0.415,0.395
5740,0.445,0.410
5741,0.480,0.430
5742,0.515,0.460
5743,0.550,0.470
5744,0.585,0.480
5745,0.615,0.490
5746,0.640,0.500
5747,0.655,0.505
5748,0.670,0.505
5749,0.675,0.500
5750,0.675,0.505
5751,0.680,0.470
5752,0.675,0.455
5753,0.640,0.420
5754,0.600,0.385
5755,0.525,0.345
5756,0.445,0.300
5757,0.360,0.235
5758,0.270,0.180
5759,0.190,0.125
5760,0.115,0.080
5761,0.065,0.035
5762,0.015,0.000
5763,-0.025,-0.030
5764,-0.065,-0.060
5765,-0.095,-0.075
5766,-0.120,-0.085
5767,-0.140,-0.095
5768,-0.155,-0.110
5769,-0.165,-0.125
5770,-0.175,-0.135
5771,-0.190,-0.140
5772,-0.195,-0.145
5773,-0.195,-0.150
5774,-0.195,-0.155
5775,-0.195,-0.150
5776,-0.200,-0.145
5777,-0.210,-0.145
5778,-0.215,-0.150
5779,-0.220,-0.160
5780,-0.225,-0.160
5781,-0.220,-0.150
5782,-0.215,-0.145
5783,-0.215,-0.145
5784,-0.215,-0.145
5785,-0.215,-0.150
5786,-0.215,-0.155
5787,-0.220,-0.150
5788,-0.225,-0.145
5789,-0.220,-0.145
5790,-0.215,-0.145
5791,-0.215,-0.140
5792,-0.215,-0.135
5793,-0.215,-0.135
5794,-0.210,-0.140
5795,-0.205,-0.145
5796,-0.205,-0.140
5797,-0.205,-0.135
5798,-0.205,-0.130
5799,-0.205,-0.125
5800,-0.205,-0.130
5801,-0.205,-0.135
5802,-0.205,-0.140
5803,-0.205,-0.145
5804,-0.205,-0.140
5805,-0.205,-0.135
5806,-0.205,-0.135
5807,-0.205,-0.135
5808,-0.200,-0.135
5809,-0.195,-0.135
5810,-0.200,-0.140
5811,-0.205,-0.145
5812,-0.205,-0.140
5813,-0.205,-0.135
5814,-0.205,-0.135
5815,-0.205,-0.135
5816,-0.210,-0.140
5817,-0.215,-0.145
5818,-0.215,-0.150
5819,-0.215,-0.155
5820,-0.215,-0.150
5821,-0.215,-0.145
5822,-0.215,-0.145
5823,-0.215,-0.145
5824,-0.215,-0.150
5825,-0.215,-0.155
5826,-0.215,-0.155
5827,-0.215,-0.155
5828,-0.210,-0.155
5829,-0.205,-0.155
5830,-0.205,-0.150
5831,-0.205,-0.145
5832,-0.210,-0.150
5833,-0.215,-0.155
5834,-0.205,-0.155
5835,-0.205,-0.150
5836,-0.205,-0.145
5837,-0.190,-0.140
5838,-0.175,-0.135
5839,-0.155,-0.130
5840,-0.135,-0.125
5841,-0.125,-0.110
5842,-0.115,-0.095
5843,-0.115,-0.085
5844,-0.110,-0.075
5845,-0.090,-0.075
5846,-0.070,-0.075
5847,-0.050,-0.070
5848,-0.035,-0.065
5849,-0.035,-0.070
5850,-0.040,-0.075
5851,-0.055,-0.085
5852,-0.065,-0.105
5853,-0.060,-0.130
5854,-0.055,-0.145
5855,-0.055,-0.130
5856,-0.070,-0.125
5857,-0.100,-0.125
5858,-0.140,-0.125
5859,-0.185,-0.125
5860,-0.205,-0.135
5861,-0.210,-0.155
5862,-0.215,-0.165
5863,-0.215,-0.160
5864,-0.215,-0.155
5865,-0.215,-0.160
5866,-0.215,-0.165
5867,-0.210,-0.165
5868,-0.205,-0.165
5869,-0.205,-0.165
5870,-0.205,-0.165
5871,-0.210,-0.165
5872,-0.215,-0.165
5873,-0.215,-0.170
5874,-0.215,-0.175
5875,-0.215,-0.175
5876,-0.205,-0.155
5877,-0.205,-0.145
5878,-0.205,-0.145
5879,-0.205,-0.145
5880,-0.195,-0.145
5881,-0.185,-0.145
5882,-0.180,-0.140
5883,-0.175,-0.135
5884,-0.175,-0.135
5885,-0.175,-0.135
5886,-0.180,-0.135
5887,-0.215,-0.135
5888,-0.335,-0.120
5889,-0.420,-0.085
5890,-0.435,-0.020
5891,-0.305,0.050
5892,0.075,0.130
5893,0.590,0.185
5894,1.295,0.210
5895,1.790,0.235
5896,2.035,0.270
5897,1.765,0.170
5898,1.010,-0.055
5899,0.265,-0.405
5900,-0.465,-0.855
5901,-0.825,-1.245
5902,-0.940,-1.595
5903,-0.870,-1.625
5904,-0.690,-1.490
5905,-0.500,-1.240
5906,-0.305,-0.950
5907,-0.210,-0.660
5908,-0.140,-0.365
5909,-0.120,-0.205
5910,-0.110,-0.075
5911,-0.105,-0.035
5912,-0.105,-0.010
5913,-0.105,0.000
5914,-0.100,0.010
5915,-0.095,0.015
5916,-0.095,0.020
5917,-0.085,0.035
5918,-0.075,0.045
5919,-0.070,0.045
5920,-0.065,0.045
5921,-0.055,0.065
5922,-0.045,0.085
5923,-0.040,0.090
5924,-0.035,0.095
5925,-0.030,0.100
5926,-0.025,0.105
5927,-0.020,0.105
5928,-0.015,0.105
5929,0.000,0.115
5930,0.015,0.125
5931,0.020,0.135
5932,0.025,0.145
5933,0.030,0.155
5934,0.035,0.165
5935,0.045,0.170
5936,0.055,0.175
5937,0.065,0.185
5938,0.085,0.200
5939,0.105,0.210
5940,0.120,0.220
5941,0.130,0.235
5942,0.140,0.250
5943,0.155,0.260
5944,0.180,0.275
5945,0.205,0.295
5946,0.230,0.315
5947,0.255,0.335
5948,0.280,0.360
5949,0.305,0.380
5950,0.340,0.400
5951,0.375,0.420
5952,0.415,0.435
5953,0.455,0.450
5954,0.490,0.470
5955,0.520,0.490
5956,0.545,0.500
5957,0.570,0.510
5958,0.590,0.515
5959,0.615,0.515
5960,0.630,0.515
5961,0.645,0.515
5962,0.655,0.500
5963,0.665,0.485
5964,0.640,0.465
5965,0.610,0.440
5966,0.560,0.400
5967,0.505,0.360
5968,0.430,0.310
5969,0.360,0.265
5970,0.280,0.215
5971,0.205,0.165
5972,0.130,0.120
5973,0.060,0.075
5974,0.000,0.030
5975,-0.045,-0.005
5976,-0.080,-0.035
5977,-0.115,-0.055
5978,-0.140,-0.065
5979,-0.160,-0.080
5980,-0.185,-0.095
5981,-0.195,-0.110
5982,-0.200,-0.120
5983,-0.210,-0.125
5984,-0.220,-0.130
5985,-0.225,-0.135
5986,-0.230,-0.135
5987,-0.235,-0.135
5988,-0.230,-0.135
5989,-0.230,-0.135
5990,-0.240,-0.140
5991,-0.245,-0.145
5992,-0.245,-0.140
5993,-0.245,-0.135
5994,-0.240,-0.135
5995,-0.235,-0.135
5996,-0.240,-0.130
5997,-0.245,-0.125
5998,-0.240,-0.130
5999,-0.235,-0.135
6000,-0.235,-0.135
6001,-0.230,-0.125
6002,-0.225,-0.115
6003,-0.230,-0.120
6004,-0.235,-0.125
6005,-0.230,-0.125
6006,-0.225,-0.125
6007,-0.225,-0.125
6008,-0.225,-0.125
6009,-0.220,-0.125
6010,-0.215,-0.125
6011,-0.220,-0.125
6012,-0.225,-0.125
6013,-0.225,-0.125
6014,-0.225,-0.125
6015,-0.225,-0.130
6016,-0.225,-0.135
6017,-0.225,-0.130
6018,-0.225,-0.125
6019,-0.225,-0.125
6020,-0.225,-0.125
6021,-0.240,-0.130
6022,-0.245,-0.135
6023,-0.245,-0.130
6024,-0.240,-0.125
6025,-0.230,-0.125
6026,-0.225,-0.125
6027,-0.230,-0.130
6028,-0.235,-0.135
6029,-0.240,-0.140
6030,-0.245,-0.145
6031,-0.245,-0.145
6032,-0.245,-0.145
6033,-0.245,-0.145
6034,-0.245,-0.145
6035,-0.245,-0.150
6036,-0.245,-0.155
6037,-0.250,-0.155
6038,-0.255,-0.155
6039,-0.250,-0.155
6040,-0.245,-0.155
6041,-0.245,-0.150
6042,-0.250,-0.150
6043,-0.255,-0.155
6044,-0.255,-0.160
6045,-0.255,-0.165
6046,-0.245,-0.160
6047,-0.235,-0.155
6048,-0.235,-0.150
6049,-0.235,-0.145
6050,-0.240,-0.150
6051,-0.245,-0.155
6052,-0.245,-0.155
6053,-0.245,-0.155
6054,-0.240,-0.150
6055,-0.235,-0.145
6056,-0.235,-0.145
6057,-0.230,-0.145
6058,-0.215,-0.145
6059,-0.200,-0.145
6060,-0.180,-0.140
6061,-0.165,-0.130
6062,-0.155,-0.110
6063,-0.145,-0.090
6064,-0.140,-0.080
6065,-0.125,-0.075
6066,-0.105,-0.075
6067,-0.080,-0.075
6068,-0.050,-0.070
6069,-0.040,-0.065
6070,-0.060,-0.060
6071,-0.080,-0.070
6072,-0.105,-0.095
6073,-0.095,-0.120
6074,-0.065,-0.140
6075,-0.070,-0.140
6076,-0.090,-0.130
6077,-0.135,-0.125
6078,-0.185,-0.125
6079,-0.215,-0.140
6080,-0.240,-0.160
6081,-0.245,-0.165
6082,-0.245,-0.170
6083,-0.245,-0.175
6084,-0.245,-0.185
6085,-0.235,-0.185
6086,-0.225,-0.185
6087,-0.230,-0.180
6088,-0.235,-0.175
6089,-0.240,-0.175
6090,-0.245,-0.175
6091,-0.245,-0.175
6092,-0.245,-0.175
6093,-0.245,-0.170
6094,-0.245,-0.165
6095,-0.245,-0.165
6096,-0.245,-0.165
6097,-0.245,-0.160
6098,-0.245,-0.155
6099,-0.240,-0.160
6100,-0.235,-0.165
6101,-0.230,-0.160
6102,-0.225,-0.155
6103,-0.220,-0.150
6104,-0.215,-0.145
6105,-0.200,-0.145
6106,-0.220,-0.145
6107,-0.280,-0.140
6108,-0.360,-0.115
6109,-0.465,-0.075
6110,-0.420,-0.005
6111,-0.275,0.085
6112,0.135,0.120
6113,0.670,0.130
6114,1.230,0.160
6115,1.800,0.195
6116,1.805,0.165
6117,1.630,0.110
6118,0.795,-0.200
6119,-0.195,-0.570
6120,-0.655,-0.970
6121,-1.025,-1.375
6122,-1.015,-1.495
6123,-0.960,-1.590
6124,-0.750,-1.415
6125,-0.955,-1.595
6126,-0.380,-0.945
6127,-0.235,-0.665
6128,-0.185,-0.430
6129,-0.135,-0.210
6130,-0.135,-0.135
6131,-0.135,-0.065
6132,-0.135,-0.030
6133,-0.135,-0.005
6134,-0.130,0.005
6135,-0.125,0.015
6136,-0.115,0.020
6137,-0.105,0.025
6138,-0.100,0.030
6139,-0.095,0.040
6140,-0.090,0.055
6141,-0.085,0.065
6142,-0.075,0.065
6143,-0.065,0.065
6144,-0.055,0.070
6145,-0.045,0.075
6146,-0.040,0.080
6147,-0.030,0.090
6148,-0.015,0.100
6149,0.000,0.110
6150,0.010,0.120
6151,0.015,0.125
6152,0.020,0.125
6153,0.030,0.125
6154,0.040,0.125
6155,0.055,0.135
6156,0.070,0.155
6157,0.085,0.170
6158,0.100,0.180
6159,0.115,0.190
6160,0.130,0.200
6161,0.145,0.210
6162,0.160,0.220
6163,0.180,0.240
6164,0.200,0.260
6165,0.225,0.280
6166,0.250,0.300
6167,0.285,0.320
6168,0.315,0.335
6169,0.345,0.350
6170,0.375,0.365
6171,0.410,0.385
6172,0.445,0.405
6173,0.485,0.415
6174,0.520,0.425
6175,0.550,0.440
6176,0.575,0.455
6177,0.590,0.450
6178,0.605,0.445
6179,0.620,0.450
6180,0.635,0.450
6181,0.630,0.430
6182,0.620,0.410
6183,0.605,0.390
6184,0.575,0.360
6185,0.520,0.320
6186,0.455,0.285
6187,0.385,0.255
6188,0.310,0.215
6189,0.230,0.170
6190,0.160,0.120
6191,0.095,0.075
6192,0.035,0.035
6193,-0.020,0.000
6194,-0.065,-0.025
6195,-0.100,-0.045
6196,-0.125,-0.065
6197,-0.145,-0.080
6198,-0.170,-0.090
6199,-0.190,-0.100
6200,-0.205,-0.115
6201,-0.220,-0.130
6202,-0.225,-0.135
6203,-0.230,-0.135
6204,-0.235,-0.135
6205,-0.230,-0.135
6206,-0.225,-0.135
6207,-0.230,-0.140
6208,-0.240,-0.145
6209,-0.255,-0.145
6210,-0.250,-0.150
6211,-0.245,-0.155
6212,-0.245,-0.150
6213,-0.245,-0.145
6214,-0.245,-0.140
6215,-0.245,-0.135
6216,-0.245,-0.140
6217,-0.245,-0.145
6218,-0.235,-0.140
6219,-0.225,-0.135
6220,-0.230,-0.135
6221,-0.235,-0.135
6222,-0.235,-0.135
6223,-0.235,-0.135
6224,-0.235,-0.140
6225,-0.235,-0.145
6226,-0.230,-0.135
6227,-0.225,-0.125
6228,-0.230,-0.125
6229,-0.235,-0.125
6230,-0.230,-0.130
6231,-0.225,-0.135
6232,-0.230,-0.135
6233,-0.235,-0.135
6234,-0.230,-0.135
6235,-0.225,-0.135
6236,-0.230,-0.135
6237,-0.235,-0.135
6238,-0.230,-0.140
6239,-0.225,-0.145
6240,-0.230,-0.145
6241,-0.235,-0.145
6242,-0.235,-0.145
6243,-0.235,-0.145
6244,-0.240,-0.145
6245,-0.245,-0.145
6246,-0.240,-0.150
6247,-0.235,-0.155
6248,-0.240,-0.160
6249,-0.245,-0.165
6250,-0.245,-0.165
6251,-0.255,-0.155
6252,-0.255,-0.155
6253,-0.260,-0.160
6254,-0.265,-0.165
6255,-0.265,-0.170
6256,-0.265,-0.175
6257,-0.260,-0.170
6258,-0.255,-0.165
6259,-0.250,-0.165
6260,-0.245,-0.165
6261,-0.250,-0.165
6262,-0.255,-0.165
6263,-0.255,-0.170
6264,-0.255,-0.175
6265,-0.250,-0.170
6266,-0.245,-0.165
6267,-0.245,-0.160
6268,-0.240,-0.155
6269,-0.220,-0.155
6270,-0.200,-0.155
6271,-0.175,-0.150
6272,-0.165,-0.135
6273,-0.165,-0.115
6274,-0.160,-0.100
6275,-0.150,-0.090
6276,-0.125,-0.085
6277,-0.090,-0.090
6278,-0.075,-0.095
6279,-0.070,-0.090
6280,-0.075,-0.095
6281,-0.090,-0.110
6282,-0.100,-0.125
6283,-0.110,-0.140
6284,-0.100,-0.145
6285,-0.080,-0.150
6286,-0.095,-0.150
6287,-0.120,-0.140
6288,-0.165,-0.135
6289,-0.210,-0.135
6290,-0.225,-0.155
6291,-0.240,-0.180
6292,-0.250,-0.185
6293,-0.255,-0.185
6294,-0.255,-0.190
6295,-0.255,-0.195
6296,-0.250,-0.195
6297,-0.245,-0.195
6298,-0.245,-0.190
6299,-0.245,-0.185
6300,-0.250,-0.190
6301,-0.255,-0.195
6302,-0.260,-0.190
6303,-0.265,-0.185
6304,-0.255,-0.185
6305,-0.245,-0.185
6306,-0.245,-0.180
6307,-0.245,-0.175
6308,-0.245,-0.175
6309,-0.245,-0.175
6310,-0.240,-0.175
6311,-0.235,-0.175
6312,-0.230,-0.170
6313,-0.225,-0.165
6314,-0.220,-0.165
6315,-0.210,-0.165
6316,-0.200,-0.165
6317,-0.205,-0.165
6318,-0.225,-0.160
6319,-0.290,-0.140
6320,-0.385,-0.105
6321,-0.420,-0.045
6322,-0.430,0.030
6323,-0.190,0.090
6324,0.150,0.140
6325,0.755,0.155
6326,1.435,0.150
6327,1.750,0.145
6328,1.990,0.145
6329,1.300,-0.060
6330,0.470,-0.295
6331,-0.265,-0.710
6332,-1.000,-1.140
6333,-1.050,-1.360
6334,-1.085,-1.575
6335,-0.945,-1.455
6336,-0.805,-1.325
6337,-0.565,-1.095
6338,-0.350,-0.860
6339,-0.260,-0.590
6340,-0.185,-0.345
6341,-0.160,-0.215
6342,-0.135,-0.100
6343,-0.130,-0.060
6344,-0.125,-0.025
6345,-0.115,-0.015
6346,-0.105,-0.005
6347,-0.100,-0.005
6348,-0.095,-0.005
6349,-0.090,0.005
6350,-0.085,0.015
6351,-0.075,0.025
6352,-0.065,0.040
6353,-0.060,0.055
6354,-0.055,0.065
6355,-0.050,0.065
6356,-0.040,0.065
6357,-0.030,0.065
6358,-0.020,0.070
6359,-0.010,0.080
6360,0.000,0.090
6361,0.010,0.100
6362,0.020,0.105
6363,0.030,0.105
6364,0.035,0.105
6365,0.040,0.110
6366,0.055,0.125
6367,0.070,0.140
6368,0.085,0.150
6369,0.100,0.160
6370,0.120,0.170
6371,0.140,0.180
6372,0.155,0.190
6373,0.170,0.200
6374,0.190,0.220
6375,0.175,0.205
6376,0.245,0.265
6377,0.275,0.285
6378,0.295,0.300
6379,0.315,0.315
6380,0.350,0.330
6381,0.390,0.345
6382,0.430,0.365
6383,0.470,0.385
6384,0.505,0.405
6385,0.540,0.425
6386,0.565,0.425
6387,0.585,0.425
6388,0.600,0.435
6389,0.620,0.445
6390,0.640,0.440
6391,0.655,0.435
6392,0.655,0.425
6393,0.650,0.405
6394,0.630,0.380
6395,0.595,0.350
6396,0.540,0.315
6397,0.480,0.275
6398,0.410,0.235
6399,0.335,0.195
6400,0.255,0.160
6401,0.185,0.120
6402,0.120,0.075
6403,0.055,0.030
6404,-0.015,-0.010
6405,-0.060,-0.035
6406,-0.100,-0.055
6407,-0.130,-0.075
6408,-0.150,-0.090
6409,-0.170,-0.105
6410,-0.190,-0.120
6411,-0.195,-0.130
6412,-0.200,-0.140
6413,-0.205,-0.145
6414,-0.210,-0.140
6415,-0.215,-0.135
6416,-0.220,-0.140
6417,-0.230,-0.145
6418,-0.235,-0.145
6419,-0.235,-0.150
6420,-0.235,-0.155
6421,-0.235,-0.150
6422,-0.235,-0.145
6423,-0.230,-0.145
6424,-0.225,-0.145
6425,-0.225,-0.145
6426,-0.225,-0.145
6427,-0.225,-0.145
6428,-0.225,-0.145
6429,-0.220,-0.140
6430,-0.215,-0.135
6431,-0.215,-0.130
6432,-0.215,-0.125
6433,-0.215,-0.130
6434,-0.215,-0.135
6435,-0.215,-0.135
6436,-0.215,-0.135
6437,-0.210,-0.130
6438,-0.205,-0.125
6439,-0.205,-0.125
6440,-0.205,-0.125
6441,-0.200,-0.125
6442,-0.195,-0.125
6443,-0.200,-0.130
6444,-0.205,-0.135
6445,-0.205,-0.135
6446,-0.205,-0.135
6447,-0.205,-0.130
6448,-0.205,-0.125
6449,-0.210,-0.125
6450,-0.215,-0.125
6451,-0.215,-0.130
6452,-0.215,-0.135
6453,-0.215,-0.135
6454,-0.215,-0.135
6455,-0.210,-0.130
6456,-0.205,-0.125
6457,-0.210,-0.130
6458,-0.220,-0.135
6459,-0.235,-0.145
6460,-0.230,-0.150
6461,-0.225,-0.155
6462,-0.225,-0.150
6463,-0.225,-0.145
6464,-0.225,-0.145
6465,-0.225,-0.145
6466,-0.225,-0.150
6467,-0.225,-0.155
6468,-0.225,-0.160
6469,-0.225,-0.165
6470,-0.225,-0.160
6471,-0.225,-0.155
6472,-0.225,-0.155
6473,-0.225,-0.155
6474,-0.230,-0.160
6475,-0.235,-0.165
6476,-0.230,-0.165
6477,-0.225,-0.165
6478,-0.225,-0.160
6479,-0.225,-0.155
6480,-0.220,-0.155
6481,-0.215,-0.155
6482,-0.215,-0.155
6483,-0.215,-0.155
6484,-0.215,-0.155
6485,-0.210,-0.150
6486,-0.195,-0.140
6487,-0.175,-0.130
6488,-0.155,-0.120
6489,-0.140,-0.110
6490,-0.130,-0.100
6491,-0.125,-0.095
6492,-0.125,-0.090
6493,-0.105,-0.085
6494,-0.080,-0.090
6495,-0.055,-0.085
6496,-0.030,-0.070
6497,-0.035,-0.070
6498,-0.050,-0.080
6499,-0.070,-0.100
6500,-0.055,-0.085
6501,-0.080,-0.135
6502,-0.065,-0.145
6503,-0.065,-0.135
6504,-0.065,-0.125
6505,-0.095,-0.125
6506,-0.130,-0.125
6507,-0.170,-0.135
6508,-0.205,-0.145
6509,-0.210,-0.160
6510,-0.215,-0.175
6511,-0.215,-0.170
6512,-0.215,-0.165
6513,-0.215,-0.175
6514,-0.215,-0.185
6515,-0.215,-0.185
6516,-0.215,-0.185
6517,-0.215,-0.180
6518,-0.215,-0.175
6519,-0.215,-0.175
6520,-0.215,-0.175
6521,-0.215,-0.175
6522,-0.215,-0.175
6523,-0.210,-0.175
6524,-0.205,-0.170
6525,-0.205,-0.160
6526,-0.205,-0.155
6527,-0.200,-0.155
6528,-0.195,-0.155
6529,-0.195,-0.160
6530,-0.195,-0.165
6531,-0.190,-0.160
6532,-0.175,-0.155
6533,-0.160,-0.150
6534,-0.175,-0.145
6535,-0.200,-0.140
6536,-0.300,-0.115
6537,-0.410,-0.090
6538,-0.400,-0.020
6539,-0.370,0.060
6540,0.045,0.120
6541,0.485,0.180
6542,1.180,0.220
6543,1.855,0.255
6544,1.965,0.240
6545,1.995,0.200
6546,1.065,-0.125
6547,0.170,-0.475
6548,-0.445,-0.960
6549,-0.955,-1.390
6550,-0.970,-1.535
6551,-0.940,-1.615
6552,-0.730,-1.420
6553,-0.530,-1.200
6554,-0.350,-0.915
6555,-0.210,-0.640
6556,-0.155,-0.390
6557,-0.115,-0.195
6558,-0.110,-0.100
6559,-0.105,-0.040
6560,-0.105,-0.025
6561,-0.105,-0.015
