'sample interval','V4'
'0.004 sec','mV'
0,-2.525
1,-2.530
2,-2.535
3,-2.535
4,-2.540
5,-2.535
6,-2.535
7,-2.530
8,-2.520
9,-2.525
10,-2.530
11,-2.520
12,-2.505
13,-2.485
14,-2.465
15,-2.450
16,-2.445
17,-2.445
18,-2.445
19,-2.435
20,-2.420
21,-2.405
22,-2.400
23,-2.385
24,-2.385
25,-2.395
26,-2.385
27,-2.385
28,-2.400
29,-2.430
30,-2.455
31,-2.500
32,-2.535
33,-2.555
34,-2.570
35,-2.570
36,-2.580
37,-2.590
38,-2.585
39,-2.585
40,-2.580
41,-2.585
42,-2.585
43,-2.585
44,-2.595
45,-2.590
46,-2.585
47,-2.575
48,-2.570
49,-2.570
50,-2.570
51,-2.585
52,-2.580
53,-2.555
54,-2.470
55,-2.285
56,-1.960
57,-1.535
58,-1.165
59,-1.005
60,-1.140
61,-1.555
62,-2.110
63,-2.590
64,-2.850
65,-2.855
66,-2.755
67,-2.655
68,-2.570
69,-2.550
70,-2.535
71,-2.540
72,-2.555
73,-2.570
74,-2.570
75,-2.570
76,-2.565
77,-2.555
78,-2.555
79,-2.555
80,-2.550
81,-2.545
82,-2.540
83,-2.550
84,-2.540
85,-2.535
86,-2.535
87,-2.525
88,-2.530
89,-2.525
90,-2.520
91,-2.520
92,-2.520
93,-2.515
94,-2.505
95,-2.500
96,-2.495
97,-2.490
98,-2.490
99,-2.480
100,-2.480
101,-2.470
102,-2.460
103,-2.450
104,-2.440
105,-2.440
106,-2.435
107,-2.420
108,-2.400
109,-2.390
110,-2.370
111,-2.340
112,-2.340
113,-2.320
114,-2.305
115,-2.280
116,-2.260
117,-2.250
118,-2.230
119,-2.215
120,-2.190
121,-2.165
122,-2.140
123,-2.120
124,-2.110
125,-2.115
126,-2.115
127,-2.145
128,-2.180
129,-2.230
130,-2.280
131,-2.325
132,-2.365
133,-2.400
134,-2.425
135,-2.445
136,-2.460
137,-2.475
138,-2.490
139,-2.500
140,-2.495
141,-2.495
142,-2.505
143,-2.505
144,-2.495
145,-2.495
146,-2.490
147,-2.495
148,-2.490
149,-2.495
150,-2.495
151,-2.495
152,-2.495
153,-2.505
154,-2.495
155,-2.495
156,-2.480
157,-2.480
158,-2.490
159,-2.480
160,-2.480
161,-2.485
162,-2.490
163,-2.495
164,-2.485
165,-2.480
166,-2.480
167,-2.485
168,-2.485
169,-2.485
170,-2.495
171,-2.495
172,-2.495
173,-2.495
174,-2.495
175,-2.490
176,-2.485
177,-2.485
178,-2.490
179,-2.490
180,-2.490
181,-2.485
182,-2.480
183,-2.455
184,-2.435
185,-2.400
186,-2.400
187,-2.400
188,-2.395
189,-2.400
190,-2.385
191,-2.365
192,-2.340
193,-2.335
194,-2.325
195,-2.315
196,-2.335
197,-2.335
198,-2.350
199,-2.385
200,-2.420
201,-2.445
202,-2.485
203,-2.505
204,-2.520
205,-2.535
206,-2.535
207,-2.540
208,-2.535
209,-2.535
210,-2.535
211,-2.535
212,-2.535
213,-2.535
214,-2.535
215,-2.540
216,-2.540
217,-2.535
218,-2.535
219,-2.530
220,-2.525
221,-2.530
222,-2.530
223,-2.510
224,-2.450
225,-2.290
226,-1.975
227,-1.550
228,-1.130
229,-0.880
230,-0.960
231,-1.350
232,-1.910
233,-2.415
234,-2.680
235,-2.705
236,-2.620
237,-2.535
238,-2.490
239,-2.490
240,-2.495
241,-2.515
242,-2.535
243,-2.525
244,-2.525
245,-2.525
246,-2.520
247,-2.535
248,-2.520
249,-2.510
250,-2.515
251,-2.510
252,-2.505
253,-2.500
254,-2.495
255,-2.500
256,-2.495
257,-2.505
258,-2.495
259,-2.490
260,-2.485
261,-2.480
262,-2.475
263,-2.480
264,-2.480
265,-2.470
266,-2.455
267,-2.450
268,-2.450
269,-2.445
270,-2.445
271,-2.435
272,-2.425
273,-2.420
274,-2.400
275,-2.395
276,-2.385
277,-2.385
278,-2.365
279,-2.355
280,-2.335
281,-2.325
282,-2.310
283,-2.285
284,-2.265
285,-2.260
286,-2.235
287,-2.215
288,-2.200
289,-2.175
290,-2.165
291,-2.145
292,-2.120
293,-2.095
294,-2.080
295,-2.080
296,-2.095
297,-2.130
298,-2.165
299,-2.210
300,-2.255
301,-2.300
302,-2.335
303,-2.375
304,-2.400
305,-2.420
306,-2.445
307,-2.450
308,-2.460
309,-2.465
310,-2.470
311,-2.475
312,-2.475
313,-2.475
314,-2.465
315,-2.470
316,-2.455
317,-2.470
318,-2.470
319,-2.465
320,-2.465
321,-2.470
322,-2.455
323,-2.450
324,-2.450
325,-2.450
326,-2.450
327,-2.450
328,-2.455
329,-2.455
330,-2.455
331,-2.470
332,-2.450
333,-2.455
334,-2.450
335,-2.450
336,-2.460
337,-2.455
338,-2.465
339,-2.455
340,-2.455
341,-2.465
342,-2.460
343,-2.465
344,-2.465
345,-2.470
346,-2.465
347,-2.470
348,-2.455
349,-2.450
350,-2.445
351,-2.435
352,-2.420
353,-2.405
354,-2.385
355,-2.385
356,-2.370
357,-2.370
358,-2.370
359,-2.355
360,-2.335
361,-2.325
362,-2.310
363,-2.310
364,-2.310
365,-2.315
366,-2.330
367,-2.350
368,-2.385
369,-2.400
370,-2.435
371,-2.460
372,-2.485
373,-2.510
374,-2.515
375,-2.520
376,-2.520
377,-2.520
378,-2.530
379,-2.525
380,-2.525
381,-2.520
382,-2.525
383,-2.525
384,-2.520
385,-2.520
386,-2.520
387,-2.520
388,-2.520
389,-2.520
390,-2.520
391,-2.510
392,-2.480
393,-2.395
394,-2.205
395,-1.880
396,-1.450
397,-1.060
398,-0.875
399,-1.015
400,-1.420
401,-1.940
402,-2.400
403,-2.645
404,-2.670
405,-2.595
406,-2.525
407,-2.480
408,-2.475
409,-2.495
410,-2.505
411,-2.510
412,-2.515
413,-2.520
414,-2.525
415,-2.535
416,-2.520
417,-2.520
418,-2.515
419,-2.505
420,-2.520
421,-2.495
422,-2.495
423,-2.500
424,-2.495
425,-2.495
426,-2.495
427,-2.495
428,-2.480
429,-2.485
430,-2.480
431,-2.475
432,-2.465
433,-2.465
434,-2.470
435,-2.455
436,-2.455
437,-2.450
438,-2.450
439,-2.445
440,-2.445
441,-2.425
442,-2.420
443,-2.405
444,-2.400
445,-2.385
446,-2.385
447,-2.370
448,-2.365
449,-2.350
450,-2.335
451,-2.315
452,-2.295
453,-2.280
454,-2.260
455,-2.245
456,-2.230
457,-2.205
458,-2.185
459,-2.165
460,-2.140
461,-2.120
462,-2.090
463,-2.085
464,-2.075
465,-2.095
466,-2.110
467,-2.135
468,-2.195
469,-2.235
470,-2.280
471,-2.325
472,-2.355
473,-2.395
474,-2.415
475,-2.435
476,-2.445
477,-2.455
478,-2.455
479,-2.460
480,-2.460
481,-2.465
482,-2.465
483,-2.470
484,-2.475
485,-2.465
486,-2.460
487,-2.455
488,-2.460
489,-2.455
490,-2.455
491,-2.460
492,-2.455
493,-2.450
494,-2.450
495,-2.450
496,-2.450
497,-2.445
498,-2.450
499,-2.445
500,-2.445
501,-2.450
502,-2.450
503,-2.450
504,-2.465
505,-2.455
506,-2.450
507,-2.450
508,-2.455
509,-2.465
510,-2.450
511,-2.450
512,-2.450
513,-2.450
514,-2.460
515,-2.465
516,-2.460
517,-2.455
518,-2.445
519,-2.435
520,-2.420
521,-2.415
522,-2.400
523,-2.385
524,-2.370
525,-2.365
526,-2.365
527,-2.355
528,-2.340
529,-2.330
530,-2.310
531,-2.300
532,-2.300
533,-2.300
534,-2.310
535,-2.315
536,-2.335
537,-2.365
538,-2.390
539,-2.420
540,-2.450
541,-2.480
542,-2.495
543,-2.500
544,-2.500
545,-2.505
546,-2.515
547,-2.510
548,-2.520
549,-2.510
550,-2.510
551,-2.525
552,-2.520
553,-2.525
554,-2.520
555,-2.515
556,-2.505
557,-2.500
558,-2.500
559,-2.505
560,-2.495
561,-2.435
562,-2.275
563,-1.975
564,-1.555
565,-1.130
566,-0.895
567,-1.000
568,-1.365
569,-1.850
570,-2.300
571,-2.575
572,-2.635
573,-2.590
574,-2.525
575,-2.485
576,-2.460
577,-2.475
578,-2.495
579,-2.505
580,-2.505
581,-2.515
582,-2.515
583,-2.510
584,-2.505
585,-2.500
586,-2.495
587,-2.505
588,-2.495
589,-2.495
590,-2.495
591,-2.495
592,-2.495
593,-2.505
594,-2.495
595,-2.490
596,-2.480
597,-2.485
598,-2.485
599,-2.475
600,-2.470
601,-2.470
602,-2.460
603,-2.460
604,-2.455
605,-2.450
606,-2.450
607,-2.445
608,-2.430
609,-2.420
610,-2.405
611,-2.400
612,-2.385
613,-2.385
614,-2.370
615,-2.365
616,-2.355
617,-2.345
618,-2.320
619,-2.305
620,-2.290
621,-2.265
622,-2.250
623,-2.245
624,-2.215
625,-2.205
626,-2.180
627,-2.160
628,-2.140
629,-2.115
630,-2.090
631,-2.075
632,-2.060
633,-2.090
634,-2.115
635,-2.135
636,-2.195
637,-2.240
638,-2.300
639,-2.330
640,-2.355
641,-2.410
642,-2.425
643,-2.435
644,-2.450
645,-2.460
646,-2.465
647,-2.470
648,-2.465
649,-2.470
650,-2.480
651,-2.480
652,-2.485
653,-2.480
654,-2.475
655,-2.475
656,-2.475
657,-2.475
658,-2.470
659,-2.470
660,-2.465
661,-2.465
662,-2.470
663,-2.465
664,-2.465
665,-2.470
666,-2.470
667,-2.455
668,-2.460
669,-2.460
670,-2.465
671,-2.475
672,-2.475
673,-2.475
674,-2.475
675,-2.470
676,-2.475
677,-2.480
678,-2.480
679,-2.485
680,-2.480
681,-2.485
682,-2.500
683,-2.490
684,-2.480
685,-2.480
686,-2.465
687,-2.460
688,-2.440
689,-2.435
690,-2.420
691,-2.415
692,-2.400
693,-2.390
694,-2.385
695,-2.385
696,-2.365
697,-2.340
698,-2.330
699,-2.315
700,-2.315
701,-2.330
702,-2.335
703,-2.355
704,-2.385
705,-2.420
706,-2.450
707,-2.480
708,-2.505
709,-2.515
710,-2.525
711,-2.535
712,-2.540
713,-2.540
714,-2.540
715,-2.545
716,-2.555
717,-2.555
718,-2.555
719,-2.545
720,-2.555
721,-2.555
722,-2.555
723,-2.555
724,-2.555
725,-2.545
726,-2.540
727,-2.545
728,-2.535
729,-2.480
730,-2.330
731,-2.055
732,-1.660
733,-1.265
734,-0.995
735,-1.055
736,-1.410
737,-1.925
738,-2.445
739,-2.740
740,-2.775
741,-2.695
742,-2.600
743,-2.540
744,-2.520
745,-2.530
746,-2.535
747,-2.545
748,-2.555
749,-2.555
750,-2.555
751,-2.555
752,-2.550
753,-2.535
754,-2.535
755,-2.530
756,-2.525
757,-2.535
758,-2.535
759,-2.535
760,-2.525
761,-2.520
762,-2.510
763,-2.510
764,-2.510
765,-2.505
766,-2.520
767,-2.500
768,-2.495
769,-2.485
770,-2.490
771,-2.500
772,-2.480
773,-2.480
774,-2.475
775,-2.470
776,-2.450
777,-2.435
778,-2.420
779,-2.415
780,-2.400
781,-2.400
782,-2.385
783,-2.380
784,-2.365
785,-2.350
786,-2.335
787,-2.320
788,-2.295
789,-2.275
790,-2.265
791,-2.245
792,-2.220
793,-2.205
794,-2.180
795,-2.150
796,-2.125
797,-2.095
798,-2.080
799,-2.080
800,-2.090
801,-2.115
802,-2.155
803,-2.215
804,-2.265
805,-2.320
806,-2.365
807,-2.400
808,-2.435
809,-2.455
810,-2.485
811,-2.495
812,-2.505
813,-2.520
814,-2.500
815,-2.505
816,-2.495
817,-2.500
818,-2.510
819,-2.510
820,-2.510
821,-2.505
822,-2.505
823,-2.505
824,-2.505
825,-2.505
826,-2.505
827,-2.505
828,-2.505
829,-2.495
830,-2.495
831,-2.500
832,-2.495
833,-2.495
834,-2.495
835,-2.500
836,-2.495
837,-2.500
838,-2.495
839,-2.500
840,-2.505
841,-2.505
842,-2.510
843,-2.515
844,-2.520
845,-2.520
846,-2.520
847,-2.515
848,-2.505
849,-2.495
850,-2.485
851,-2.485
852,-2.480
853,-2.470
854,-2.455
855,-2.455
856,-2.435
857,-2.420
858,-2.425
859,-2.425
860,-2.425
861,-2.400
862,-2.370
863,-2.365
864,-2.350
865,-2.360
866,-2.365
867,-2.385
868,-2.395
869,-2.420
870,-2.450
871,-2.490
872,-2.520
873,-2.550
874,-2.570
875,-2.570
876,-2.570
877,-2.570
878,-2.570
879,-2.570
880,-2.555
881,-2.560
882,-2.570
883,-2.585
884,-2.585
885,-2.590
886,-2.590
887,-2.570
888,-2.570
889,-2.570
890,-2.560
891,-2.570
892,-2.570
893,-2.535
894,-2.435
895,-2.225
896,-1.910
897,-1.495
898,-1.160
899,-1.020
900,-1.195
901,-1.620
902,-2.165
903,-2.660
904,-2.895
905,-2.895
906,-2.790
907,-2.675
908,-2.585
909,-2.560
910,-2.545
911,-2.555
912,-2.570
913,-2.570
914,-2.570
915,-2.570
916,-2.555
917,-2.555
918,-2.555
919,-2.555
920,-2.555
921,-2.550
922,-2.550
923,-2.545
924,-2.555
925,-2.550
926,-2.540
927,-2.530
928,-2.525
929,-2.525
930,-2.520
931,-2.520
932,-2.505
933,-2.515
934,-2.505
935,-2.505
936,-2.495
937,-2.485
938,-2.480
939,-2.475
940,-2.470
941,-2.470
942,-2.455
943,-2.450
944,-2.450
945,-2.420
946,-2.405
947,-2.395
948,-2.385
949,-2.365
950,-2.365
951,-2.345
952,-2.335
953,-2.300
954,-2.280
955,-2.255
956,-2.245
957,-2.220
958,-2.200
959,-2.180
960,-2.165
961,-2.140
962,-2.120
963,-2.095
964,-2.095
965,-2.110
966,-2.130
967,-2.180
968,-2.215
969,-2.265
970,-2.310
971,-2.355
972,-2.400
973,-2.435
974,-2.455
975,-2.480
976,-2.495
977,-2.510
978,-2.510
979,-2.510
980,-2.505
981,-2.510
982,-2.510
983,-2.515
984,-2.520
985,-2.520
986,-2.525
987,-2.510
988,-2.510
989,-2.505
990,-2.495
991,-2.510
992,-2.505
993,-2.500
994,-2.495
995,-2.500
996,-2.500
997,-2.505
998,-2.505
999,-2.500
1000,-2.495
1001,-2.495
1002,-2.495
1003,-2.495
1004,-2.495
1005,-2.495
1006,-2.495
1007,-2.505
1008,-2.505
1009,-2.495
1010,-2.500
1011,-2.500
1012,-2.500
1013,-2.500
1014,-2.500
1015,-2.505
1016,-2.490
1017,-2.480
1018,-2.450
1019,-2.445
1020,-2.435
1021,-2.420
1022,-2.415
1023,-2.415
1024,-2.415
1025,-2.405
1026,-2.385
1027,-2.370
1028,-2.340
1029,-2.350
1030,-2.350
1031,-2.355
1032,-2.355
1033,-2.355
1034,-2.385
1035,-2.415
1036,-2.435
1037,-2.475
1038,-2.510
1039,-2.525
1040,-2.540
1041,-2.545
1042,-2.550
1043,-2.555
1044,-2.555
1045,-2.550
1046,-2.555
1047,-2.555
1048,-2.555
1049,-2.555
1050,-2.550
1051,-2.540
1052,-2.540
1053,-2.545
1054,-2.535
1055,-2.530
1056,-2.535
1057,-2.535
1058,-2.505
1059,-2.435
1060,-2.260
1061,-1.925
1062,-1.505
1063,-1.090
1064,-0.915
1065,-1.095
1066,-1.510
1067,-2.080
1068,-2.570
1069,-2.805
1070,-2.810
1071,-2.705
1072,-2.585
1073,-2.520
1074,-2.500
1075,-2.520
1076,-2.520
1077,-2.530
1078,-2.525
1079,-2.525
1080,-2.535
1081,-2.525
1082,-2.520
1083,-2.520
1084,-2.510
1085,-2.515
1086,-2.495
1087,-2.495
1088,-2.490
1089,-2.495
1090,-2.495
1091,-2.500
1092,-2.495
1093,-2.485
1094,-2.485
1095,-2.480
1096,-2.475
1097,-2.465
1098,-2.470
1099,-2.470
1100,-2.465
1101,-2.465
1102,-2.455
1103,-2.445
1104,-2.435
1105,-2.425
1106,-2.420
1107,-2.405
1108,-2.400
1109,-2.390
1110,-2.385
1111,-2.370
1112,-2.360
1113,-2.345
1114,-2.335
1115,-2.330
1116,-2.310
1117,-2.280
1118,-2.265
1119,-2.250
1120,-2.230
1121,-2.215
1122,-2.180
1123,-2.165
1124,-2.140
1125,-2.115
1126,-2.095
1127,-2.080
1128,-2.075
1129,-2.080
1130,-2.095
1131,-2.130
1132,-2.170
1133,-2.215
1134,-2.260
1135,-2.305
1136,-2.340
1137,-2.375
1138,-2.400
1139,-2.420
1140,-2.435
1141,-2.450
1142,-2.450
1143,-2.455
1144,-2.455
1145,-2.450
1146,-2.450
1147,-2.455
1148,-2.465
1149,-2.465
1150,-2.470
1151,-2.460
1152,-2.450
1153,-2.450
1154,-2.450
1155,-2.445
1156,-2.445
1157,-2.435
1158,-2.445
1159,-2.445
1160,-2.450
1161,-2.450
1162,-2.445
1163,-2.445
1164,-2.450
1165,-2.440
1166,-2.445
1167,-2.445
1168,-2.445
1169,-2.450
1170,-2.445
1171,-2.445
1172,-2.445
1173,-2.445
1174,-2.445
1175,-2.445
1176,-2.445
1177,-2.450
1178,-2.450
1179,-2.450
1180,-2.450
1181,-2.445
1182,-2.435
1183,-2.425
1184,-2.400
1185,-2.385
1186,-2.375
1187,-2.370
1188,-2.365
1189,-2.360
1190,-2.350
1191,-2.340
1192,-2.325
1193,-2.300
1194,-2.290
1195,-2.280
1196,-2.290
1197,-2.300
1198,-2.300
1199,-2.315
1200,-2.340
1201,-2.365
1202,-2.400
1203,-2.440
1204,-2.455
1205,-2.475
1206,-2.495
1207,-2.485
1208,-2.485
1209,-2.485
1210,-2.495
1211,-2.510
1212,-2.495
1213,-2.500
1214,-2.500
1215,-2.505
1216,-2.505
1217,-2.500
1218,-2.490
1219,-2.490
1220,-2.485
1221,-2.485
1222,-2.490
1223,-2.470
1224,-2.385
1225,-2.205
1226,-1.875
1227,-1.430
1228,-1.010
1229,-0.810
1230,-0.935
1231,-1.335
1232,-1.880
1233,-2.385
1234,-2.655
1235,-2.680
1236,-2.585
1237,-2.505
1238,-2.445
1239,-2.450
1240,-2.460
1241,-2.475
1242,-2.485
1243,-2.485
1244,-2.480
1245,-2.485
1246,-2.480
1247,-2.480
1248,-2.495
1249,-2.480
1250,-2.475
1251,-2.475
1252,-2.465
1253,-2.475
1254,-2.460
1255,-2.455
1256,-2.450
1257,-2.455
1258,-2.455
1259,-2.450
1260,-2.450
1261,-2.445
1262,-2.445
1263,-2.445
1264,-2.435
1265,-2.435
1266,-2.420
1267,-2.415
1268,-2.400
1269,-2.400
1270,-2.400
1271,-2.395
1272,-2.385
1273,-2.385
1274,-2.370
1275,-2.365
1276,-2.350
1277,-2.335
1278,-2.325
1279,-2.305
1280,-2.290
1281,-2.280
1282,-2.260
1283,-2.240
1284,-2.220
1285,-2.205
1286,-2.190
1287,-2.165
1288,-2.140
1289,-2.115
1290,-2.090
1291,-2.060
1292,-2.045
1293,-2.045
1294,-2.055
1295,-2.080
1296,-2.125
1297,-2.165
1298,-2.210
1299,-2.250
1300,-2.285
1301,-2.335
1302,-2.365
1303,-2.390
1304,-2.400
1305,-2.420
1306,-2.425
1307,-2.435
1308,-2.430
1309,-2.435
1310,-2.440
1311,-2.435
1312,-2.440
1313,-2.435
1314,-2.435
1315,-2.435
1316,-2.435
1317,-2.430
1318,-2.435
1319,-2.435
1320,-2.420
1321,-2.425
1322,-2.425
1323,-2.430
1324,-2.425
1325,-2.420
1326,-2.420
1327,-2.425
1328,-2.425
1329,-2.425
1330,-2.420
1331,-2.420
1332,-2.420
1333,-2.415
1334,-2.420
1335,-2.420
1336,-2.420
1337,-2.445
1338,-2.425
1339,-2.430
1340,-2.430
1341,-2.425
1342,-2.435
1343,-2.430
1344,-2.430
1345,-2.420
1346,-2.420
1347,-2.405
1348,-2.385
1349,-2.375
1350,-2.365
1351,-2.350
1352,-2.340
1353,-2.340
1354,-2.340
1355,-2.315
1356,-2.300
1357,-2.280
1358,-2.275
1359,-2.275
1360,-2.280
1361,-2.280
1362,-2.290
1363,-2.305
1364,-2.335
1365,-2.365
1366,-2.400
1367,-2.430
1368,-2.450
1369,-2.450
1370,-2.475
1371,-2.480
1372,-2.480
1373,-2.485
1374,-2.485
1375,-2.480
1376,-2.490
1377,-2.490
1378,-2.500
1379,-2.505
1380,-2.495
1381,-2.495
1382,-2.485
1383,-2.485
1384,-2.495
1385,-2.480
1386,-2.465
1387,-2.430
1388,-2.325
1389,-2.080
1390,-1.700
1391,-1.250
1392,-0.900
1393,-0.840
1394,-1.115
1395,-1.595
1396,-2.120
1397,-2.505
1398,-2.640
1399,-2.610
1400,-2.525
1401,-2.465
1402,-2.440
1403,-2.445
1404,-2.455
1405,-2.475
1406,-2.480
1407,-2.485
1408,-2.480
1409,-2.480
1410,-2.480
1411,-2.475
1412,-2.470
1413,-2.470
1414,-2.470
1415,-2.475
1416,-2.475
1417,-2.470
1418,-2.465
1419,-2.455
1420,-2.450
1421,-2.450
1422,-2.445
1423,-2.445
1424,-2.445
1425,-2.445
1426,-2.450
1427,-2.435
1428,-2.425
1429,-2.420
1430,-2.420
1431,-2.430
1432,-2.415
1433,-2.400
1434,-2.390
1435,-2.385
1436,-2.385
1437,-2.370
1438,-2.365
1439,-2.350
1440,-2.335
1441,-2.315
1442,-2.305
1443,-2.290
1444,-2.280
1445,-2.260
1446,-2.250
1447,-2.230
1448,-2.215
1449,-2.200
1450,-2.180
1451,-2.160
1452,-2.135
1453,-2.105
1454,-2.090
1455,-2.080
1456,-2.075
1457,-2.070
1458,-2.090
1459,-2.120
1460,-2.165
1461,-2.220
1462,-2.265
1463,-2.305
1464,-2.340
1465,-2.370
1466,-2.405
1467,-2.420
1468,-2.445
1469,-2.440
1470,-2.450
1471,-2.455
1472,-2.465
1473,-2.470
1474,-2.460
1475,-2.465
1476,-2.455
1477,-2.455
1478,-2.450
1479,-2.450
1480,-2.450
1481,-2.450
1482,-2.445
1483,-2.450
1484,-2.445
1485,-2.450
1486,-2.450
1487,-2.445
1488,-2.435
1489,-2.435
1490,-2.435
1491,-2.445
1492,-2.445
1493,-2.445
1494,-2.445
1495,-2.445
1496,-2.445
1497,-2.445
1498,-2.445
1499,-2.450
1500,-2.445
1501,-2.450
1502,-2.450
1503,-2.450
1504,-2.450
1505,-2.460
1506,-2.460
1507,-2.460
1508,-2.450
1509,-2.445
1510,-2.430
1511,-2.420
1512,-2.400
1513,-2.395
1514,-2.385
1515,-2.365
1516,-2.370
1517,-2.365
1518,-2.355
1519,-2.345
1520,-2.315
1521,-2.305
1522,-2.295
1523,-2.300
1524,-2.305
1525,-2.315
1526,-2.335
1527,-2.360
1528,-2.385
1529,-2.415
1530,-2.450
1531,-2.480
1532,-2.505
1533,-2.515
1534,-2.520
1535,-2.520
1536,-2.525
1537,-2.525
1538,-2.520
1539,-2.525
1540,-2.525
1541,-2.535
1542,-2.535
1543,-2.530
1544,-2.525
1545,-2.515
1546,-2.515
1547,-2.510
1548,-2.520
1549,-2.520
1550,-2.505
1551,-2.450
1552,-2.315
1553,-2.045
1554,-1.650
1555,-1.215
1556,-0.940
1557,-0.970
1558,-1.315
1559,-1.825
1560,-2.325
1561,-2.605
1562,-2.675
1563,-2.605
1564,-2.530
1565,-2.480
1566,-2.475
1567,-2.490
1568,-2.510
1569,-2.525
1570,-2.525
1571,-2.530
1572,-2.525
1573,-2.520
1574,-2.520
1575,-2.520
1576,-2.520
1577,-2.515
1578,-2.505
1579,-2.505
1580,-2.495
1581,-2.500
1582,-2.495
1583,-2.505
1584,-2.505
1585,-2.495
1586,-2.490
1587,-2.475
1588,-2.475
1589,-2.465
1590,-2.475
1591,-2.480
1592,-2.470
1593,-2.470
1594,-2.450
1595,-2.450
1596,-2.445
1597,-2.435
1598,-2.435
1599,-2.435
1600,-2.405
1601,-2.400
1602,-2.385
1603,-2.375
1604,-2.345
1605,-2.350
1606,-2.335
1607,-2.330
1608,-2.305
1609,-2.280
1610,-2.260
1611,-2.250
1612,-2.230
1613,-2.215
1614,-2.190
1615,-2.165
1616,-2.130
1617,-2.115
1618,-2.095
1619,-2.090
1620,-2.085
1621,-2.105
1622,-2.135
1623,-2.180
1624,-2.230
1625,-2.275
1626,-2.320
1627,-2.370
1628,-2.415
1629,-2.435
1630,-2.450
1631,-2.465
1632,-2.475
1633,-2.485
1634,-2.500
1635,-2.500
1636,-2.495
1637,-2.490
1638,-2.490
1639,-2.480
1640,-2.490
1641,-2.485
1642,-2.495
1643,-2.490
1644,-2.485
1645,-2.480
1646,-2.485
1647,-2.475
1648,-2.475
1649,-2.475
1650,-2.475
1651,-2.490
1652,-2.480
1653,-2.480
1654,-2.475
1655,-2.475
1656,-2.480
1657,-2.475
1658,-2.480
1659,-2.480
1660,-2.480
1661,-2.485
1662,-2.485
1663,-2.480
1664,-2.480
1665,-2.485
1666,-2.485
1667,-2.490
1668,-2.495
1669,-2.490
1670,-2.500
1671,-2.490
1672,-2.480
1673,-2.475
1674,-2.460
1675,-2.450
1676,-2.435
1677,-2.435
1678,-2.425
1679,-2.415
1680,-2.400
1681,-2.395
1682,-2.385
1683,-2.365
1684,-2.350
1685,-2.340
1686,-2.340
1687,-2.345
1688,-2.340
1689,-2.355
1690,-2.370
1691,-2.400
1692,-2.445
1693,-2.500
1694,-2.520
1695,-2.535
1696,-2.540
1697,-2.550
1698,-2.555
1699,-2.550
1700,-2.555
1701,-2.560
1702,-2.555
1703,-2.575
1704,-2.570
1705,-2.575
1706,-2.570
1707,-2.570
1708,-2.555
1709,-2.555
1710,-2.550
1711,-2.555
1712,-2.570
1713,-2.555
1714,-2.495
1715,-2.350
1716,-2.060
1717,-1.655
1718,-1.235
1719,-1.000
1720,-1.100
1721,-1.500
1722,-2.060
1723,-2.585
1724,-2.845
1725,-2.865
1726,-2.775
1727,-2.655
1728,-2.570
1729,-2.540
1730,-2.545
1731,-2.545
1732,-2.555
1733,-2.555
1734,-2.565
1735,-2.580
1736,-2.560
1737,-2.555
1738,-2.555
1739,-2.545
1740,-2.555
1741,-2.545
1742,-2.540
1743,-2.540
1744,-2.535
1745,-2.535
1746,-2.535
1747,-2.535
1748,-2.535
1749,-2.535
1750,-2.525
1751,-2.515
1752,-2.505
1753,-2.505
1754,-2.500
1755,-2.495
1756,-2.490
1757,-2.485
1758,-2.480
1759,-2.485
1760,-2.465
1761,-2.460
1762,-2.445
1763,-2.435
1764,-2.425
1765,-2.420
1766,-2.400
1767,-2.390
1768,-2.370
1769,-2.355
1770,-2.350
1771,-2.325
1772,-2.310
1773,-2.285
1774,-2.265
1775,-2.245
1776,-2.230
1777,-2.200
1778,-2.180
1779,-2.155
1780,-2.135
1781,-2.110
1782,-2.085
1783,-2.090
1784,-2.110
1785,-2.150
1786,-2.190
1787,-2.235
1788,-2.290
1789,-2.335
1790,-2.385
1791,-2.420
1792,-2.450
1793,-2.470
1794,-2.490
1795,-2.500
1796,-2.510
1797,-2.515
1798,-2.525
1799,-2.530
1800,-2.535
1801,-2.530
1802,-2.525
1803,-2.520
1804,-2.520
1805,-2.525
1806,-2.525
1807,-2.520
1808,-2.510
1809,-2.505
1810,-2.505
1811,-2.505
1812,-2.510
1813,-2.515
1814,-2.510
1815,-2.510
1816,-2.510
1817,-2.510
1818,-2.510
1819,-2.520
1820,-2.520
1821,-2.520
1822,-2.520
1823,-2.515
1824,-2.525
1825,-2.510
1826,-2.510
1827,-2.515
1828,-2.520
1829,-2.535
1830,-2.525
1831,-2.520
1832,-2.520
1833,-2.505
1834,-2.495
1835,-2.485
1836,-2.480
1837,-2.465
1838,-2.450
1839,-2.435
1840,-2.435
1841,-2.425
1842,-2.430
1843,-2.420
1844,-2.400
1845,-2.385
1846,-2.365
1847,-2.355
1848,-2.355
1849,-2.370
1850,-2.385
1851,-2.410
1852,-2.435
1853,-2.470
1854,-2.500
1855,-2.535
1856,-2.555
1857,-2.570
1858,-2.570
1859,-2.570
1860,-2.570
1861,-2.575
1862,-2.585
1863,-2.585
1864,-2.580
1865,-2.580
1866,-2.585
1867,-2.575
1868,-2.580
1869,-2.570
1870,-2.570
1871,-2.570
1872,-2.570
1873,-2.580
1874,-2.575
1875,-2.535
1876,-2.415
1877,-2.150
1878,-1.765
1879,-1.335
1880,-1.030
1881,-1.000
1882,-1.315
1883,-1.825
1884,-2.385
1885,-2.790
1886,-2.925
1887,-2.860
1888,-2.735
1889,-2.620
1890,-2.560
1891,-2.535
1892,-2.555
1893,-2.560
1894,-2.560
1895,-2.570
1896,-2.555
1897,-2.555
1898,-2.555
1899,-2.555
1900,-2.555
1901,-2.545
1902,-2.535
1903,-2.535
1904,-2.535
1905,-2.535
1906,-2.525
1907,-2.525
1908,-2.535
1909,-2.520
1910,-2.510
1911,-2.510
1912,-2.500
1913,-2.515
1914,-2.495
1915,-2.490
1916,-2.485
1917,-2.485
1918,-2.485
1919,-2.470
1920,-2.465
1921,-2.455
1922,-2.450
1923,-2.450
1924,-2.435
1925,-2.425
1926,-2.415
1927,-2.395
1928,-2.385
1929,-2.365
1930,-2.355
1931,-2.345
1932,-2.325
1933,-2.300
1934,-2.280
1935,-2.265
1936,-2.250
1937,-2.220
1938,-2.205
1939,-2.190
1940,-2.165
1941,-2.135
1942,-2.110
1943,-2.085
1944,-2.080
1945,-2.095
1946,-2.110
1947,-2.145
1948,-2.190
1949,-2.230
1950,-2.265
1951,-2.315
1952,-2.355
1953,-2.400
1954,-2.435
1955,-2.460
1956,-2.465
1957,-2.475
1958,-2.480
1959,-2.490
1960,-2.495
1961,-2.490
1962,-2.490
1963,-2.490
1964,-2.490
1965,-2.485
1966,-2.480
1967,-2.485
1968,-2.480
1969,-2.475
1970,-2.475
1971,-2.470
1972,-2.465
1973,-2.465
1974,-2.465
1975,-2.475
1976,-2.475
1977,-2.465
1978,-2.460
1979,-2.465
1980,-2.465
1981,-2.470
1982,-2.465
1983,-2.465
1984,-2.465
1985,-2.465
1986,-2.470
1987,-2.470
1988,-2.465
1989,-2.470
1990,-2.470
1991,-2.475
1992,-2.475
1993,-2.470
1994,-2.475
1995,-2.475
1996,-2.475
1997,-2.480
1998,-2.465
1999,-2.450
2000,-2.445
2001,-2.435
2002,-2.435
2003,-2.400
2004,-2.385
2005,-2.385
2006,-2.370
2007,-2.365
2008,-2.350
2009,-2.335
2010,-2.315
2011,-2.300
2012,-2.305
2013,-2.315
2014,-2.315
2015,-2.330
2016,-2.350
2017,-2.385
2018,-2.420
2019,-2.465
2020,-2.485
2021,-2.505
2022,-2.510
2023,-2.510
2024,-2.520
2025,-2.520
2026,-2.525
2027,-2.525
2028,-2.525
2029,-2.525
2030,-2.525
2031,-2.525
2032,-2.525
2033,-2.525
2034,-2.525
2035,-2.520
2036,-2.510
2037,-2.515
2038,-2.525
2039,-2.520
2040,-2.450
2041,-2.295
2042,-2.015
2043,-1.610
2044,-1.170
2045,-0.870
2046,-0.855
2047,-1.175
2048,-1.700
2049,-2.280
2050,-2.655
2051,-2.740
2052,-2.675
2053,-2.570
2054,-2.500
2055,-2.475
2056,-2.485
2057,-2.505
2058,-2.515
2059,-2.510
2060,-2.510
2061,-2.505
2062,-2.505
2063,-2.505
2064,-2.495
2065,-2.490
2066,-2.495
2067,-2.490
2068,-2.490
2069,-2.485
2070,-2.480
2071,-2.465
2072,-2.480
2073,-2.475
2074,-2.470
2075,-2.475
2076,-2.470
2077,-2.465
2078,-2.455
2079,-2.450
2080,-2.450
2081,-2.450
2082,-2.435
2083,-2.435
2084,-2.435
2085,-2.425
2086,-2.435
2087,-2.420
2088,-2.405
2089,-2.400
2090,-2.385
2091,-2.370
2092,-2.365
2093,-2.350
2094,-2.335
2095,-2.315
2096,-2.300
2097,-2.290
2098,-2.265
2099,-2.250
2100,-2.230
2101,-2.215
2102,-2.200
2103,-2.180
2104,-2.160
2105,-2.135
2106,-2.110
2107,-2.095
2108,-2.080
2109,-2.085
2110,-2.095
2111,-2.130
2112,-2.165
2113,-2.210
2114,-2.260
2115,-2.300
2116,-2.340
2117,-2.370
2118,-2.400
2119,-2.430
2120,-2.445
2121,-2.450
2122,-2.450
2123,-2.450
2124,-2.455
2125,-2.460
2126,-2.460
2127,-2.465
2128,-2.475
2129,-2.465
2130,-2.465
2131,-2.460
2132,-2.455
2133,-2.465
2134,-2.455
2135,-2.450
2136,-2.450
2137,-2.450
2138,-2.450
2139,-2.450
2140,-2.450
2141,-2.445
2142,-2.435
2143,-2.440
2144,-2.445
2145,-2.445
2146,-2.445
2147,-2.445
2148,-2.445
2149,-2.445
2150,-2.450
2151,-2.445
2152,-2.445
2153,-2.445
2154,-2.445
2155,-2.450
2156,-2.450
2157,-2.455
2158,-2.450
2159,-2.460
2160,-2.465
2161,-2.455
2162,-2.445
2163,-2.435
2164,-2.420
2165,-2.415
2166,-2.395
2167,-2.385
2168,-2.385
2169,-2.375
2170,-2.350
2171,-2.355
2172,-2.335
2173,-2.320
2174,-2.295
2175,-2.280
2176,-2.300
2177,-2.295
2178,-2.300
2179,-2.320
2180,-2.335
2181,-2.365
2182,-2.400
2183,-2.445
2184,-2.475
2185,-2.495
2186,-2.495
2187,-2.505
2188,-2.505
2189,-2.505
2190,-2.505
2191,-2.505
2192,-2.505
2193,-2.515
2194,-2.515
2195,-2.520
2196,-2.520
2197,-2.505
2198,-2.505
2199,-2.500
2200,-2.495
2201,-2.505
2202,-2.490
2203,-2.480
2204,-2.400
2205,-2.215
2206,-1.865
2207,-1.420
2208,-1.005
2209,-0.855
2210,-1.055
2211,-1.520
2212,-2.085
2213,-2.500
2214,-2.665
2215,-2.640
2216,-2.555
2217,-2.495
2218,-2.465
2219,-2.475
2220,-2.490
2221,-2.505
2222,-2.505
2223,-2.515
2224,-2.510
2225,-2.505
2226,-2.505
2227,-2.500
2228,-2.495
2229,-2.490
2230,-2.490
2231,-2.485
2232,-2.480
2233,-2.485
2234,-2.480
2235,-2.485
2236,-2.480
2237,-2.475
2238,-2.475
2239,-2.475
2240,-2.465
2241,-2.455
2242,-2.450
2243,-2.450
2244,-2.450
2245,-2.445
2246,-2.445
2247,-2.435
2248,-2.435
2249,-2.425
2250,-2.420
2251,-2.420
2252,-2.400
2253,-2.400
2254,-2.385
2255,-2.375
2256,-2.355
2257,-2.345
2258,-2.335
2259,-2.300
2260,-2.305
2261,-2.290
2262,-2.275
2263,-2.250
2264,-2.215
2265,-2.215
2266,-2.190
2267,-2.175
2268,-2.150
2269,-2.120
2270,-2.100
2271,-2.080
2272,-2.080
2273,-2.095
2274,-2.120
2275,-2.160
2276,-2.200
2277,-2.250
2278,-2.290
2279,-2.335
2280,-2.370
2281,-2.390
2282,-2.420
2283,-2.435
2284,-2.450
2285,-2.455
2286,-2.460
2287,-2.460
2288,-2.470
2289,-2.470
2290,-2.470
2291,-2.455
2292,-2.460
2293,-2.455
2294,-2.450
2295,-2.455
2296,-2.455
2297,-2.455
2298,-2.450
2299,-2.450
2300,-2.450
2301,-2.470
2302,-2.450
2303,-2.450
2304,-2.445
2305,-2.450
2306,-2.455
2307,-2.450
2308,-2.450
2309,-2.450
2310,-2.450
2311,-2.450
2312,-2.445
2313,-2.445
2314,-2.445
2315,-2.450
2316,-2.455
2317,-2.450
2318,-2.455
2319,-2.450
2320,-2.450
2321,-2.450
2322,-2.450
2323,-2.450
2324,-2.450
2325,-2.450
2326,-2.445
2327,-2.440
2328,-2.420
2329,-2.405
2330,-2.385
2331,-2.380
2332,-2.370
2333,-2.365
2334,-2.365
2335,-2.355
2336,-2.340
2337,-2.320
2338,-2.300
2339,-2.295
2340,-2.295
2341,-2.300
2342,-2.315
2343,-2.330
2344,-2.350
2345,-2.375
2346,-2.415
2347,-2.450
2348,-2.490
2349,-2.490
2350,-2.500
2351,-2.505
2352,-2.510
2353,-2.520
2354,-2.510
2355,-2.515
2356,-2.510
2357,-2.515
2358,-2.520
2359,-2.520
2360,-2.520
2361,-2.515
2362,-2.510
2363,-2.510
2364,-2.510
2365,-2.510
2366,-2.505
2367,-2.475
2368,-2.385
2369,-2.180
2370,-1.825
2371,-1.375
2372,-1.000
2373,-0.845
2374,-1.040
2375,-1.485
2376,-2.020
2377,-2.455
2378,-2.655
2379,-2.645
2380,-2.565
2381,-2.500
2382,-2.460
2383,-2.470
2384,-2.485
2385,-2.505
2386,-2.520
2387,-2.525
2388,-2.525
2389,-2.520
2390,-2.520
2391,-2.510
2392,-2.510
2393,-2.505
2394,-2.505
2395,-2.520
2396,-2.495
2397,-2.500
2398,-2.495
2399,-2.500
2400,-2.495
2401,-2.485
2402,-2.480
2403,-2.470
2404,-2.465
2405,-2.465
2406,-2.465
2407,-2.470
2408,-2.465
2409,-2.470
2410,-2.455
2411,-2.450
2412,-2.450
2413,-2.440
2414,-2.430
2415,-2.420
2416,-2.420
2417,-2.405
2418,-2.400
2419,-2.385
2420,-2.370
2421,-2.350
2422,-2.335
2423,-2.320
2424,-2.310
2425,-2.300
2426,-2.280
2427,-2.265
2428,-2.245
2429,-2.230
2430,-2.215
2431,-2.190
2432,-2.150
2433,-2.135
2434,-2.105
2435,-2.095
2436,-2.085
2437,-2.085
2438,-2.120
2439,-2.160
2440,-2.200
2441,-2.255
2442,-2.300
2443,-2.340
2444,-2.385
2445,-2.415
2446,-2.435
2447,-2.450
2448,-2.470
2449,-2.480
2450,-2.485
2451,-2.480
2452,-2.480
2453,-2.485
2454,-2.485
2455,-2.485
2456,-2.480
2457,-2.480
2458,-2.475
2459,-2.475
2460,-2.465
2461,-2.475
2462,-2.475
2463,-2.480
2464,-2.480
2465,-2.480
2466,-2.470
2467,-2.465
2468,-2.465
2469,-2.465
2470,-2.470
2471,-2.475
2472,-2.465
2473,-2.465
2474,-2.460
2475,-2.470
2476,-2.470
2477,-2.470
2478,-2.475
2479,-2.490
2480,-2.480
2481,-2.485
2482,-2.485
2483,-2.480
2484,-2.495
2485,-2.490
2486,-2.490
2487,-2.485
2488,-2.485
2489,-2.485
2490,-2.485
2491,-2.480
2492,-2.465
2493,-2.450
2494,-2.435
2495,-2.420
2496,-2.400
2497,-2.400
2498,-2.400
2499,-2.400
2500,-2.390
2501,-2.370
2502,-2.350
2503,-2.340
2504,-2.330
2505,-2.325
2506,-2.335
2507,-2.350
2508,-2.375
2509,-2.400
2510,-2.445
2511,-2.490
2512,-2.520
2513,-2.530
2514,-2.535
2515,-2.540
2516,-2.540
2517,-2.555
2518,-2.555
2519,-2.555
2520,-2.555
2521,-2.570
2522,-2.555
2523,-2.555
2524,-2.555
2525,-2.555
2526,-2.555
2527,-2.545
2528,-2.540
2529,-2.540
2530,-2.550
2531,-2.560
2532,-2.530
2533,-2.445
2534,-2.230
2535,-1.875
2536,-1.425
2537,-1.060
2538,-0.995
2539,-1.280
2540,-1.785
2541,-2.350
2542,-2.725
2543,-2.820
2544,-2.745
2545,-2.635
2546,-2.550
2547,-2.520
2548,-2.525
2549,-2.545
2550,-2.555
2551,-2.555
2552,-2.560
2553,-2.535
2554,-2.555
2555,-2.545
2556,-2.540
2557,-2.540
2558,-2.535
2559,-2.535
2560,-2.535
2561,-2.535
2562,-2.530
2563,-2.530
2564,-2.520
2565,-2.520
2566,-2.510
2567,-2.505
2568,-2.510
2569,-2.500
2570,-2.505
2571,-2.505
2572,-2.495
2573,-2.495
2574,-2.480
2575,-2.475
2576,-2.465
2577,-2.460
2578,-2.450
2579,-2.450
2580,-2.445
2581,-2.435
2582,-2.420
2583,-2.400
2584,-2.390
2585,-2.370
2586,-2.365
2587,-2.355
2588,-2.350
2589,-2.330
2590,-2.305
2591,-2.280
2592,-2.265
2593,-2.245
2594,-2.220
2595,-2.200
2596,-2.170
2597,-2.150
2598,-2.130
2599,-2.110
2600,-2.095
2601,-2.095
2602,-2.120
2603,-2.165
2604,-2.215
2605,-2.275
2606,-2.315
2607,-2.350
2608,-2.400
2609,-2.420
2610,-2.465
2611,-2.480
2612,-2.490
2613,-2.490
2614,-2.495
2615,-2.510
2616,-2.505
2617,-2.510
2618,-2.510
2619,-2.510
2620,-2.510
2621,-2.515
2622,-2.515
2623,-2.510
2624,-2.500
2625,-2.495
2626,-2.495
2627,-2.500
2628,-2.500
2629,-2.505
2630,-2.500
2631,-2.495
2632,-2.495
2633,-2.495
2634,-2.500
2635,-2.505
2636,-2.505
2637,-2.495
2638,-2.490
2639,-2.495
2640,-2.495
2641,-2.495
2642,-2.495
2643,-2.505
2644,-2.505
2645,-2.505
2646,-2.505
2647,-2.510
2648,-2.505
2649,-2.520
2650,-2.520
2651,-2.520
2652,-2.525
2653,-2.505
2654,-2.495
2655,-2.485
2656,-2.480
2657,-2.480
2658,-2.450
2659,-2.435
2660,-2.430
2661,-2.435
2662,-2.435
2663,-2.435
2664,-2.420
2665,-2.390
2666,-2.370
2667,-2.350
2668,-2.350
2669,-2.365
2670,-2.380
2671,-2.385
2672,-2.415
2673,-2.445
2674,-2.475
2675,-2.505
2676,-2.535
2677,-2.555
2678,-2.555
2679,-2.570
2680,-2.570
2681,-2.575
2682,-2.575
2683,-2.580
2684,-2.570
2685,-2.580
2686,-2.585
2687,-2.575
2688,-2.575
2689,-2.570
2690,-2.570
2691,-2.570
2692,-2.570
2693,-2.570
2694,-2.570
2695,-2.555
2696,-2.495
2697,-2.335
2698,-2.030
2699,-1.605
2700,-1.220
2701,-1.060
2702,-1.270
2703,-1.775
2704,-2.385
2705,-2.815
2706,-2.945
2707,-2.870
2708,-2.740
2709,-2.620
2710,-2.560
2711,-2.535
2712,-2.535
2713,-2.550
2714,-2.555
2715,-2.570
2716,-2.570
2717,-2.570
2718,-2.560
2719,-2.555
2720,-2.550
2721,-2.545
2722,-2.545
2723,-2.540
2724,-2.535
2725,-2.525
2726,-2.530
2727,-2.535
2728,-2.525
2729,-2.525
2730,-2.525
2731,-2.520
2732,-2.510
2733,-2.505
2734,-2.500
2735,-2.495
2736,-2.495
2737,-2.485
2738,-2.490
2739,-2.485
2740,-2.470
2741,-2.475
2742,-2.450
2743,-2.445
2744,-2.435
2745,-2.435
2746,-2.435
2747,-2.405
2748,-2.400
2749,-2.370
2750,-2.360
2751,-2.340
2752,-2.315
2753,-2.300
2754,-2.290
2755,-2.280
2756,-2.260
2757,-2.240
2758,-2.215
2759,-2.195
2760,-2.170
2761,-2.145
2762,-2.120
2763,-2.110
2764,-2.100
2765,-2.115
2766,-2.150
2767,-2.185
2768,-2.230
2769,-2.275
2770,-2.320
2771,-2.365
2772,-2.400
2773,-2.425
2774,-2.445
2775,-2.465
2776,-2.480
2777,-2.485
2778,-2.495
2779,-2.500
2780,-2.490
2781,-2.495
2782,-2.495
2783,-2.510
2784,-2.495
2785,-2.495
2786,-2.500
2787,-2.495
2788,-2.500
2789,-2.485
2790,-2.480
2791,-2.480
2792,-2.475
2793,-2.475
2794,-2.475
2795,-2.475
2796,-2.475
2797,-2.475
2798,-2.475
2799,-2.475
2800,-2.480
2801,-2.475
2802,-2.485
2803,-2.480
2804,-2.475
2805,-2.480
2806,-2.475
2807,-2.475
2808,-2.480
2809,-2.475
2810,-2.480
2811,-2.490
2812,-2.490
2813,-2.485
2814,-2.490
2815,-2.495
2816,-2.490
2817,-2.485
2818,-2.485
2819,-2.480
2820,-2.465
2821,-2.450
2822,-2.435
2823,-2.415
2824,-2.415
2825,-2.400
2826,-2.400
2827,-2.400
2828,-2.385
2829,-2.355
2830,-2.330
2831,-2.330
2832,-2.320
2833,-2.335
2834,-2.335
2835,-2.335
2836,-2.365
2837,-2.385
2838,-2.420
2839,-2.460
2840,-2.495
2841,-2.515
2842,-2.525
2843,-2.535
2844,-2.535
2845,-2.545
2846,-2.540
2847,-2.535
2848,-2.540
2849,-2.535
2850,-2.535
2851,-2.535
2852,-2.540
2853,-2.535
2854,-2.535
2855,-2.535
2856,-2.535
2857,-2.535
2858,-2.535
2859,-2.535
2860,-2.490
2861,-2.365
2862,-2.100
2863,-1.705
2864,-1.265
2865,-0.925
2866,-0.895
2867,-1.240
2868,-1.760
2869,-2.340
2870,-2.720
2871,-2.790
2872,-2.710
2873,-2.585
2874,-2.520
2875,-2.500
2876,-2.505
2877,-2.530
2878,-2.520
2879,-2.525
2880,-2.525
2881,-2.535
2882,-2.530
2883,-2.520
2884,-2.520
2885,-2.510
2886,-2.515
2887,-2.510
2888,-2.510
2889,-2.510
2890,-2.505
2891,-2.505
2892,-2.505
2893,-2.500
2894,-2.505
2895,-2.500
2896,-2.490
2897,-2.480
2898,-2.480
2899,-2.475
2900,-2.465
2901,-2.465
2902,-2.460
2903,-2.460
2904,-2.445
2905,-2.450
2906,-2.445
2907,-2.435
2908,-2.420
2909,-2.420
2910,-2.415
2911,-2.400
2912,-2.385
2913,-2.370
2914,-2.340
2915,-2.345
2916,-2.325
2917,-2.315
2918,-2.300
2919,-2.270
2920,-2.265
2921,-2.240
2922,-2.220
2923,-2.205
2924,-2.170
2925,-2.160
2926,-2.140
2927,-2.115
2928,-2.095
2929,-2.095
2930,-2.100
2931,-2.130
2932,-2.175
2933,-2.220
2934,-2.275
2935,-2.315
2936,-2.345
2937,-2.385
2938,-2.405
2939,-2.435
2940,-2.450
2941,-2.470
2942,-2.470
2943,-2.475
2944,-2.475
2945,-2.475
2946,-2.480
2947,-2.475
2948,-2.475
2949,-2.475
2950,-2.470
2951,-2.470
2952,-2.465
2953,-2.470
2954,-2.475
2955,-2.475
2956,-2.470
2957,-2.460
2958,-2.460
2959,-2.455
2960,-2.465
2961,-2.475
2962,-2.470
2963,-2.470
2964,-2.465
2965,-2.455
2966,-2.465
2967,-2.465
2968,-2.465
2969,-2.460
2970,-2.465
2971,-2.470
2972,-2.465
2973,-2.465
2974,-2.465
2975,-2.475
2976,-2.480
2977,-2.475
2978,-2.475
2979,-2.475
2980,-2.475
2981,-2.475
2982,-2.480
2983,-2.470
2984,-2.460
2985,-2.450
2986,-2.435
2987,-2.420
2988,-2.400
2989,-2.395
2990,-2.390
2991,-2.390
2992,-2.385
2993,-2.375
2994,-2.365
2995,-2.335
2996,-2.320
2997,-2.310
2998,-2.310
2999,-2.315
3000,-2.310
3001,-2.330
3002,-2.355
3003,-2.400
3004,-2.420
3005,-2.460
3006,-2.480
3007,-2.500
3008,-2.520
3009,-2.515
3010,-2.520
3011,-2.520
3012,-2.520
3013,-2.520
3014,-2.520
3015,-2.520
3016,-2.520
3017,-2.525
3018,-2.525
3019,-2.520
3020,-2.520
3021,-2.515
3022,-2.515
3023,-2.510
3024,-2.520
3025,-2.500
3026,-2.450
3027,-2.325
3028,-2.050
3029,-1.640
3030,-1.195
3031,-0.880
3032,-0.880
3033,-1.225
3034,-1.750
3035,-2.295
3036,-2.630
3037,-2.695
3038,-2.620
3039,-2.535
3040,-2.480
3041,-2.465
3042,-2.475
3043,-2.495
3044,-2.505
3045,-2.515
3046,-2.510
3047,-2.510
3048,-2.505
3049,-2.505
3050,-2.510
3051,-2.500
3052,-2.500
3053,-2.495
3054,-2.495
3055,-2.500
3056,-2.480
3057,-2.480
3058,-2.470
3059,-2.475
3060,-2.475
3061,-2.465
3062,-2.465
3063,-2.470
3064,-2.465
3065,-2.455
3066,-2.450
3067,-2.445
3068,-2.445
3069,-2.445
3070,-2.435
3071,-2.430
3072,-2.420
3073,-2.415
3074,-2.405
3075,-2.400
3076,-2.400
3077,-2.385
3078,-2.370
3079,-2.360
3080,-2.340
3081,-2.330
3082,-2.315
3083,-2.300
3084,-2.290
3085,-2.265
3086,-2.245
3087,-2.230
3088,-2.205
3089,-2.185
3090,-2.165
3091,-2.145
3092,-2.105
3093,-2.085
3094,-2.080
3095,-2.090
3096,-2.110
3097,-2.130
3098,-2.175
3099,-2.215
3100,-2.265
3101,-2.300
3102,-2.335
3103,-2.380
3104,-2.400
3105,-2.420
3106,-2.435
3107,-2.445
3108,-2.450
3109,-2.450
3110,-2.450
3111,-2.455
3112,-2.455
3113,-2.465
3114,-2.460
3115,-2.455
3116,-2.455
3117,-2.450
3118,-2.450
3119,-2.450
3120,-2.450
3121,-2.450
3122,-2.445
3123,-2.445
3124,-2.435
3125,-2.440
3126,-2.445
3127,-2.445
3128,-2.450
3129,-2.450
3130,-2.445
3131,-2.435
3132,-2.430
3133,-2.435
3134,-2.450
3135,-2.445
3136,-2.450
3137,-2.445
3138,-2.450
3139,-2.465
3140,-2.450
3141,-2.450
3142,-2.450
3143,-2.450
3144,-2.455
3145,-2.450
3146,-2.450
3147,-2.450
3148,-2.455
3149,-2.455
3150,-2.450
3151,-2.450
3152,-2.445
3153,-2.425
3154,-2.410
3155,-2.395
3156,-2.385
3157,-2.370
3158,-2.370
3159,-2.370
3160,-2.365
3161,-2.345
3162,-2.330
3163,-2.305
3164,-2.305
3165,-2.295
3166,-2.300
3167,-2.300
3168,-2.310
3169,-2.335
3170,-2.365
3171,-2.400
3172,-2.435
3173,-2.460
3174,-2.475
3175,-2.495
3176,-2.495
3177,-2.500
3178,-2.500
3179,-2.500
3180,-2.505
3181,-2.515
3182,-2.505
3183,-2.505
3184,-2.510
3185,-2.505
3186,-2.520
3187,-2.510
3188,-2.505
3189,-2.495
3190,-2.490
3191,-2.505
3192,-2.495
3193,-2.475
3194,-2.375
3195,-2.175
3196,-1.810
3197,-1.370
3198,-0.995
3199,-0.855
3200,-1.060
3201,-1.500
3202,-2.030
3203,-2.450
3204,-2.640
3205,-2.635
3206,-2.555
3207,-2.485
3208,-2.460
3209,-2.460
3210,-2.475
3211,-2.480
3212,-2.495
3213,-2.500
3214,-2.500
3215,-2.505
3216,-2.500
3217,-2.495
3218,-2.490
3219,-2.495
3220,-2.495
3221,-2.490
3222,-2.490
3223,-2.495
3224,-2.480
3225,-2.480
3226,-2.485
3227,-2.480
3228,-2.485
3229,-2.465
3230,-2.455
3231,-2.455
3232,-2.460
3233,-2.460
3234,-2.450
3235,-2.450
3236,-2.435
3237,-2.435
3238,-2.425
3239,-2.420
3240,-2.420
3241,-2.400
3242,-2.395
3243,-2.385
3244,-2.380
3245,-2.365
3246,-2.355
3247,-2.340
3248,-2.335
3249,-2.330
3250,-2.315
3251,-2.300
3252,-2.275
3253,-2.265
3254,-2.240
3255,-2.225
3256,-2.205
3257,-2.190
3258,-2.170
3259,-2.145
3260,-2.115
3261,-2.095
3262,-2.080
3263,-2.080
3264,-2.090
3265,-2.115
3266,-2.155
3267,-2.200
3268,-2.245
3269,-2.290
3270,-2.320
3271,-2.365
3272,-2.400
3273,-2.420
3274,-2.435
3275,-2.445
3276,-2.445
3277,-2.450
3278,-2.450
3279,-2.455
3280,-2.460
3281,-2.460
3282,-2.460
3283,-2.455
3284,-2.450
3285,-2.450
3286,-2.450
3287,-2.450
3288,-2.445
3289,-2.445
3290,-2.445
3291,-2.445
3292,-2.450
3293,-2.445
3294,-2.445
3295,-2.445
3296,-2.450
3297,-2.450
3298,-2.445
3299,-2.445
3300,-2.445
3301,-2.450
3302,-2.450
3303,-2.450
3304,-2.450
3305,-2.450
3306,-2.450
3307,-2.450
3308,-2.455
3309,-2.455
3310,-2.455
3311,-2.460
3312,-2.475
3313,-2.465
3314,-2.470
3315,-2.460
3316,-2.465
3317,-2.475
3318,-2.470
3319,-2.470
3320,-2.460
3321,-2.465
3322,-2.455
3323,-2.445
3324,-2.430
3325,-2.410
3326,-2.395
3327,-2.385
3328,-2.370
3329,-2.370
3330,-2.370
3331,-2.365
3332,-2.340
3333,-2.315
3334,-2.310
3335,-2.315
3336,-2.320
3337,-2.325
3338,-2.335
3339,-2.355
3340,-2.385
3341,-2.415
3342,-2.445
3343,-2.485
3344,-2.495
3345,-2.510
3346,-2.520
3347,-2.515
3348,-2.510
3349,-2.515
3350,-2.520
3351,-2.520
3352,-2.520
3353,-2.525
3354,-2.545
3355,-2.535
3356,-2.530
3357,-2.530
3358,-2.515
3359,-2.520
3360,-2.510
3361,-2.525
3362,-2.530
3363,-2.505
3364,-2.420
3365,-2.230
3366,-1.895
3367,-1.480
3368,-1.095
3369,-0.895
3370,-1.010
3371,-1.385
3372,-1.895
3373,-2.370
3374,-2.650
3375,-2.690
3376,-2.620
3377,-2.535
3378,-2.500
3379,-2.490
3380,-2.505
3381,-2.520
3382,-2.525
3383,-2.525
3384,-2.525
3385,-2.530
3386,-2.510
3387,-2.525
3388,-2.520
3389,-2.525
3390,-2.520
3391,-2.515
3392,-2.510
3393,-2.510
3394,-2.510
3395,-2.505
3396,-2.505
3397,-2.500
3398,-2.490
3399,-2.485
3400,-2.490
3401,-2.500
3402,-2.475
3403,-2.470
3404,-2.475
3405,-2.470
3406,-2.470
3407,-2.460
3408,-2.450
3409,-2.440
3410,-2.435
3411,-2.435
3412,-2.425
3413,-2.420
3414,-2.415
3415,-2.400
3416,-2.385
3417,-2.365
3418,-2.360
3419,-2.355
3420,-2.340
3421,-2.330
3422,-2.300
3423,-2.280
3424,-2.275
3425,-2.260
3426,-2.235
3427,-2.210
3428,-2.190
3429,-2.160
3430,-2.130
3431,-2.115
3432,-2.095
3433,-2.085
3434,-2.090
3435,-2.120
3436,-2.165
3437,-2.205
3438,-2.255
3439,-2.305
3440,-2.340
3441,-2.385
3442,-2.400
3443,-2.445
3444,-2.445
3445,-2.460
3446,-2.475
3447,-2.480
3448,-2.495
3449,-2.480
3450,-2.480
3451,-2.480
3452,-2.480
3453,-2.485
3454,-2.480
3455,-2.480
3456,-2.475
3457,-2.475
3458,-2.475
3459,-2.475
3460,-2.475
3461,-2.470
3462,-2.465
3463,-2.465
3464,-2.475
3465,-2.475
3466,-2.485
3467,-2.485
3468,-2.485
3469,-2.475
3470,-2.470
3471,-2.465
3472,-2.465
3473,-2.475
3474,-2.480
3475,-2.475
3476,-2.480
3477,-2.475
3478,-2.475
3479,-2.480
3480,-2.480
3481,-2.485
3482,-2.500
3483,-2.505
3484,-2.500
3485,-2.505
3486,-2.490
3487,-2.490
3488,-2.490
3489,-2.485
3490,-2.505
3491,-2.490
3492,-2.480
3493,-2.475
3494,-2.455
3495,-2.445
3496,-2.420
3497,-2.415
3498,-2.400
3499,-2.400
3500,-2.400
3501,-2.385
3502,-2.370
3503,-2.350
3504,-2.340
3505,-2.340
3506,-2.335
3507,-2.335
3508,-2.350
3509,-2.365
3510,-2.390
3511,-2.420
3512,-2.450
3513,-2.485
3514,-2.510
3515,-2.520
3516,-2.540
3517,-2.545
3518,-2.555
3519,-2.555
3520,-2.540
3521,-2.550
3522,-2.555
3523,-2.555
3524,-2.555
3525,-2.555
3526,-2.550
3527,-2.535
3528,-2.540
3529,-2.535
3530,-2.545
3531,-2.555
3532,-2.570
3533,-2.540
3534,-2.490
3535,-2.355
3536,-2.095
3537,-1.725
3538,-1.340
3539,-1.055
3540,-1.055
3541,-1.365
3542,-1.880
3543,-2.415
3544,-2.765
3545,-2.860
3546,-2.785
3547,-2.660
3548,-2.570
3549,-2.525
3550,-2.525
3551,-2.530
3552,-2.540
3553,-2.555
3554,-2.555
3555,-2.560
3556,-2.550
3557,-2.540
3558,-2.525
3559,-2.530
3560,-2.525
3561,-2.535
3562,-2.525
3563,-2.530
3564,-2.525
3565,-2.520
3566,-2.510
3567,-2.505
3568,-2.505
3569,-2.515
3570,-2.510
3571,-2.500
3572,-2.495
3573,-2.490
3574,-2.500
3575,-2.480
3576,-2.480
3577,-2.475
3578,-2.470
3579,-2.470
3580,-2.450
3581,-2.445
3582,-2.435
3583,-2.430
3584,-2.425
3585,-2.415
3586,-2.400
3587,-2.395
3588,-2.385
3589,-2.380
3590,-2.350
3591,-2.335
3592,-2.320
3593,-2.300
3594,-2.275
3595,-2.255
3596,-2.240
3597,-2.220
3598,-2.200
3599,-2.170
3600,-2.140
3601,-2.115
3602,-2.105
3603,-2.095
3604,-2.095
3605,-2.105
3606,-2.130
3607,-2.165
3608,-2.215
3609,-2.265
3610,-2.315
3611,-2.355
3612,-2.400
3613,-2.420
3614,-2.445
3615,-2.465
3616,-2.490
3617,-2.480
3618,-2.480
3619,-2.485
3620,-2.490
3621,-2.505
3622,-2.495
3623,-2.495
3624,-2.490
3625,-2.490
3626,-2.495
3627,-2.490
3628,-2.485
3629,-2.485
3630,-2.480
3631,-2.485
3632,-2.480
3633,-2.475
3634,-2.475
3635,-2.475
3636,-2.475
3637,-2.475
3638,-2.475
3639,-2.475
3640,-2.480
3641,-2.485
3642,-2.485
3643,-2.480
3644,-2.475
3645,-2.485
3646,-2.485
3647,-2.495
3648,-2.495
3649,-2.485
3650,-2.490
3651,-2.490
3652,-2.495
3653,-2.490
3654,-2.495
3655,-2.495
3656,-2.495
3657,-2.500
3658,-2.505
3659,-2.500
3660,-2.495
3661,-2.485
3662,-2.475
3663,-2.475
3664,-2.445
3665,-2.425
3666,-2.420
3667,-2.415
3668,-2.420
3669,-2.400
3670,-2.400
3671,-2.375
3672,-2.355
3673,-2.335
3674,-2.325
3675,-2.330
3676,-2.335
3677,-2.340
3678,-2.360
3679,-2.395
3680,-2.430
3681,-2.455
3682,-2.495
3683,-2.505
3684,-2.525
3685,-2.535
3686,-2.540
3687,-2.540
3688,-2.540
3689,-2.540
3690,-2.545
3691,-2.540
3692,-2.555
3693,-2.550
3694,-2.540
3695,-2.540
3696,-2.535
3697,-2.530
3698,-2.535
3699,-2.535
3700,-2.540
3701,-2.535
3702,-2.530
3703,-2.485
3704,-2.355
3705,-2.090
3706,-1.725
3707,-1.310
3708,-1.000
3709,-0.985
3710,-1.290
3711,-1.800
3712,-2.355
3713,-2.725
3714,-2.815
3715,-2.735
3716,-2.620
3717,-2.540
3718,-2.505
3719,-2.505
3720,-2.520
3721,-2.530
3722,-2.530
3723,-2.530
3724,-2.525
3725,-2.520
3726,-2.525
3727,-2.520
3728,-2.510
3729,-2.505
3730,-2.505
3731,-2.505
3732,-2.505
3733,-2.505
3734,-2.495
3735,-2.495
3736,-2.495
3737,-2.485
3738,-2.495
3739,-2.485
3740,-2.480
3741,-2.475
3742,-2.470
3743,-2.460
3744,-2.455
3745,-2.455
3746,-2.450
3747,-2.450
3748,-2.445
3749,-2.435
3750,-2.425
3751,-2.430
3752,-2.435
3753,-2.400
3754,-2.390
3755,-2.375
3756,-2.365
3757,-2.350
3758,-2.350
3759,-2.335
3760,-2.325
3761,-2.300
3762,-2.280
3763,-2.275
3764,-2.250
3765,-2.235
3766,-2.215
3767,-2.195
3768,-2.175
3769,-2.150
3770,-2.130
3771,-2.100
3772,-2.095
3773,-2.080
3774,-2.090
3775,-2.115
3776,-2.150
3777,-2.200
3778,-2.250
3779,-2.300
3780,-2.335
3781,-2.365
3782,-2.400
3783,-2.435
3784,-2.445
3785,-2.450
3786,-2.465
3787,-2.465
3788,-2.475
3789,-2.475
3790,-2.465
3791,-2.470
3792,-2.475
3793,-2.480
3794,-2.490
3795,-2.475
3796,-2.465
3797,-2.465
3798,-2.455
3799,-2.470
3800,-2.465
3801,-2.455
3802,-2.450
3803,-2.450
3804,-2.465
3805,-2.465
3806,-2.460
3807,-2.455
3808,-2.455
3809,-2.455
3810,-2.455
3811,-2.455
3812,-2.455
3813,-2.460
3814,-2.460
3815,-2.470
3816,-2.465
3817,-2.465
3818,-2.470
3819,-2.475
3820,-2.470
3821,-2.470
3822,-2.465
3823,-2.475
3824,-2.480
3825,-2.475
3826,-2.470
3827,-2.475
3828,-2.475
3829,-2.475
3830,-2.475
3831,-2.475
3832,-2.465
3833,-2.460
3834,-2.445
3835,-2.435
3836,-2.435
3837,-2.415
3838,-2.400
3839,-2.385
3840,-2.385
3841,-2.360
3842,-2.365
3843,-2.345
3844,-2.325
3845,-2.310
3846,-2.305
3847,-2.315
3848,-2.315
3849,-2.335
3850,-2.360
3851,-2.375
3852,-2.415
3853,-2.445
3854,-2.475
3855,-2.495
3856,-2.505
3857,-2.510
3858,-2.510
3859,-2.510
3860,-2.520
3861,-2.520
3862,-2.520
3863,-2.520
3864,-2.520
3865,-2.525
3866,-2.525
3867,-2.520
3868,-2.520
3869,-2.515
3870,-2.505
3871,-2.505
3872,-2.510
3873,-2.520
3874,-2.520
3875,-2.475
3876,-2.365
3877,-2.130
3878,-1.750
3879,-1.335
3880,-0.995
3881,-0.880
3882,-1.110
3883,-1.555
3884,-2.095
3885,-2.520
3886,-2.695
3887,-2.675
3888,-2.585
3889,-2.505
3890,-2.460
3891,-2.470
3892,-2.485
3893,-2.495
3894,-2.505
3895,-2.510
3896,-2.510
3897,-2.505
3898,-2.505
3899,-2.505
3900,-2.505
3901,-2.505
3902,-2.500
3903,-2.495
3904,-2.495
3905,-2.485
3906,-2.485
3907,-2.480
3908,-2.480
3909,-2.485
3910,-2.485
3911,-2.480
3912,-2.475
3913,-2.470
3914,-2.460
3915,-2.455
3916,-2.450
3917,-2.450
3918,-2.445
3919,-2.435
3920,-2.435
3921,-2.425
3922,-2.435
3923,-2.420
3924,-2.415
3925,-2.415
3926,-2.385
3927,-2.385
3928,-2.370
3929,-2.365
3930,-2.340
3931,-2.345
3932,-2.330
3933,-2.315
3934,-2.290
3935,-2.275
3936,-2.255
3937,-2.240
3938,-2.225
3939,-2.210
3940,-2.180
3941,-2.165
3942,-2.135
3943,-2.115
3944,-2.095
3945,-2.090
3946,-2.075
3947,-2.090
3948,-2.110
3949,-2.150
3950,-2.190
3951,-2.225
3952,-2.275
3953,-2.315
3954,-2.350
3955,-2.385
3956,-2.400
3957,-2.425
3958,-2.435
3959,-2.450
3960,-2.450
3961,-2.455
3962,-2.460
3963,-2.460
3964,-2.465
3965,-2.460
3966,-2.460
3967,-2.465
3968,-2.455
3969,-2.450
3970,-2.450
3971,-2.450
3972,-2.465
3973,-2.450
3974,-2.450
3975,-2.450
3976,-2.450
3977,-2.455
3978,-2.450
3979,-2.450
3980,-2.450
3981,-2.450
3982,-2.450
3983,-2.450
3984,-2.450
3985,-2.450
3986,-2.450
3987,-2.450
3988,-2.450
3989,-2.450
3990,-2.450
3991,-2.450
3992,-2.450
3993,-2.450
3994,-2.450
3995,-2.460
3996,-2.465
3997,-2.455
3998,-2.455
3999,-2.460
4000,-2.465
4001,-2.465
4002,-2.465
4003,-2.475
4004,-2.475
4005,-2.470
4006,-2.455
4007,-2.445
4008,-2.435
4009,-2.420
4010,-2.400
4011,-2.385
4012,-2.385
4013,-2.385
4014,-2.365
4015,-2.365
4016,-2.350
4017,-2.335
4018,-2.315
4019,-2.290
4020,-2.300
4021,-2.305
4022,-2.315
4023,-2.325
4024,-2.340
4025,-2.375
4026,-2.400
4027,-2.425
4028,-2.455
4029,-2.485
4030,-2.505
4031,-2.510
4032,-2.510
4033,-2.510
4034,-2.510
4035,-2.520
4036,-2.520
4037,-2.515
4038,-2.520
4039,-2.515
4040,-2.520
4041,-2.520
4042,-2.520
4043,-2.515
4044,-2.520
4045,-2.520
4046,-2.520
4047,-2.520
4048,-2.510
4049,-2.465
4050,-2.350
4051,-2.130
4052,-1.780
4053,-1.370
4054,-1.025
4055,-0.925
4056,-1.145
4057,-1.580
4058,-2.095
4059,-2.510
4060,-2.665
4061,-2.665
4062,-2.570
4063,-2.505
4064,-2.480
4065,-2.480
4066,-2.505
4067,-2.510
4068,-2.520
4069,-2.520
4070,-2.520
4071,-2.520
4072,-2.525
4073,-2.525
4074,-2.520
4075,-2.510
4076,-2.505
4077,-2.505
4078,-2.500
4079,-2.505
4080,-2.505
4081,-2.500
4082,-2.495
4083,-2.480
4084,-2.480
4085,-2.485
4086,-2.480
4087,-2.480
4088,-2.465
4089,-2.475
4090,-2.465
4091,-2.455
4092,-2.455
4093,-2.455
4094,-2.450
4095,-2.445
4096,-2.435
4097,-2.425
4098,-2.420
4099,-2.415
4100,-2.400
4101,-2.395
4102,-2.385
4103,-2.365
4104,-2.365
4105,-2.350
4106,-2.340
4107,-2.320
4108,-2.290
4109,-2.290
4110,-2.275
4111,-2.265
4112,-2.245
4113,-2.220
4114,-2.200
4115,-2.175
4116,-2.150
4117,-2.130
4118,-2.115
4119,-2.095
4120,-2.095
4121,-2.115
4122,-2.145
4123,-2.185
4124,-2.230
4125,-2.275
4126,-2.315
4127,-2.360
4128,-2.395
4129,-2.420
4130,-2.435
4131,-2.450
4132,-2.460
4133,-2.465
4134,-2.475
4135,-2.480
4136,-2.475
4137,-2.475
4138,-2.475
4139,-2.480
4140,-2.480
4141,-2.485
4142,-2.485
4143,-2.475
4144,-2.480
4145,-2.485
4146,-2.465
4147,-2.475
4148,-2.475
4149,-2.475
4150,-2.475
4151,-2.455
4152,-2.460
4153,-2.460
4154,-2.465
4155,-2.470
4156,-2.465
4157,-2.465
4158,-2.465
4159,-2.460
4160,-2.465
4161,-2.470
4162,-2.465
4163,-2.470
4164,-2.475
4165,-2.470
4166,-2.475
4167,-2.475
4168,-2.470
4169,-2.475
4170,-2.480
4171,-2.480
4172,-2.480
4173,-2.485
4174,-2.480
4175,-2.485
4176,-2.480
4177,-2.475
4178,-2.475
4179,-2.475
4180,-2.465
4181,-2.455
4182,-2.435
4183,-2.420
4184,-2.410
4185,-2.400
4186,-2.395
4187,-2.415
4188,-2.385
4189,-2.370
4190,-2.350
4191,-2.330
4192,-2.310
4193,-2.325
4194,-2.330
4195,-2.335
4196,-2.350
4197,-2.365
4198,-2.400
4199,-2.435
4200,-2.465
4201,-2.485
4202,-2.510
4203,-2.520
4204,-2.525
4205,-2.530
4206,-2.525
4207,-2.530
4208,-2.535
4209,-2.540
4210,-2.535
4211,-2.535
4212,-2.535
4213,-2.540
4214,-2.545
4215,-2.535
4216,-2.535
4217,-2.535
4218,-2.530
4219,-2.525
4220,-2.530
4221,-2.530
4222,-2.485
4223,-2.370
4224,-2.130
4225,-1.770
4226,-1.355
4227,-1.030
4228,-0.990
4229,-1.275
4230,-1.715
4231,-2.215
4232,-2.555
4233,-2.675
4234,-2.650
4235,-2.555
4236,-2.505
4237,-2.485
4238,-2.495
4239,-2.520
4240,-2.525
4241,-2.535
4242,-2.530
4243,-2.535
4244,-2.535
4245,-2.535
4246,-2.535
4247,-2.535
4248,-2.525
4249,-2.525
4250,-2.525
4251,-2.520
4252,-2.520
4253,-2.520
4254,-2.515
4255,-2.510
4256,-2.505
4257,-2.500
4258,-2.500
4259,-2.495
4260,-2.495
4261,-2.490
4262,-2.480
4263,-2.485
4264,-2.475
4265,-2.475
4266,-2.470
4267,-2.470
4268,-2.465
4269,-2.450
4270,-2.435
4271,-2.435
4272,-2.430
4273,-2.420
4274,-2.410
4275,-2.395
4276,-2.400
4277,-2.370
4278,-2.365
4279,-2.350
4280,-2.335
4281,-2.300
4282,-2.305
4283,-2.280
4284,-2.265
4285,-2.250
4286,-2.225
4287,-2.205
4288,-2.180
4289,-2.160
4290,-2.130
4291,-2.120
4292,-2.105
4293,-2.105
4294,-2.120
4295,-2.150
4296,-2.200
4297,-2.240
4298,-2.285
4299,-2.340
4300,-2.375
4301,-2.405
4302,-2.425
4303,-2.445
4304,-2.465
4305,-2.475
4306,-2.480
4307,-2.490
4308,-2.475
4309,-2.485
4310,-2.490
4311,-2.490
4312,-2.495
4313,-2.500
4314,-2.495
4315,-2.495
4316,-2.490
4317,-2.485
4318,-2.490
4319,-2.475
4320,-2.480
4321,-2.485
4322,-2.490
4323,-2.500
4324,-2.495
4325,-2.495
4326,-2.490
4327,-2.485
4328,-2.480
4329,-2.480
4330,-2.475
4331,-2.475
4332,-2.480
4333,-2.485
4334,-2.480
4335,-2.485
4336,-2.490
4337,-2.495
4338,-2.495
4339,-2.495
4340,-2.495
4341,-2.495
4342,-2.490
4343,-2.495
4344,-2.495
4345,-2.505
4346,-2.500
4347,-2.505
4348,-2.505
4349,-2.505
4350,-2.500
4351,-2.500
4352,-2.495
4353,-2.485
4354,-2.475
4355,-2.455
4356,-2.435
4357,-2.425
4358,-2.415
4359,-2.420
4360,-2.415
4361,-2.400
4362,-2.385
4363,-2.365
4364,-2.340
4365,-2.330
4366,-2.340
4367,-2.350
4368,-2.355
4369,-2.370
4370,-2.405
4371,-2.425
4372,-2.450
4373,-2.480
4374,-2.515
4375,-2.530
4376,-2.535
4377,-2.550
4378,-2.555
4379,-2.555
4380,-2.555
4381,-2.560
4382,-2.565
4383,-2.570
4384,-2.570
4385,-2.570
4386,-2.570
4387,-2.570
4388,-2.560
4389,-2.570
4390,-2.560
4391,-2.555
4392,-2.555
4393,-2.570
4394,-2.540
4395,-2.465
4396,-2.305
4397,-2.010
4398,-1.605
4399,-1.220
4400,-0.995
4401,-1.100
4402,-1.485
4403,-1.995
4404,-2.465
4405,-2.710
4406,-2.725
4407,-2.660
4408,-2.570
4409,-2.530
4410,-2.520
4411,-2.535
4412,-2.555
4413,-2.555
4414,-2.570
4415,-2.560
4416,-2.570
4417,-2.570
4418,-2.570
4419,-2.570
4420,-2.555
4421,-2.560
4422,-2.555
4423,-2.555
4424,-2.545
4425,-2.550
4426,-2.540
4427,-2.540
4428,-2.535
4429,-2.535
4430,-2.535
4431,-2.525
4432,-2.520
4433,-2.520
4434,-2.520
4435,-2.520
4436,-2.520
4437,-2.515
4438,-2.500
4439,-2.485
4440,-2.480
4441,-2.475
4442,-2.475
4443,-2.470
4444,-2.460
4445,-2.445
4446,-2.435
4447,-2.420
4448,-2.415
4449,-2.400
4450,-2.385
4451,-2.370
4452,-2.355
4453,-2.340
4454,-2.315
4455,-2.315
4456,-2.295
4457,-2.275
4458,-2.250
4459,-2.235
4460,-2.220
4461,-2.195
4462,-2.165
4463,-2.130
4464,-2.115
4465,-2.105
4466,-2.100
4467,-2.130
4468,-2.165
4469,-2.215
4470,-2.260
4471,-2.305
4472,-2.350
4473,-2.390
4474,-2.425
4475,-2.465
4476,-2.485
4477,-2.495
4478,-2.500
4479,-2.505
4480,-2.510
4481,-2.515
4482,-2.520
4483,-2.520
4484,-2.520
4485,-2.520
4486,-2.520
4487,-2.520
4488,-2.515
4489,-2.505
4490,-2.510
4491,-2.515
4492,-2.520
4493,-2.510
4494,-2.505
4495,-2.505
4496,-2.510
4497,-2.510
4498,-2.510
4499,-2.510
4500,-2.510
4501,-2.520
4502,-2.515
4503,-2.510
4504,-2.520
4505,-2.525
4506,-2.525
4507,-2.525
4508,-2.525
4509,-2.510
4510,-2.510
4511,-2.520
4512,-2.525
4513,-2.525
4514,-2.520
4515,-2.525
4516,-2.520
4517,-2.530
4518,-2.525
4519,-2.530
4520,-2.530
4521,-2.530
4522,-2.520
4523,-2.510
4524,-2.490
4525,-2.480
4526,-2.465
4527,-2.465
4528,-2.450
4529,-2.445
4530,-2.445
4531,-2.435
4532,-2.420
4533,-2.400
4534,-2.385
4535,-2.380
4536,-2.385
4537,-2.385
4538,-2.370
4539,-2.385
4540,-2.400
4541,-2.420
4542,-2.450
4543,-2.500
4544,-2.520
4545,-2.545
4546,-2.560
4547,-2.575
4548,-2.585
4549,-2.580
4550,-2.580
4551,-2.570
4552,-2.585
4553,-2.585
4554,-2.590
4555,-2.600
4556,-2.600
4557,-2.590
4558,-2.580
4559,-2.580
4560,-2.570
4561,-2.575
4562,-2.570
4563,-2.580
4564,-2.585
4565,-2.570
4566,-2.510
4567,-2.385
4568,-2.135
4569,-1.765
4570,-1.365
4571,-1.090
4572,-1.110
4573,-1.435
4574,-1.935
4575,-2.480
4576,-2.800
4577,-2.860
4578,-2.785
4579,-2.675
4580,-2.585
4581,-2.555
4582,-2.555
4583,-2.560
4584,-2.570
4585,-2.600
4586,-2.580
4587,-2.580
4588,-2.570
4589,-2.575
4590,-2.570
4591,-2.570
4592,-2.555
4593,-2.550
4594,-2.555
4595,-2.555
4596,-2.555
4597,-2.555
4598,-2.555
4599,-2.540
4600,-2.535
4601,-2.530
4602,-2.530
4603,-2.535
4604,-2.535
4605,-2.525
4606,-2.520
4607,-2.505
4608,-2.505
4609,-2.495
4610,-2.490
4611,-2.490
4612,-2.485
4613,-2.475
4614,-2.465
4615,-2.465
4616,-2.450
4617,-2.445
4618,-2.435
4619,-2.420
4620,-2.400
4621,-2.395
4622,-2.385
4623,-2.360
4624,-2.345
4625,-2.335
4626,-2.315
4627,-2.285
4628,-2.280
4629,-2.265
4630,-2.250
4631,-2.220
4632,-2.180
4633,-2.170
4634,-2.145
4635,-2.120
4636,-2.100
4637,-2.100
4638,-2.120
4639,-2.150
4640,-2.190
4641,-2.230
4642,-2.275
4643,-2.325
4644,-2.365
4645,-2.415
4646,-2.435
4647,-2.455
4648,-2.480
4649,-2.485
4650,-2.495
4651,-2.505
4652,-2.510
4653,-2.520
4654,-2.520
4655,-2.520
4656,-2.520
4657,-2.520
4658,-2.510
4659,-2.500
4660,-2.510
4661,-2.505
4662,-2.505
4663,-2.500
4664,-2.505
4665,-2.505
4666,-2.500
4667,-2.505
4668,-2.495
4669,-2.510
4670,-2.490
4671,-2.500
4672,-2.495
4673,-2.500
4674,-2.515
4675,-2.500
4676,-2.495
4677,-2.490
4678,-2.495
4679,-2.505
4680,-2.505
4681,-2.505
4682,-2.505
4683,-2.510
4684,-2.510
4685,-2.505
4686,-2.500
4687,-2.505
4688,-2.510
4689,-2.515
4690,-2.515
4691,-2.505
4692,-2.510
4693,-2.505
4694,-2.500
4695,-2.485
4696,-2.470
4697,-2.455
4698,-2.440
4699,-2.425
4700,-2.420
4701,-2.420
4702,-2.420
4703,-2.410
4704,-2.385
4705,-2.365
4706,-2.350
4707,-2.335
4708,-2.340
4709,-2.355
4710,-2.355
4711,-2.370
4712,-2.385
4713,-2.420
4714,-2.450
4715,-2.490
4716,-2.530
4717,-2.530
4718,-2.535
4719,-2.535
4720,-2.540
4721,-2.560
4722,-2.550
4723,-2.555
4724,-2.555
4725,-2.555
4726,-2.555
4727,-2.555
4728,-2.555
4729,-2.555
4730,-2.555
4731,-2.540
4732,-2.535
4733,-2.535
4734,-2.545
4735,-2.545
4736,-2.525
4737,-2.465
4738,-2.285
4739,-1.980
4740,-1.580
4741,-1.185
4742,-0.975
4743,-1.060
4744,-1.425
4745,-1.930
4746,-2.435
4747,-2.725
4748,-2.775
4749,-2.705
4750,-2.605
4751,-2.530
4752,-2.505
4753,-2.510
4754,-2.525
4755,-2.535
4756,-2.535
4757,-2.530
4758,-2.535
4759,-2.525
4760,-2.525
4761,-2.530
4762,-2.525
4763,-2.535
4764,-2.520
4765,-2.520
4766,-2.520
4767,-2.510
4768,-2.510
4769,-2.500
4770,-2.505
4771,-2.500
4772,-2.500
4773,-2.500
4774,-2.490
4775,-2.485
4776,-2.470
4777,-2.470
4778,-2.465
4779,-2.470
4780,-2.465
4781,-2.460
4782,-2.455
4783,-2.450
4784,-2.445
4785,-2.435
4786,-2.425
4787,-2.415
4788,-2.400
4789,-2.395
4790,-2.370
4791,-2.370
4792,-2.350
4793,-2.340
4794,-2.330
4795,-2.315
4796,-2.300
4797,-2.280
4798,-2.265
4799,-2.245
4800,-2.215
4801,-2.215
4802,-2.185
4803,-2.160
4804,-2.130
4805,-2.095
4806,-2.095
4807,-2.085
4808,-2.085
4809,-2.105
4810,-2.130
4811,-2.180
4812,-2.215
4813,-2.265
4814,-2.300
4815,-2.335
4816,-2.370
4817,-2.400
4818,-2.425
4819,-2.450
4820,-2.455
4821,-2.465
4822,-2.465
4823,-2.475
4824,-2.475
4825,-2.480
4826,-2.480
4827,-2.475
4828,-2.470
4829,-2.470
4830,-2.470
4831,-2.475
4832,-2.475
4833,-2.470
4834,-2.465
4835,-2.465
4836,-2.465
4837,-2.460
4838,-2.460
4839,-2.460
4840,-2.455
4841,-2.470
4842,-2.460
4843,-2.460
4844,-2.460
4845,-2.455
4846,-2.450
4847,-2.470
4848,-2.455
4849,-2.455
4850,-2.455
4851,-2.465
4852,-2.465
4853,-2.455
4854,-2.460
4855,-2.470
4856,-2.475
4857,-2.475
4858,-2.470
4859,-2.475
4860,-2.465
4861,-2.465
4862,-2.465
4863,-2.470
4864,-2.465
4865,-2.465
4866,-2.450
4867,-2.435
4868,-2.420
4869,-2.400
4870,-2.395
4871,-2.385
4872,-2.385
4873,-2.385
4874,-2.370
4875,-2.355
4876,-2.335
4877,-2.320
4878,-2.305
4879,-2.305
4880,-2.310
4881,-2.315
4882,-2.330
4883,-2.345
4884,-2.365
4885,-2.390
4886,-2.425
4887,-2.460
4888,-2.490
4889,-2.515
4890,-2.510
4891,-2.515
4892,-2.510
4893,-2.515
4894,-2.530
4895,-2.520
4896,-2.520
4897,-2.525
4898,-2.525
4899,-2.525
4900,-2.520
4901,-2.510
4902,-2.510
4903,-2.505
4904,-2.510
4905,-2.505
4906,-2.505
4907,-2.510
4908,-2.480
4909,-2.385
4910,-2.195
4911,-1.875
4912,-1.470
4913,-1.110
4914,-0.900
4915,-0.995
4916,-1.335
4917,-1.805
4918,-2.275
4919,-2.580
4920,-2.665
4921,-2.620
4922,-2.540
4923,-2.490
4924,-2.470
4925,-2.475
4926,-2.490
4927,-2.495
4928,-2.505
4929,-2.510
4930,-2.515
4931,-2.510
4932,-2.505
4933,-2.505
4934,-2.500
4935,-2.500
4936,-2.505
4937,-2.500
4938,-2.490
4939,-2.495
4940,-2.490
4941,-2.495
4942,-2.475
4943,-2.475
4944,-2.475
4945,-2.475
4946,-2.470
4947,-2.465
4948,-2.465
4949,-2.455
4950,-2.455
4951,-2.450
4952,-2.450
4953,-2.445
4954,-2.440
4955,-2.435
4956,-2.425
4957,-2.425
4958,-2.420
4959,-2.400
4960,-2.385
4961,-2.375
4962,-2.370
4963,-2.355
4964,-2.355
4965,-2.345
4966,-2.330
4967,-2.315
4968,-2.290
4969,-2.275
4970,-2.255
4971,-2.245
4972,-2.215
4973,-2.205
4974,-2.180
4975,-2.165
4976,-2.145
4977,-2.115
4978,-2.080
4979,-2.070
4980,-2.075
4981,-2.070
4982,-2.085
4983,-2.105
4984,-2.150
4985,-2.205
4986,-2.250
4987,-2.300
4988,-2.335
4989,-2.370
4990,-2.395
4991,-2.405
4992,-2.425
4993,-2.435
4994,-2.445
4995,-2.450
4996,-2.455
4997,-2.455
4998,-2.450
4999,-2.455
5000,-2.455
5001,-2.455
5002,-2.455
5003,-2.455
5004,-2.450
5005,-2.450
5006,-2.450
5007,-2.450
5008,-2.445
5009,-2.445
5010,-2.435
5011,-2.435
5012,-2.435
5013,-2.440
5014,-2.445
5015,-2.445
5016,-2.435
5017,-2.440
5018,-2.435
5019,-2.445
5020,-2.460
5021,-2.445
5022,-2.445
5023,-2.450
5024,-2.450
5025,-2.455
5026,-2.450
5027,-2.450
5028,-2.450
5029,-2.455
5030,-2.455
5031,-2.455
5032,-2.450
5033,-2.450
5034,-2.445
5035,-2.450
5036,-2.450
5037,-2.455
5038,-2.450
5039,-2.445
5040,-2.420
5041,-2.400
5042,-2.385
5043,-2.375
5044,-2.370
5045,-2.370
5046,-2.365
5047,-2.350
5048,-2.335
5049,-2.320
5050,-2.305
5051,-2.300
5052,-2.295
5053,-2.300
5054,-2.300
5055,-2.320
5056,-2.340
5057,-2.365
5058,-2.390
5059,-2.420
5060,-2.450
5061,-2.475
5062,-2.490
5063,-2.500
5064,-2.505
5065,-2.505
5066,-2.505
5067,-2.510
5068,-2.505
5069,-2.510
5070,-2.510
5071,-2.510
5072,-2.520
5073,-2.510
5074,-2.515
5075,-2.515
5076,-2.505
5077,-2.505
5078,-2.495
5079,-2.505
5080,-2.495
5081,-2.470
5082,-2.385
5083,-2.180
5084,-1.860
5085,-1.450
5086,-1.095
5087,-0.910
5088,-1.030
5089,-1.390
5090,-1.875
5091,-2.330
5092,-2.585
5093,-2.645
5094,-2.585
5095,-2.515
5096,-2.465
5097,-2.460
5098,-2.470
5099,-2.480
5100,-2.495
5101,-2.505
5102,-2.500
5103,-2.505
5104,-2.505
5105,-2.505
5106,-2.505
5107,-2.495
5108,-2.495
5109,-2.505
5110,-2.490
5111,-2.490
5112,-2.485
5113,-2.485
5114,-2.490
5115,-2.485
5116,-2.480
5117,-2.470
5118,-2.470
5119,-2.475
5120,-2.465
5121,-2.450
5122,-2.450
5123,-2.445
5124,-2.450
5125,-2.445
5126,-2.435
5127,-2.435
5128,-2.430
5129,-2.420
5130,-2.420
5131,-2.410
5132,-2.400
5133,-2.390
5134,-2.385
5135,-2.370
5136,-2.365
5137,-2.355
5138,-2.340
5139,-2.330
5140,-2.310
5141,-2.295
5142,-2.280
5143,-2.265
5144,-2.245
5145,-2.220
5146,-2.200
5147,-2.180
5148,-2.165
5149,-2.145
5150,-2.115
5151,-2.085
5152,-2.080
5153,-2.075
5154,-2.080
5155,-2.095
5156,-2.120
5157,-2.165
5158,-2.210
5159,-2.255
5160,-2.305
5161,-2.340
5162,-2.370
5163,-2.400
5164,-2.420
5165,-2.435
5166,-2.455
5167,-2.465
5168,-2.465
5169,-2.470
5170,-2.465
5171,-2.470
5172,-2.465
5173,-2.470
5174,-2.460
5175,-2.465
5176,-2.465
5177,-2.460
5178,-2.460
5179,-2.455
5180,-2.455
5181,-2.455
5182,-2.455
5183,-2.460
5184,-2.460
5185,-2.455
5186,-2.450
5187,-2.455
5188,-2.455
5189,-2.450
5190,-2.450
5191,-2.450
5192,-2.450
5193,-2.455
5194,-2.450
5195,-2.455
5196,-2.455
5197,-2.455
5198,-2.470
5199,-2.455
5200,-2.460
5201,-2.465
5202,-2.465
5203,-2.480
5204,-2.475
5205,-2.475
5206,-2.475
5207,-2.475
5208,-2.475
5209,-2.465
5210,-2.470
5211,-2.455
5212,-2.450
5213,-2.435
5214,-2.420
5215,-2.410
5216,-2.385
5217,-2.385
5218,-2.385
5219,-2.390
5220,-2.370
5221,-2.360
5222,-2.330
5223,-2.320
5224,-2.320
5225,-2.320
5226,-2.330
5227,-2.325
5228,-2.340
5229,-2.355
5230,-2.385
5231,-2.415
5232,-2.445
5233,-2.470
5234,-2.495
5235,-2.510
5236,-2.515
5237,-2.520
5238,-2.520
5239,-2.530
5240,-2.540
5241,-2.535
5242,-2.535
5243,-2.535
5244,-2.535
5245,-2.550
5246,-2.530
5247,-2.530
5248,-2.525
5249,-2.525
5250,-2.525
5251,-2.520
5252,-2.525
5253,-2.530
5254,-2.510
5255,-2.435
5256,-2.270
5257,-1.975
5258,-1.585
5259,-1.200
5260,-0.955
5261,-0.990
5262,-1.280
5263,-1.715
5264,-2.190
5265,-2.535
5266,-2.660
5267,-2.640
5268,-2.570
5269,-2.510
5270,-2.485
5271,-2.490
5272,-2.490
5273,-2.510
5274,-2.520
5275,-2.525
5276,-2.525
5277,-2.530
5278,-2.535
5279,-2.535
5280,-2.530
5281,-2.530
5282,-2.525
5283,-2.520
5284,-2.510
5285,-2.505
5286,-2.510
5287,-2.520
5288,-2.510
5289,-2.505
5290,-2.505
5291,-2.500
5292,-2.495
5293,-2.485
5294,-2.480
5295,-2.480
5296,-2.480
5297,-2.485
5298,-2.475
5299,-2.470
5300,-2.455
5301,-2.450
5302,-2.445
5303,-2.445
5304,-2.435
5305,-2.435
5306,-2.425
5307,-2.415
5308,-2.400
5309,-2.385
5310,-2.370
5311,-2.360
5312,-2.350
5313,-2.345
5314,-2.325
5315,-2.305
5316,-2.290
5317,-2.275
5318,-2.260
5319,-2.245
5320,-2.215
5321,-2.180
5322,-2.160
5323,-2.130
5324,-2.115
5325,-2.095
5326,-2.090
5327,-2.095
5328,-2.110
5329,-2.130
5330,-2.175
5331,-2.215
5332,-2.265
5333,-2.315
5334,-2.350
5335,-2.395
5336,-2.415
5337,-2.435
5338,-2.460
5339,-2.475
5340,-2.480
5341,-2.495
5342,-2.495
5343,-2.500
5344,-2.495
5345,-2.495
5346,-2.490
5347,-2.490
5348,-2.495
5349,-2.485
5350,-2.495
5351,-2.495
5352,-2.495
5353,-2.500
5354,-2.490
5355,-2.485
5356,-2.480
5357,-2.480
5358,-2.480
5359,-2.490
5360,-2.490
5361,-2.480
5362,-2.490
5363,-2.480
5364,-2.475
5365,-2.480
5366,-2.480
5367,-2.485
5368,-2.490
5369,-2.485
5370,-2.495
5371,-2.505
5372,-2.495
5373,-2.485
5374,-2.485
5375,-2.495
5376,-2.505
5377,-2.495
5378,-2.495
5379,-2.500
5380,-2.510
5381,-2.515
5382,-2.505
5383,-2.505
5384,-2.495
5385,-2.480
5386,-2.475
5387,-2.455
5388,-2.445
5389,-2.425
5390,-2.420
5391,-2.420
5392,-2.420
5393,-2.420
5394,-2.400
5395,-2.375
5396,-2.350
5397,-2.345
5398,-2.340
5399,-2.350
5400,-2.355
5401,-2.365
5402,-2.375
5403,-2.385
5404,-2.420
5405,-2.445
5406,-2.475
5407,-2.510
5408,-2.535
5409,-2.550
5410,-2.555
5411,-2.565
5412,-2.555
5413,-2.560
5414,-2.555
5415,-2.560
5416,-2.570
5417,-2.560
5418,-2.570
5419,-2.560
5420,-2.565
5421,-2.555
5422,-2.555
5423,-2.555
5424,-2.540
5425,-2.550
5426,-2.555
5427,-2.555
5428,-2.510
5429,-2.405
5430,-2.185
5431,-1.860
5432,-1.480
5433,-1.145
5434,-1.030
5435,-1.200
5436,-1.600
5437,-2.095
5438,-2.535
5439,-2.750
5440,-2.770
5441,-2.690
5442,-2.600
5443,-2.535
5444,-2.520
5445,-2.525
5446,-2.540
5447,-2.555
5448,-2.555
5449,-2.555
5450,-2.555
5451,-2.555
5452,-2.550
5453,-2.545
5454,-2.550
5455,-2.550
5456,-2.540
5457,-2.535
5458,-2.530
5459,-2.530
5460,-2.540
5461,-2.540
5462,-2.535
5463,-2.535
5464,-2.525
5465,-2.530
5466,-2.505
5467,-2.505
5468,-2.510
5469,-2.505
5470,-2.495
5471,-2.495
5472,-2.490
5473,-2.480
5474,-2.475
5475,-2.475
5476,-2.465
5477,-2.450
5478,-2.445
5479,-2.435
5480,-2.435
5481,-2.430
5482,-2.415
5483,-2.400
5484,-2.385
5485,-2.370
5486,-2.350
5487,-2.340
5488,-2.325
5489,-2.300
5490,-2.285
5491,-2.265
5492,-2.245
5493,-2.220
5494,-2.205
5495,-2.195
5496,-2.170
5497,-2.150
5498,-2.120
5499,-2.100
5500,-2.090
5501,-2.095
5502,-2.115
5503,-2.165
5504,-2.200
5505,-2.250
5506,-2.295
5507,-2.320
5508,-2.385
5509,-2.420
5510,-2.450
5511,-2.475
5512,-2.490
5513,-2.495
5514,-2.500
5515,-2.505
5516,-2.510
5517,-2.520
5518,-2.515
5519,-2.520
5520,-2.520
5521,-2.510
5522,-2.515
5523,-2.520
5524,-2.520
5525,-2.520
5526,-2.510
5527,-2.510
5528,-2.505
5529,-2.510
5530,-2.510
5531,-2.520
5532,-2.520
5533,-2.520
5534,-2.510
5535,-2.505
5536,-2.505
5537,-2.515
5538,-2.520
5539,-2.515
5540,-2.510
5541,-2.515
5542,-2.510
5543,-2.510
5544,-2.510
5545,-2.520
5546,-2.520
5547,-2.525
5548,-2.525
5549,-2.535
5550,-2.525
5551,-2.525
5552,-2.520
5553,-2.525
5554,-2.525
5555,-2.510
5556,-2.505
5557,-2.495
5558,-2.485
5559,-2.470
5560,-2.455
5561,-2.450
5562,-2.445
5563,-2.445
5564,-2.445
5565,-2.420
5566,-2.400
5567,-2.385
5568,-2.385
5569,-2.385
5570,-2.385
5571,-2.385
5572,-2.400
5573,-2.410
5574,-2.435
5575,-2.455
5576,-2.490
5577,-2.530
5578,-2.555
5579,-2.570
5580,-2.570
5581,-2.570
5582,-2.585
5583,-2.590
5584,-2.600
5585,-2.600
5586,-2.590
5587,-2.590
5588,-2.585
5589,-2.595
5590,-2.600
5591,-2.610
5592,-2.595
5593,-2.590
5594,-2.585
5595,-2.580
5596,-2.600
5597,-2.590
5598,-2.600
5599,-2.575
5600,-2.495
5601,-2.315
5602,-2.010
5603,-1.625
5604,-1.255
5605,-1.080
5606,-1.215
5607,-1.615
5608,-2.145
5609,-2.620
5610,-2.860
5611,-2.890
5612,-2.790
5613,-2.685
5614,-2.605
5615,-2.570
5616,-2.555
5617,-2.570
5618,-2.575
5619,-2.580
5620,-2.580
5621,-2.575
5622,-2.585
5623,-2.570
5624,-2.570
5625,-2.570
5626,-2.570
5627,-2.570
5628,-2.555
5629,-2.560
5630,-2.555
5631,-2.555
5632,-2.550
5633,-2.550
5634,-2.540
5635,-2.540
5636,-2.535
5637,-2.530
5638,-2.535
5639,-2.525
5640,-2.520
5641,-2.520
5642,-2.515
5643,-2.520
5644,-2.505
5645,-2.495
5646,-2.490
5647,-2.475
5648,-2.475
5649,-2.465
5650,-2.450
5651,-2.450
5652,-2.435
5653,-2.425
5654,-2.415
5655,-2.400
5656,-2.385
5657,-2.360
5658,-2.345
5659,-2.330
5660,-2.310
5661,-2.300
5662,-2.280
5663,-2.265
5664,-2.250
5665,-2.230
5666,-2.200
5667,-2.170
5668,-2.150
5669,-2.125
5670,-2.115
5671,-2.115
5672,-2.125
5673,-2.155
5674,-2.190
5675,-2.240
5676,-2.290
5677,-2.335
5678,-2.380
5679,-2.420
5680,-2.460
5681,-2.470
5682,-2.490
5683,-2.505
5684,-2.510
5685,-2.530
5686,-2.520
5687,-2.520
5688,-2.520
5689,-2.520
5690,-2.525
5691,-2.525
5692,-2.520
5693,-2.525
5694,-2.525
5695,-2.530
5696,-2.525
5697,-2.520
5698,-2.505
5699,-2.505
5700,-2.500
5701,-2.505
5702,-2.500
5703,-2.500
5704,-2.495
5705,-2.500
5706,-2.495
5707,-2.500
5708,-2.495
5709,-2.505
5710,-2.505
5711,-2.500
5712,-2.495
5713,-2.495
5714,-2.495
5715,-2.500
5716,-2.505
5717,-2.505
5718,-2.505
5719,-2.510
5720,-2.510
5721,-2.510
5722,-2.520
5723,-2.500
5724,-2.495
5725,-2.495
5726,-2.500
5727,-2.505
5728,-2.475
5729,-2.455
5730,-2.435
5731,-2.430
5732,-2.420
5733,-2.420
5734,-2.420
5735,-2.410
5736,-2.385
5737,-2.375
5738,-2.365
5739,-2.360
5740,-2.355
5741,-2.365
5742,-2.365
5743,-2.370
5744,-2.385
5745,-2.415
5746,-2.435
5747,-2.470
5748,-2.505
5749,-2.520
5750,-2.535
5751,-2.555
5752,-2.555
5753,-2.555
5754,-2.550
5755,-2.555
5756,-2.555
5757,-2.550
5758,-2.555
5759,-2.555
5760,-2.555
5761,-2.560
5762,-2.555
5763,-2.555
5764,-2.545
5765,-2.540
5766,-2.540
5767,-2.540
5768,-2.550
5769,-2.560
5770,-2.520
5771,-2.425
5772,-2.225
5773,-1.905
5774,-1.480
5775,-1.125
5776,-0.935
5777,-1.040
5778,-1.395
5779,-1.890
5780,-2.365
5781,-2.665
5782,-2.755
5783,-2.695
5784,-2.605
5785,-2.535
5786,-2.505
5787,-2.505
5788,-2.510
5789,-2.525
5790,-2.535
5791,-2.530
5792,-2.530
5793,-2.535
5794,-2.530
5795,-2.525
5796,-2.520
5797,-2.520
5798,-2.520
5799,-2.510
5800,-2.520
5801,-2.520
5802,-2.510
5803,-2.510
5804,-2.510
5805,-2.505
5806,-2.495
5807,-2.495
5808,-2.490
5809,-2.485
5810,-2.485
5811,-2.490
5812,-2.475
5813,-2.475
5814,-2.470
5815,-2.465
5816,-2.465
5817,-2.445
5818,-2.435
5819,-2.435
5820,-2.435
5821,-2.425
5822,-2.415
5823,-2.400
5824,-2.385
5825,-2.375
5826,-2.355
5827,-2.350
5828,-2.335
5829,-2.320
5830,-2.300
5831,-2.290
5832,-2.260
5833,-2.245
5834,-2.225
5835,-2.215
5836,-2.200
5837,-2.175
5838,-2.150
5839,-2.130
5840,-2.110
5841,-2.095
5842,-2.080
5843,-2.090
5844,-2.115
5845,-2.135
5846,-2.175
5847,-2.220
5848,-2.265
5849,-2.305
5850,-2.350
5851,-2.385
5852,-2.415
5853,-2.445
5854,-2.450
5855,-2.460
5856,-2.465
5857,-2.485
5858,-2.495
5859,-2.490
5860,-2.485
5861,-2.485
5862,-2.485
5863,-2.480
5864,-2.480
5865,-2.480
5866,-2.485
5867,-2.485
5868,-2.480
5869,-2.470
5870,-2.470
5871,-2.470
5872,-2.470
5873,-2.470
5874,-2.465
5875,-2.470
5876,-2.465
5877,-2.475
5878,-2.465
5879,-2.470
5880,-2.465
5881,-2.470
5882,-2.475
5883,-2.475
5884,-2.475
5885,-2.475
5886,-2.470
5887,-2.475
5888,-2.465
5889,-2.470
5890,-2.475
5891,-2.475
5892,-2.475
5893,-2.475
5894,-2.475
5895,-2.475
5896,-2.475
5897,-2.485
5898,-2.480
5899,-2.475
5900,-2.475
5901,-2.450
5902,-2.430
5903,-2.415
5904,-2.400
5905,-2.405
5906,-2.395
5907,-2.395
5908,-2.385
5909,-2.370
5910,-2.340
5911,-2.325
5912,-2.315
5913,-2.330
5914,-2.325
5915,-2.335
5916,-2.340
5917,-2.350
5918,-2.375
5919,-2.400
5920,-2.435
5921,-2.470
5922,-2.495
5923,-2.510
5924,-2.520
5925,-2.520
5926,-2.520
5927,-2.525
5928,-2.525
5929,-2.535
5930,-2.535
5931,-2.535
5932,-2.535
5933,-2.535
5934,-2.535
5935,-2.535
5936,-2.530
5937,-2.530
5938,-2.525
5939,-2.520
5940,-2.525
5941,-2.535
5942,-2.535
5943,-2.465
5944,-2.340
5945,-2.105
5946,-1.740
5947,-1.320
5948,-1.005
5949,-0.930
5950,-1.180
5951,-1.640
5952,-2.175
5953,-2.555
5954,-2.680
5955,-2.655
5956,-2.570
5957,-2.505
5958,-2.480
5959,-2.485
5960,-2.495
5961,-2.510
5962,-2.520
5963,-2.520
5964,-2.520
5965,-2.510
5966,-2.515
5967,-2.510
5968,-2.510
5969,-2.505
5970,-2.505
5971,-2.505
5972,-2.495
5973,-2.505
5974,-2.490
5975,-2.505
5976,-2.490
5977,-2.485
5978,-2.485
5979,-2.480
5980,-2.480
5981,-2.475
5982,-2.470
5983,-2.470
5984,-2.465
5985,-2.460
5986,-2.460
5987,-2.450
5988,-2.450
5989,-2.455
5990,-2.435
5991,-2.430
5992,-2.420
5993,-2.415
5994,-2.400
5995,-2.385
5996,-2.375
5997,-2.370
5998,-2.360
5999,-2.340
6000,-2.325
6001,-2.315
6002,-2.300
6003,-2.275
6004,-2.255
6005,-2.235
6006,-2.230
6007,-2.210
6008,-2.190
6009,-2.170
6010,-2.155
6011,-2.130
6012,-2.105
6013,-2.090
6014,-2.075
6015,-2.080
6016,-2.095
6017,-2.140
6018,-2.180
6019,-2.225
6020,-2.275
6021,-2.315
6022,-2.350
6023,-2.385
6024,-2.405
6025,-2.435
6026,-2.450
6027,-2.455
6028,-2.465
6029,-2.470
6030,-2.465
6031,-2.480
6032,-2.475
6033,-2.475
6034,-2.475
6035,-2.475
6036,-2.480
6037,-2.470
6038,-2.475
6039,-2.475
6040,-2.475
6041,-2.470
6042,-2.465
6043,-2.465
6044,-2.460
6045,-2.465
6046,-2.465
6047,-2.465
6048,-2.465
6049,-2.460
6050,-2.460
6051,-2.465
6052,-2.460
6053,-2.460
6054,-2.455
6055,-2.460
6056,-2.460
6057,-2.455
6058,-2.455
6059,-2.465
6060,-2.460
6061,-2.465
6062,-2.465
6063,-2.465
6064,-2.465
6065,-2.465
6066,-2.465
6067,-2.470
6068,-2.475
6069,-2.470
6070,-2.465
6071,-2.455
6072,-2.445
6073,-2.440
6074,-2.400
6075,-2.390
6076,-2.385
6077,-2.385
6078,-2.395
6079,-2.375
6080,-2.365
6081,-2.345
6082,-2.330
6083,-2.315
6084,-2.310
6085,-2.310
6086,-2.330
6087,-2.335
6088,-2.355
6089,-2.385
6090,-2.415
6091,-2.450
6092,-2.475
6093,-2.500
6094,-2.505
6095,-2.510
6096,-2.510
6097,-2.515
6098,-2.520
6099,-2.520
6100,-2.520
6101,-2.530
6102,-2.525
6103,-2.525
6104,-2.535
6105,-2.525
6106,-2.520
6107,-2.520
6108,-2.520
6109,-2.520
6110,-2.520
6111,-2.525
6112,-2.520
6113,-2.485
6114,-2.400
6115,-2.200
6116,-1.875
6117,-1.465
6118,-1.085
6119,-0.925
6120,-1.055
6121,-1.425
6122,-1.910
6123,-2.365
6124,-2.605
6125,-2.665
6126,-2.605
6127,-2.525
6128,-2.475
6129,-2.470
6130,-2.495
6131,-2.505
6132,-2.520
6133,-2.520
6134,-2.520
6135,-2.520
6136,-2.520
6137,-2.515
6138,-2.505
6139,-2.505
6140,-2.505
6141,-2.505
6142,-2.500
6143,-2.500
6144,-2.495
6145,-2.485
6146,-2.490
6147,-2.490
6148,-2.480
6149,-2.480
6150,-2.480
6151,-2.480
6152,-2.475
6153,-2.470
6154,-2.470
6155,-2.455
6156,-2.450
6157,-2.450
6158,-2.445
6159,-2.445
6160,-2.435
6161,-2.430
6162,-2.435
6163,-2.415
6164,-2.400
6165,-2.385
6166,-2.375
6167,-2.360
6168,-2.350
6169,-2.345
6170,-2.330
6171,-2.310
6172,-2.295
6173,-2.275
6174,-2.265
6175,-2.250
6176,-2.225
6177,-2.210
6178,-2.185
6179,-2.165
6180,-2.145
6181,-2.115
6182,-2.100
6183,-2.085
6184,-2.075
6185,-2.080
6186,-2.100
6187,-2.130
6188,-2.170
6189,-2.220
6190,-2.275
6191,-2.315
6192,-2.365
6193,-2.390
6194,-2.420
6195,-2.435
6196,-2.455
6197,-2.470
6198,-2.475
6199,-2.475
6200,-2.475
6201,-2.475
6202,-2.475
6203,-2.480
6204,-2.480
6205,-2.475
6206,-2.475
6207,-2.475
6208,-2.470
6209,-2.485
6210,-2.470
6211,-2.475
6212,-2.465
6213,-2.470
6214,-2.465
6215,-2.470
6216,-2.465
6217,-2.470
6218,-2.470
6219,-2.470
6220,-2.465
6221,-2.465
6222,-2.465
6223,-2.470
6224,-2.465
6225,-2.470
6226,-2.465
6227,-2.465
6228,-2.465
6229,-2.470
6230,-2.470
6231,-2.475
6232,-2.475
6233,-2.485
6234,-2.480
6235,-2.480
6236,-2.480
6237,-2.480
6238,-2.475
6239,-2.475
6240,-2.475
6241,-2.470
6242,-2.455
6243,-2.435
6244,-2.425
6245,-2.420
6246,-2.400
6247,-2.395
6248,-2.395
6249,-2.385
6250,-2.385
6251,-2.360
6252,-2.350
6253,-2.335
6254,-2.335
6255,-2.335
6256,-2.325
6257,-2.345
6258,-2.355
6259,-2.385
6260,-2.400
6261,-2.435
6262,-2.470
6263,-2.500
6264,-2.520
6265,-2.530
6266,-2.535
6267,-2.535
6268,-2.535
6269,-2.535
6270,-2.535
6271,-2.540
6272,-2.540
6273,-2.545
6274,-2.555
6275,-2.540
6276,-2.535
6277,-2.545
6278,-2.540
6279,-2.535
6280,-2.535
6281,-2.530
6282,-2.535
6283,-2.535
6284,-2.510
6285,-2.415
6286,-2.205
6287,-1.860
6288,-1.450
6289,-1.095
6290,-0.960
6291,-1.140
6292,-1.540
6293,-2.035
6294,-2.435
6295,-2.640
6296,-2.660
6297,-2.600
6298,-2.535
6299,-2.495
6300,-2.495
6301,-2.505
6302,-2.520
6303,-2.535
6304,-2.535
6305,-2.540
6306,-2.535
6307,-2.535
6308,-2.525
6309,-2.525
6310,-2.520
6311,-2.520
6312,-2.520
6313,-2.525
6314,-2.525
6315,-2.520
6316,-2.520
6317,-2.515
6318,-2.505
6319,-2.505
6320,-2.495
6321,-2.495
6322,-2.495
6323,-2.485
6324,-2.485
6325,-2.475
6326,-2.480
6327,-2.475
6328,-2.465
6329,-2.455
6330,-2.455
6331,-2.450
6332,-2.450
6333,-2.435
6334,-2.435
6335,-2.435
6336,-2.410
6337,-2.400
6338,-2.385
6339,-2.370
6340,-2.340
6341,-2.335
6342,-2.325
6343,-2.305
6344,-2.285
6345,-2.265
6346,-2.250
6347,-2.235
6348,-2.215
6349,-2.195
6350,-2.170
6351,-2.145
6352,-2.125
6353,-2.110
6354,-2.095
6355,-2.100
6356,-2.120
6357,-2.150
6358,-2.190
6359,-2.230
6360,-2.280
6361,-2.325
6362,-2.360
6363,-2.400
6364,-2.425
6365,-2.445
6366,-2.465
6367,-2.480
6368,-2.490
6369,-2.495
6370,-2.495
6371,-2.505
6372,-2.505
6373,-2.505
6374,-2.505
6375,-2.500
6376,-2.495
6377,-2.495
6378,-2.495
6379,-2.495
6380,-2.495
6381,-2.495
6382,-2.510
6383,-2.495
6384,-2.490
6385,-2.485
6386,-2.490
6387,-2.500
6388,-2.490
6389,-2.485
6390,-2.490
6391,-2.490
6392,-2.490
6393,-2.480
6394,-2.485
6395,-2.485
6396,-2.485
6397,-2.485
6398,-2.490
6399,-2.490
6400,-2.495
6401,-2.495
6402,-2.495
6403,-2.505
6404,-2.505
6405,-2.505
6406,-2.500
6407,-2.500
6408,-2.495
6409,-2.500
6410,-2.495
6411,-2.495
6412,-2.480
6413,-2.475
6414,-2.460
6415,-2.450
6416,-2.435
6417,-2.420
6418,-2.420
6419,-2.420
6420,-2.415
6421,-2.405
6422,-2.375
6423,-2.355
6424,-2.335
6425,-2.340
6426,-2.345
6427,-2.350
6428,-2.355
6429,-2.360
6430,-2.385
6431,-2.420
6432,-2.450
6433,-2.485
6434,-2.520
6435,-2.535
6436,-2.545
6437,-2.555
6438,-2.555
6439,-2.555
6440,-2.550
6441,-2.550
6442,-2.550
6443,-2.550
6444,-2.555
6445,-2.555
6446,-2.555
6447,-2.555
6448,-2.555
6449,-2.550
6450,-2.540
6451,-2.545
6452,-2.555
6453,-2.570
6454,-2.545
6455,-2.495
6456,-2.365
6457,-2.125
6458,-1.755
6459,-1.350
6460,-1.055
6461,-1.015
6462,-1.265
6463,-1.695
6464,-2.180
6465,-2.535
6466,-2.680
6467,-2.670
6468,-2.605
6469,-2.540
6470,-2.510
6471,-2.525
6472,-2.525
6473,-2.535
6474,-2.555
6475,-2.560
6476,-2.555
6477,-2.550
6478,-2.545
6479,-2.535
6480,-2.535
6481,-2.540
6482,-2.545
6483,-2.545
6484,-2.535
6485,-2.535
6486,-2.525
6487,-2.525
6488,-2.525
6489,-2.520
6490,-2.520
6491,-2.515
6492,-2.520
6493,-2.515
6494,-2.515
6495,-2.505
6496,-2.490
6497,-2.485
6498,-2.485
6499,-2.485
6500,-2.480
6501,-2.475
6502,-2.470
6503,-2.455
6504,-2.445
6505,-2.435
6506,-2.425
6507,-2.420
6508,-2.400
6509,-2.390
6510,-2.370
6511,-2.355
6512,-2.340
6513,-2.315
6514,-2.315
6515,-2.300
6516,-2.280
6517,-2.255
6518,-2.230
6519,-2.220
6520,-2.195
6521,-2.180
6522,-2.150
6523,-2.130
6524,-2.105
6525,-2.095
6526,-2.095
6527,-2.125
6528,-2.155
6529,-2.200
6530,-2.240
6531,-2.280
6532,-2.330
6533,-2.365
6534,-2.400
6535,-2.435
6536,-2.455
6537,-2.475
6538,-2.490
6539,-2.505
6540,-2.510
6541,-2.515
6542,-2.510
6543,-2.515
6544,-2.510
6545,-2.505
6546,-2.510
6547,-2.510
6548,-2.505
6549,-2.505
6550,-2.505
6551,-2.500
6552,-2.495
6553,-2.495
6554,-2.500
6555,-2.520
6556,-2.505
6557,-2.505
6558,-2.500
6559,-2.505
6560,-2.505
6561,-2.500
6562,-2.495
6563,-2.505
6564,-2.505
6565,-2.505
6566,-2.500
6567,-2.495
6568,-2.495
6569,-2.500
6570,-2.505
6571,-2.505
6572,-2.505
6573,-2.510
6574,-2.520
6575,-2.520
6576,-2.520
6577,-2.525
6578,-2.520
6579,-2.520
6580,-2.520
6581,-2.510
6582,-2.505
6583,-2.505
6584,-2.495
6585,-2.485
6586,-2.475
6587,-2.460
6588,-2.450
6589,-2.435
6590,-2.425
6591,-2.425
6592,-2.420
6593,-2.405
6594,-2.385
6595,-2.375
6596,-2.370
6597,-2.365
6598,-2.365
6599,-2.370
6600,-2.385
6601,-2.390
6602,-2.435
6603,-2.445
6604,-2.475
6605,-2.505
6606,-2.530
6607,-2.560
6608,-2.555
6609,-2.560
6610,-2.570
6611,-2.570
6612,-2.570
6613,-2.570
6614,-2.570
6615,-2.570
6616,-2.570
6617,-2.570
6618,-2.570
6619,-2.570
6620,-2.570
6621,-2.570
6622,-2.570
6623,-2.570
6624,-2.570
6625,-2.570
6626,-2.560
6627,-2.505
6628,-2.355
6629,-2.080
6630,-1.690
6631,-1.295
6632,-1.055
6633,-1.105
6634,-1.460
6635,-1.960
6636,-2.465
6637,-2.755
6638,-2.805
6639,-2.725
6640,-2.630
6641,-2.570
6642,-2.535
6643,-2.540
6644,-2.560
6645,-2.555
6646,-2.570
6647,-2.570
6648,-2.570
6649,-2.570
6650,-2.545
6651,-2.535
6652,-2.540
6653,-2.550
6654,-2.555
6655,-2.555
6656,-2.540
6657,-2.535
6658,-2.535
6659,-2.540
6660,-2.535
6661,-2.520
6662,-2.520
6663,-2.520
6664,-2.510
6665,-2.510
6666,-2.505
6667,-2.500
6668,-2.495
6669,-2.490
6670,-2.480
6671,-2.475
6672,-2.465
6673,-2.465
6674,-2.460
6675,-2.455
6676,-2.430
6677,-2.430
6678,-2.420
6679,-2.400
6680,-2.385
6681,-2.385
6682,-2.370
6683,-2.345
6684,-2.335
6685,-2.315
6686,-2.280
6687,-2.275
6688,-2.250
6689,-2.235
6690,-2.215
6691,-2.190
6692,-2.180
6693,-2.155
6694,-2.130
6695,-2.105
6696,-2.085
6697,-2.085
6698,-2.095
6699,-2.130
6700,-2.165
6701,-2.215
6702,-2.265
6703,-2.315
6704,-2.365
6705,-2.395
6706,-2.420
6707,-2.450
6708,-2.465
6709,-2.490
6710,-2.500
6711,-2.505
6712,-2.505
6713,-2.515
6714,-2.520
6715,-2.525
6716,-2.525
6717,-2.530
6718,-2.525
6719,-2.520
6720,-2.520
6721,-2.520
6722,-2.520
6723,-2.515
6724,-2.510
6725,-2.510
6726,-2.505
6727,-2.505
6728,-2.495
6729,-2.505
6730,-2.505
6731,-2.510
6732,-2.505
6733,-2.525
6734,-2.510
6735,-2.505
6736,-2.505
6737,-2.510
6738,-2.520
6739,-2.510
6740,-2.520
6741,-2.515
6742,-2.510
6743,-2.520
6744,-2.520
6745,-2.515
6746,-2.520
6747,-2.520
6748,-2.525
6749,-2.520
6750,-2.520
6751,-2.520
6752,-2.510
6753,-2.505
6754,-2.495
6755,-2.485
6756,-2.475
6757,-2.455
6758,-2.445
6759,-2.435
6760,-2.435
6761,-2.435
6762,-2.435
6763,-2.420
6764,-2.400
6765,-2.385
6766,-2.370
6767,-2.375
6768,-2.385
6769,-2.385
6770,-2.390
6771,-2.405
6772,-2.435
6773,-2.465
6774,-2.495
6775,-2.535
6776,-2.540
6777,-2.555
6778,-2.560
6779,-2.565
6780,-2.585
6781,-2.570
6782,-2.575
6783,-2.570
6784,-2.570
6785,-2.585
6786,-2.580
6787,-2.575
6788,-2.580
6789,-2.580
6790,-2.575
6791,-2.570
6792,-2.570
6793,-2.570
6794,-2.570
6795,-2.575
6796,-2.570
6797,-2.520
6798,-2.395
6799,-2.160
6800,-1.800
6801,-1.400
6802,-1.095
6803,-1.025
6804,-1.265
6805,-1.705
6806,-2.240
6807,-2.665
6808,-2.850
6809,-2.830
6810,-2.725
6811,-2.630
6812,-2.555
6813,-2.540
6814,-2.545
6815,-2.555
6816,-2.555
6817,-2.560
6818,-2.555
6819,-2.555
6820,-2.540
6821,-2.545
6822,-2.555
6823,-2.550
6824,-2.540
6825,-2.540
6826,-2.535
6827,-2.540
6828,-2.535
6829,-2.530
6830,-2.525
6831,-2.520
6832,-2.520
6833,-2.515
6834,-2.505
6835,-2.505
6836,-2.500
6837,-2.495
6838,-2.490
6839,-2.485
6840,-2.480
6841,-2.475
6842,-2.470
6843,-2.460
6844,-2.455
6845,-2.450
6846,-2.450
6847,-2.435
6848,-2.425
6849,-2.415
6850,-2.400
6851,-2.385
6852,-2.370
6853,-2.355
6854,-2.340
6855,-2.330
6856,-2.310
6857,-2.290
6858,-2.265
6859,-2.250
6860,-2.230
6861,-2.215
6862,-2.200
6863,-2.175
6864,-2.140
6865,-2.130
6866,-2.095
6867,-2.080
6868,-2.070
6869,-2.070
6870,-2.105
6871,-2.145
6872,-2.200
6873,-2.235
6874,-2.280
6875,-2.330
6876,-2.355
6877,-2.400
6878,-2.435
6879,-2.450
6880,-2.465
6881,-2.480
6882,-2.485
6883,-2.490
6884,-2.495
6885,-2.500
6886,-2.500
6887,-2.495
6888,-2.495
6889,-2.485
6890,-2.490
6891,-2.490
6892,-2.485
6893,-2.490
6894,-2.485
6895,-2.485
6896,-2.475
6897,-2.480
6898,-2.475
6899,-2.475
6900,-2.475
6901,-2.475
6902,-2.470
6903,-2.475
6904,-2.475
6905,-2.480
6906,-2.490
6907,-2.475
6908,-2.465
6909,-2.470
6910,-2.475
6911,-2.495
6912,-2.480
6913,-2.480
6914,-2.485
6915,-2.480
6916,-2.490
6917,-2.485
6918,-2.485
6919,-2.485
6920,-2.485
6921,-2.485
6922,-2.490
6923,-2.485
6924,-2.480
6925,-2.485
6926,-2.480
6927,-2.475
6928,-2.455
6929,-2.445
6930,-2.430
6931,-2.420
6932,-2.410
6933,-2.400
6934,-2.400
6935,-2.395
6936,-2.385
6937,-2.375
6938,-2.350
6939,-2.335
6940,-2.325
6941,-2.335
6942,-2.335
6943,-2.340
6944,-2.350
6945,-2.365
6946,-2.390
6947,-2.420
6948,-2.450
6949,-2.485
6950,-2.505
6951,-2.510
6952,-2.520
6953,-2.535
6954,-2.525
6955,-2.530
6956,-2.525
6957,-2.530
6958,-2.540
6959,-2.535
6960,-2.535
6961,-2.535
6962,-2.525
6963,-2.530
6964,-2.525
6965,-2.515
6966,-2.515
6967,-2.515
6968,-2.525
6969,-2.520
6970,-2.475
6971,-2.350
6972,-2.120
6973,-1.755
6974,-1.335
6975,-1.000
6976,-0.885
6977,-1.100
6978,-1.550
6979,-2.080
6980,-2.500
6981,-2.690
6982,-2.675
6983,-2.585
6984,-2.520
6985,-2.475
6986,-2.475
6987,-2.495
6988,-2.505
6989,-2.510
6990,-2.520
6991,-2.520
6992,-2.520
6993,-2.515
6994,-2.505
6995,-2.520
6996,-2.505
6997,-2.495
6998,-2.500
6999,-2.495
7000,-2.505
7001,-2.495
7002,-2.490
7003,-2.480
7004,-2.480
7005,-2.480
7006,-2.475
7007,-2.475
7008,-2.465
7009,-2.455
7010,-2.460
7011,-2.450
7012,-2.450
7013,-2.445
7014,-2.435
7015,-2.435
7016,-2.430
7017,-2.425
7018,-2.420
7019,-2.400
7020,-2.400
7021,-2.385
7022,-2.385
7023,-2.365
7024,-2.350
7025,-2.335
7026,-2.320
7027,-2.305
7028,-2.285
7029,-2.275
7030,-2.260
7031,-2.240
7032,-2.220
7033,-2.200
7034,-2.180
7035,-2.160
7036,-2.135
7037,-2.115
7038,-2.095
7039,-2.070
7040,-2.060
7041,-2.070
7042,-2.075
7043,-2.120
7044,-2.165
7045,-2.215
7046,-2.265
7047,-2.305
7048,-2.340
7049,-2.365
7050,-2.400
7051,-2.420
7052,-2.435
7053,-2.450
7054,-2.460
7055,-2.470
7056,-2.465
7057,-2.465
7058,-2.470
7059,-2.470
7060,-2.465
7061,-2.465
7062,-2.465
7063,-2.470
7064,-2.465
7065,-2.465
7066,-2.465
7067,-2.460
7068,-2.465
7069,-2.470
7070,-2.460
7071,-2.465
7072,-2.455
7073,-2.460
7074,-2.460
7075,-2.455
7076,-2.450
7077,-2.450
7078,-2.450
7079,-2.450
7080,-2.450
7081,-2.450
7082,-2.450
7083,-2.455
7084,-2.470
7085,-2.460
7086,-2.450
7087,-2.450
7088,-2.450
7089,-2.465
7090,-2.460
7091,-2.465
7092,-2.465
7093,-2.465
7094,-2.470
7095,-2.470
7096,-2.470
7097,-2.470
7098,-2.460
7099,-2.450
7100,-2.435
7101,-2.420
7102,-2.405
7103,-2.395
7104,-2.385
7105,-2.385
7106,-2.385
7107,-2.375
7108,-2.350
7109,-2.330
7110,-2.315
7111,-2.310
7112,-2.310
7113,-2.315
7114,-2.320
7115,-2.335
7116,-2.355
7117,-2.385
7118,-2.415
7119,-2.445
7120,-2.475
7121,-2.485
7122,-2.505
7123,-2.510
7124,-2.515
7125,-2.520
7126,-2.535
7127,-2.525
7128,-2.525
7129,-2.520
7130,-2.520
7131,-2.535
7132,-2.520
7133,-2.520
7134,-2.520
7135,-2.510
7136,-2.510
7137,-2.505
7138,-2.510
7139,-2.520
7140,-2.500
7141,-2.445
7142,-2.285
7143,-1.995
7144,-1.585
7145,-1.170
7146,-0.900
7147,-0.945
7148,-1.265
7149,-1.740
7150,-2.230
7151,-2.570
7152,-2.665
7153,-2.630
7154,-2.550
7155,-2.490
7156,-2.465
7157,-2.475
7158,-2.475
7159,-2.505
7160,-2.510
7161,-2.510
7162,-2.505
7163,-2.505
7164,-2.510
7165,-2.515
7166,-2.505
7167,-2.500
7168,-2.495
7169,-2.485
7170,-2.490
7171,-2.485
7172,-2.485
7173,-2.495
7174,-2.480
7175,-2.475
7176,-2.465
7177,-2.475
7178,-2.475
7179,-2.465
7180,-2.455
7181,-2.450
7182,-2.445
7183,-2.445
7184,-2.435
7185,-2.435
7186,-2.425
7187,-2.420
7188,-2.400
7189,-2.400
7190,-2.395
7191,-2.390
7192,-2.370
7193,-2.365
7194,-2.350
7195,-2.335
7196,-2.315
7197,-2.300
7198,-2.285
7199,-2.275
7200,-2.255
7201,-2.240
7202,-2.215
7203,-2.200
7204,-2.175
7205,-2.150
7206,-2.130
7207,-2.100
7208,-2.090
7209,-2.070
7210,-2.065
7211,-2.065
7212,-2.090
7213,-2.130
7214,-2.165
7215,-2.200
7216,-2.260
7217,-2.300
7218,-2.345
7219,-2.385
7220,-2.420
7221,-2.425
7222,-2.435
7223,-2.445
7224,-2.450
7225,-2.470
7226,-2.465
7227,-2.475
7228,-2.475
7229,-2.475
7230,-2.480
7231,-2.475
7232,-2.475
7233,-2.465
7234,-2.465
7235,-2.470
7236,-2.465
7237,-2.465
7238,-2.460
7239,-2.470
7240,-2.465
7241,-2.460
7242,-2.455
7243,-2.455
7244,-2.455
7245,-2.450
7246,-2.450
7247,-2.445
7248,-2.450
7249,-2.455
7250,-2.455
7251,-2.460
7252,-2.460
7253,-2.455
7254,-2.455
7255,-2.455
7256,-2.465
7257,-2.480
7258,-2.465
7259,-2.465
7260,-2.465
7261,-2.465
7262,-2.480
7263,-2.470
7264,-2.465
7265,-2.465
7266,-2.470
7267,-2.475
7268,-2.465
7269,-2.455
7270,-2.440
7271,-2.420
7272,-2.410
7273,-2.395
7274,-2.385
7275,-2.385
7276,-2.385
7277,-2.385
7278,-2.365
7279,-2.350
7280,-2.325
7281,-2.315
7282,-2.310
7283,-2.315
7284,-2.325
7285,-2.335
7286,-2.340
7287,-2.365
7288,-2.400
7289,-2.435
7290,-2.475
7291,-2.500
7292,-2.500
7293,-2.515
7294,-2.520
7295,-2.525
7296,-2.525
7297,-2.520
7298,-2.525
7299,-2.520
7300,-2.525
7301,-2.525
7302,-2.525
7303,-2.525
7304,-2.540
7305,-2.520
7306,-2.510
7307,-2.515
7308,-2.520
7309,-2.535
7310,-2.525
7311,-2.480
7312,-2.370
7313,-2.145
7314,-1.785
7315,-1.370
7316,-1.040
7317,-0.945
7318,-1.165
7319,-1.585
7320,-2.060
7321,-2.455
7322,-2.640
7323,-2.650
7324,-2.580
7325,-2.520
7326,-2.480
7327,-2.475
7328,-2.485
7329,-2.505
7330,-2.520
7331,-2.520
7332,-2.520
7333,-2.515
7334,-2.510
7335,-2.515
7336,-2.505
7337,-2.515
7338,-2.510
7339,-2.505
7340,-2.505
7341,-2.495
7342,-2.495
7343,-2.500
7344,-2.495
7345,-2.495
7346,-2.505
7347,-2.485
7348,-2.480
7349,-2.475
7350,-2.465
7351,-2.475
7352,-2.465
7353,-2.455
7354,-2.450
7355,-2.445
7356,-2.445
7357,-2.435
7358,-2.435
7359,-2.430
7360,-2.415
7361,-2.415
7362,-2.400
7363,-2.385
7364,-2.370
7365,-2.355
7366,-2.335
7367,-2.315
7368,-2.300
7369,-2.290
7370,-2.275
7371,-2.260
7372,-2.235
7373,-2.215
7374,-2.200
7375,-2.175
7376,-2.155
7377,-2.130
7378,-2.100
7379,-2.085
7380,-2.075
7381,-2.080
7382,-2.090
7383,-2.120
7384,-2.165
7385,-2.205
7386,-2.265
7387,-2.300
7388,-2.335
7389,-2.385
7390,-2.415
7391,-2.435
7392,-2.455
7393,-2.485
7394,-2.475
7395,-2.480
7396,-2.480
7397,-2.485
7398,-2.490
7399,-2.485
7400,-2.495
7401,-2.490
7402,-2.490
7403,-2.485
7404,-2.480
7405,-2.475
7406,-2.480
7407,-2.475
7408,-2.475
7409,-2.480
7410,-2.485
7411,-2.480
7412,-2.475
7413,-2.470
7414,-2.475
7415,-2.475
7416,-2.470
7417,-2.465
7418,-2.470
7419,-2.470
7420,-2.465
7421,-2.470
7422,-2.475
7423,-2.475
7424,-2.480
7425,-2.480
7426,-2.480
7427,-2.485
7428,-2.480
7429,-2.480
7430,-2.485
7431,-2.485
7432,-2.480
7433,-2.480
7434,-2.480
7435,-2.500
7436,-2.490
7437,-2.490
7438,-2.490
7439,-2.485
7440,-2.485
7441,-2.465
7442,-2.450
7443,-2.435
7444,-2.425
7445,-2.420
7446,-2.400
7447,-2.405
7448,-2.405
7449,-2.400
7450,-2.385
7451,-2.350
7452,-2.335
7453,-2.335
7454,-2.325
7455,-2.335
7456,-2.335
7457,-2.360
7458,-2.370
7459,-2.395
7460,-2.420
7461,-2.450
7462,-2.485
7463,-2.510
7464,-2.525
7465,-2.525
7466,-2.535
7467,-2.535
7468,-2.535
7469,-2.535
7470,-2.540
7471,-2.545
7472,-2.540
7473,-2.545
7474,-2.545
7475,-2.545
7476,-2.540
7477,-2.545
7478,-2.530
7479,-2.535
7480,-2.525
7481,-2.535
7482,-2.550
7483,-2.525
7484,-2.480
7485,-2.360
7486,-2.130
7487,-1.760
7488,-1.355
7489,-1.040
7490,-1.010
7491,-1.270
7492,-1.725
7493,-2.215
7494,-2.555
7495,-2.670
7496,-2.635
7497,-2.555
7498,-2.505
7499,-2.490
7500,-2.495
7501,-2.515
7502,-2.520
7503,-2.535
7504,-2.535
7505,-2.535
7506,-2.535
7507,-2.535
7508,-2.535
7509,-2.515
7510,-2.525
7511,-2.525
7512,-2.525
7513,-2.520
7514,-2.515
7515,-2.510
7516,-2.505
7517,-2.505
7518,-2.495
7519,-2.505
7520,-2.495
7521,-2.495
7522,-2.490
7523,-2.480
7524,-2.495
7525,-2.480
7526,-2.470
7527,-2.455
7528,-2.450
7529,-2.455
7530,-2.445
7531,-2.435
7532,-2.435
7533,-2.420
7534,-2.415
7535,-2.400
7536,-2.385
7537,-2.385
7538,-2.375
7539,-2.355
7540,-2.340
7541,-2.315
7542,-2.305
7543,-2.280
7544,-2.265
7545,-2.240
7546,-2.220
7547,-2.205
7548,-2.180
7549,-2.165
7550,-2.145
7551,-2.120
7552,-2.105
7553,-2.090
7554,-2.095
7555,-2.100
7556,-2.135
7557,-2.175
7558,-2.220
7559,-2.280
7560,-2.325
7561,-2.365
7562,-2.400
7563,-2.435
7564,-2.450
7565,-2.475
7566,-2.495
7567,-2.490
7568,-2.495
7569,-2.500
7570,-2.490
7571,-2.505
7572,-2.495
7573,-2.495
7574,-2.500
7575,-2.500
7576,-2.505
7577,-2.505
7578,-2.495
7579,-2.495
7580,-2.495
7581,-2.495
7582,-2.500
7583,-2.495
7584,-2.495
7585,-2.485
7586,-2.490
7587,-2.495
7588,-2.490
7589,-2.485
7590,-2.485
7591,-2.485
7592,-2.495
7593,-2.500
7594,-2.495
7595,-2.490
7596,-2.490
7597,-2.495
7598,-2.495
7599,-2.490
7600,-2.495
7601,-2.495
7602,-2.495
7603,-2.500
7604,-2.505
7605,-2.505
7606,-2.500
7607,-2.505
7608,-2.520
7609,-2.505
7610,-2.510
7611,-2.510
7612,-2.510
7613,-2.510
7614,-2.490
7615,-2.470
7616,-2.450
7617,-2.445
7618,-2.435
7619,-2.435
7620,-2.425
7621,-2.420
7622,-2.415
7623,-2.395
7624,-2.370
7625,-2.350
7626,-2.350
7627,-2.350
7628,-2.355
7629,-2.355
7630,-2.365
7631,-2.385
7632,-2.415
7633,-2.450
7634,-2.485
7635,-2.510
7636,-2.525
7637,-2.545
7638,-2.540
7639,-2.555
7640,-2.555
7641,-2.560
7642,-2.565
7643,-2.570
7644,-2.560
7645,-2.560
7646,-2.570
7647,-2.570
7648,-2.555
7649,-2.560
7650,-2.555
7651,-2.555
7652,-2.550
7653,-2.555
7654,-2.555
7655,-2.570
7656,-2.525
7657,-2.435
7658,-2.235
7659,-1.910
7660,-1.505
7661,-1.165
7662,-1.030
7663,-1.215
7664,-1.640
7665,-2.165
7666,-2.570
7667,-2.725
7668,-2.705
7669,-2.620
7670,-2.545
7671,-2.520
7672,-2.510
7673,-2.530
7674,-2.540
7675,-2.555
7676,-2.555
7677,-2.560
7678,-2.555
7679,-2.555
7680,-2.540
7681,-2.545
7682,-2.535
7683,-2.535
7684,-2.535
7685,-2.530
7686,-2.530
7687,-2.525
7688,-2.525
7689,-2.525
7690,-2.520
7691,-2.510
7692,-2.505
7693,-2.500
7694,-2.490
7695,-2.485
7696,-2.480
7697,-2.490
7698,-2.480
7699,-2.475
7700,-2.465
7701,-2.465
7702,-2.465
7703,-2.450
7704,-2.435
7705,-2.420
7706,-2.420
7707,-2.415
7708,-2.400
7709,-2.385
7710,-2.365
7711,-2.340
7712,-2.325
7713,-2.315
7714,-2.295
7715,-2.275
7716,-2.250
7717,-2.235
7718,-2.205
7719,-2.185
7720,-2.165
7721,-2.145
7722,-2.115
7723,-2.095
7724,-2.075
7725,-2.070
7726,-2.080
7727,-2.100
7728,-2.140
7729,-2.190
7730,-2.230
7731,-2.280
7732,-2.330
7733,-2.360
7734,-2.400
7735,-2.435
7736,-2.460
7737,-2.475
7738,-2.490
7739,-2.505
7740,-2.505
7741,-2.505
7742,-2.510
7743,-2.510
7744,-2.520
7745,-2.500
7746,-2.495
7747,-2.505
7748,-2.505
7749,-2.505
7750,-2.500
7751,-2.500
7752,-2.505
7753,-2.505
7754,-2.505
7755,-2.500
7756,-2.490
7757,-2.490
7758,-2.495
7759,-2.505
7760,-2.505
7761,-2.505
7762,-2.500
7763,-2.500
7764,-2.490
7765,-2.485
7766,-2.490
7767,-2.490
7768,-2.495
7769,-2.500
7770,-2.505
7771,-2.510
7772,-2.510
7773,-2.510
7774,-2.505
7775,-2.505
7776,-2.505
7777,-2.505
7778,-2.505
7779,-2.505
7780,-2.510
7781,-2.515
7782,-2.525
7783,-2.520
7784,-2.510
7785,-2.495
7786,-2.500
7787,-2.465
7788,-2.450
7789,-2.440
7790,-2.435
7791,-2.445
7792,-2.435
7793,-2.435
7794,-2.415
7795,-2.385
7796,-2.370
7797,-2.355
7798,-2.355
7799,-2.355
7800,-2.355
7801,-2.370
7802,-2.405
7803,-2.435
7804,-2.470
7805,-2.505
7806,-2.525
7807,-2.550
7808,-2.560
7809,-2.570
7810,-2.570
7811,-2.570
7812,-2.570
7813,-2.570
7814,-2.570
7815,-2.575
7816,-2.570
7817,-2.570
7818,-2.570
7819,-2.570
7820,-2.570
7821,-2.570
7822,-2.570
7823,-2.560
7824,-2.555
7825,-2.570
7826,-2.570
7827,-2.535
7828,-2.450
7829,-2.230
7830,-1.890
7831,-1.490
7832,-1.165
7833,-1.095
7834,-1.345
7835,-1.815
7836,-2.355
7837,-2.740
7838,-2.875
7839,-2.820
7840,-2.705
7841,-2.605
7842,-2.555
7843,-2.540
7844,-2.540
7845,-2.555
7846,-2.560
7847,-2.570
7848,-2.560
7849,-2.565
7850,-2.560
7851,-2.555
7852,-2.555
7853,-2.550
7854,-2.555
7855,-2.555
7856,-2.545
7857,-2.540
7858,-2.525
7859,-2.525
7860,-2.505
7861,-2.525
7862,-2.520
7863,-2.510
7864,-2.510
7865,-2.510
7866,-2.505
7867,-2.500
7868,-2.490
7869,-2.485
7870,-2.485
7871,-2.475
7872,-2.465
7873,-2.460
7874,-2.455
7875,-2.450
7876,-2.435
7877,-2.415
7878,-2.410
7879,-2.400
7880,-2.385
7881,-2.370
7882,-2.350
7883,-2.330
7884,-2.310
7885,-2.285
7886,-2.265
7887,-2.250
7888,-2.230
7889,-2.210
7890,-2.195
7891,-2.165
7892,-2.145
7893,-2.115
7894,-2.095
7895,-2.080
7896,-2.065
7897,-2.075
7898,-2.095
7899,-2.130
7900,-2.180
7901,-2.235
7902,-2.285
7903,-2.340
7904,-2.385
7905,-2.420
7906,-2.450
7907,-2.470
7908,-2.485
7909,-2.500
7910,-2.500
7911,-2.505
7912,-2.510
7913,-2.520
7914,-2.515
7915,-2.525
7916,-2.525
7917,-2.540
7918,-2.520
7919,-2.515
7920,-2.505
7921,-2.500
7922,-2.520
7923,-2.510
7924,-2.505
7925,-2.505
7926,-2.495
7927,-2.505
7928,-2.495
7929,-2.500
7930,-2.500
7931,-2.500
7932,-2.495
7933,-2.485
7934,-2.490
7935,-2.495
7936,-2.505
7937,-2.505
7938,-2.505
7939,-2.500
7940,-2.495
7941,-2.500
7942,-2.500
7943,-2.505
7944,-2.505
7945,-2.505
7946,-2.505
7947,-2.505
7948,-2.505
7949,-2.505
7950,-2.505
7951,-2.500
7952,-2.490
7953,-2.480
7954,-2.470
7955,-2.450
7956,-2.435
7957,-2.435
7958,-2.435
7959,-2.445
7960,-2.420
7961,-2.400
7962,-2.370
7963,-2.355
7964,-2.335
7965,-2.350
7966,-2.350
7967,-2.360
7968,-2.370
7969,-2.385
7970,-2.405
7971,-2.440
7972,-2.470
7973,-2.505
7974,-2.520
7975,-2.540
7976,-2.540
7977,-2.545
7978,-2.555
7979,-2.555
7980,-2.555
7981,-2.555
7982,-2.565
7983,-2.560
7984,-2.570
7985,-2.560
7986,-2.555
7987,-2.555
7988,-2.555
7989,-2.540
7990,-2.540
7991,-2.530
7992,-2.545
7993,-2.545
7994,-2.525
7995,-2.435
7996,-2.230
7997,-1.880
7998,-1.450
7999,-1.095
8000,-1.025
8001,-1.300
8002,-1.790
8003,-2.335
8004,-2.710
8005,-2.825
8006,-2.775
8007,-2.660
8008,-2.570
8009,-2.510
8010,-2.505
8011,-2.515
8012,-2.520
8013,-2.525
8014,-2.530
8015,-2.535
8016,-2.530
8017,-2.525
8018,-2.525
8019,-2.520
8020,-2.520
8021,-2.520
8022,-2.505
8023,-2.505
8024,-2.495
8025,-2.495
8026,-2.495
8027,-2.490
8028,-2.490
8029,-2.485
8030,-2.480
8031,-2.475
8032,-2.465
8033,-2.465
8034,-2.455
8035,-2.455
8036,-2.445
8037,-2.445
8038,-2.435
8039,-2.430
8040,-2.420
8041,-2.405
8042,-2.400
8043,-2.395
8044,-2.385
8045,-2.370
8046,-2.355
8047,-2.340
8048,-2.310
8049,-2.300
8050,-2.285
8051,-2.265
8052,-2.245
8053,-2.215
8054,-2.205
8055,-2.185
8056,-2.165
8057,-2.145
8058,-2.115
8059,-2.095
8060,-2.065
8061,-2.055
8062,-2.045
8063,-2.050
8064,-2.075
8065,-2.105
8066,-2.150
8067,-2.195
8068,-2.250
8069,-2.290
8070,-2.330
8071,-2.365
8072,-2.400
8073,-2.420
8074,-2.435
8075,-2.450
8076,-2.460
8077,-2.465
8078,-2.470
8079,-2.475
8080,-2.465
8081,-2.475
8082,-2.475
8083,-2.470
8084,-2.470
8085,-2.470
8086,-2.475
8087,-2.475
8088,-2.475
8089,-2.475
8090,-2.480
8091,-2.465
8092,-2.455
8093,-2.455
8094,-2.455
8095,-2.475
8096,-2.455
8097,-2.455
8098,-2.450
8099,-2.450
8100,-2.455
8101,-2.455
8102,-2.455
8103,-2.450
8104,-2.455
8105,-2.460
8106,-2.455
8107,-2.455
8108,-2.450
8109,-2.455
8110,-2.455
8111,-2.465
8112,-2.460
8113,-2.460
8114,-2.460
8115,-2.465
8116,-2.460
8117,-2.465
8118,-2.460
8119,-2.465
8120,-2.455
8121,-2.450
8122,-2.435
8123,-2.420
8124,-2.400
8125,-2.395
8126,-2.390
8127,-2.385
8128,-2.385
8129,-2.370
8130,-2.365
8131,-2.350
8132,-2.325
8133,-2.315
8134,-2.305
8135,-2.305
8136,-2.305
8137,-2.300
8138,-2.330
8139,-2.345
8140,-2.385
8141,-2.415
8142,-2.450
8143,-2.485
8144,-2.495
8145,-2.505
8146,-2.505
8147,-2.510
8148,-2.505
8149,-2.510
8150,-2.505
8151,-2.505
8152,-2.510
8153,-2.515
8154,-2.510
8155,-2.505
8156,-2.510
8157,-2.500
8158,-2.495
8159,-2.495
8160,-2.495
8161,-2.505
8162,-2.500
8163,-2.455
8164,-2.325
8165,-2.085
8166,-1.720
8167,-1.295
8168,-0.950
8169,-0.860
8170,-1.050
8171,-1.490
8172,-2.025
8173,-2.455
8174,-2.670
8175,-2.665
8176,-2.580
8177,-2.490
8178,-2.450
8179,-2.465
8180,-2.465
8181,-2.480
8182,-2.480
8183,-2.490
8184,-2.500
8185,-2.495
8186,-2.490
8187,-2.485
8188,-2.480
8189,-2.475
8190,-2.470
8191,-2.475
8192,-2.465
8193,-2.465
8194,-2.470
8195,-2.465
8196,-2.465
8197,-2.455
8198,-2.450
8199,-2.445
8200,-2.445
8201,-2.440
8202,-2.435
8203,-2.430
8204,-2.420
8205,-2.420
8206,-2.405
8207,-2.405
8208,-2.400
8209,-2.390
8210,-2.370
8211,-2.360
8212,-2.365
8213,-2.350
8214,-2.340
8215,-2.335
8216,-2.315
8217,-2.300
8218,-2.290
8219,-2.275
8220,-2.245
8221,-2.215
8222,-2.210
8223,-2.190
8224,-2.170
8225,-2.150
8226,-2.115
8227,-2.095
8228,-2.080
8229,-2.055
8230,-2.040
8231,-2.030
8232,-2.035
8233,-2.050
8234,-2.080
8235,-2.120
8236,-2.165
8237,-2.215
8238,-2.250
8239,-2.300
8240,-2.335
8241,-2.365
8242,-2.385
8243,-2.415
8244,-2.420
8245,-2.435
8246,-2.445
8247,-2.450
8248,-2.455
8249,-2.455
8250,-2.455
8251,-2.450
8252,-2.445
8253,-2.450
8254,-2.450
8255,-2.450
8256,-2.450
8257,-2.450
8258,-2.445
8259,-2.450
8260,-2.445
8261,-2.445
8262,-2.440
8263,-2.435
8264,-2.435
8265,-2.435
8266,-2.435
8267,-2.435
8268,-2.445
8269,-2.435
8270,-2.435
8271,-2.435
8272,-2.435
8273,-2.450
8274,-2.435
8275,-2.435
8276,-2.445
8277,-2.445
8278,-2.445
8279,-2.435
8280,-2.435
8281,-2.435
8282,-2.435
8283,-2.445
8284,-2.445
8285,-2.440
8286,-2.445
8287,-2.450
8288,-2.445
8289,-2.435
8290,-2.435
8291,-2.415
8292,-2.400
8293,-2.385
8294,-2.370
8295,-2.365
8296,-2.365
8297,-2.355
8298,-2.355
8299,-2.340
8300,-2.325
8301,-2.300
8302,-2.285
8303,-2.290
8304,-2.295
8305,-2.300
8306,-2.315
8307,-2.335
8308,-2.365
8309,-2.400
8310,-2.445
8311,-2.455
8312,-2.475
8313,-2.485
8314,-2.495
8315,-2.505
8316,-2.495
8317,-2.495
8318,-2.500
8319,-2.500
8320,-2.495
8321,-2.495
8322,-2.495
8323,-2.495
8324,-2.490
8325,-2.490
8326,-2.490
8327,-2.485
8328,-2.480
8329,-2.480
8330,-2.490
8331,-2.485
8332,-2.450
8333,-2.335
8334,-2.095
8335,-1.700
8336,-1.265
8337,-0.950
8338,-0.925
8339,-1.240
8340,-1.740
8341,-2.255
8342,-2.570
8343,-2.635
8344,-2.570
8345,-2.480
8346,-2.435
8347,-2.440
8348,-2.450
8349,-2.470
8350,-2.480
8351,-2.490
8352,-2.485
8353,-2.485
8354,-2.480
8355,-2.480
8356,-2.475
8357,-2.485
8358,-2.475
8359,-2.480
8360,-2.480
8361,-2.470
8362,-2.470
8363,-2.450
8364,-2.450
8365,-2.450
8366,-2.450
8367,-2.450
8368,-2.435
8369,-2.435
8370,-2.430
8371,-2.425
8372,-2.415
8373,-2.405
8374,-2.400
8375,-2.395
8376,-2.385
8377,-2.385
8378,-2.370
8379,-2.365
8380,-2.350
8381,-2.340
8382,-2.335
8383,-2.315
8384,-2.310
8385,-2.300
8386,-2.275
8387,-2.265
8388,-2.250
8389,-2.230
8390,-2.215
8391,-2.185
8392,-2.165
8393,-2.145
8394,-2.130
8395,-2.100
8396,-2.090
8397,-2.065
8398,-2.045
8399,-2.020
8400,-2.030
8401,-2.030
8402,-2.050
8403,-2.080
8404,-2.115
8405,-2.175
8406,-2.225
8407,-2.265
8408,-2.310
8409,-2.335
8410,-2.370
8411,-2.400
8412,-2.415
8413,-2.420
8414,-2.435
8415,-2.435
8416,-2.445
8417,-2.450
8418,-2.450
8419,-2.450
8420,-2.450
8421,-2.450
8422,-2.445
8423,-2.445
8424,-2.435
8425,-2.440
8426,-2.445
8427,-2.445
8428,-2.445
8429,-2.435
8430,-2.435
8431,-2.420
8432,-2.425
8433,-2.425
8434,-2.425
8435,-2.435
8436,-2.435
8437,-2.435
8438,-2.435
8439,-2.425
8440,-2.430
8441,-2.450
8442,-2.435
8443,-2.445
8444,-2.435
8445,-2.435
8446,-2.445
8447,-2.435
8448,-2.435
8449,-2.445
8450,-2.445
8451,-2.445
8452,-2.445
8453,-2.450
8454,-2.450
8455,-2.450
8456,-2.445
8457,-2.445
8458,-2.435
8459,-2.430
8460,-2.420
8461,-2.400
8462,-2.385
8463,-2.370
8464,-2.365
8465,-2.355
8466,-2.365
8467,-2.355
8468,-2.340
8469,-2.330
8470,-2.300
8471,-2.290
8472,-2.290
8473,-2.290
8474,-2.300
8475,-2.305
8476,-2.325
8477,-2.345
8478,-2.375
8479,-2.410
8480,-2.435
8481,-2.460
8482,-2.480
8483,-2.485
8484,-2.490
8485,-2.495
8486,-2.490
8487,-2.490
8488,-2.510
8489,-2.500
8490,-2.505
8491,-2.505
8492,-2.500
8493,-2.515
8494,-2.500
8495,-2.500
8496,-2.490
8497,-2.485
8498,-2.500
8499,-2.500
8500,-2.485
8501,-2.450
8502,-2.325
8503,-2.070
8504,-1.690
8505,-1.265
8506,-0.960
8507,-0.940
8508,-1.230
8509,-1.685
8510,-2.175
8511,-2.525
8512,-2.630
8513,-2.585
8514,-2.515
8515,-2.465
8516,-2.445
8517,-2.460
8518,-2.470
8519,-2.490
8520,-2.490
8521,-2.500
8522,-2.495
8523,-2.495
8524,-2.495
8525,-2.485
8526,-2.480
8527,-2.485
8528,-2.485
8529,-2.485
8530,-2.500
8531,-2.475
8532,-2.465
8533,-2.465
8534,-2.465
8535,-2.475
8536,-2.465
8537,-2.460
8538,-2.450
8539,-2.445
8540,-2.445
8541,-2.435
8542,-2.435
8543,-2.435
8544,-2.435
8545,-2.425
8546,-2.415
8547,-2.400
8548,-2.400
8549,-2.385
8550,-2.375
8551,-2.365
8552,-2.355
8553,-2.350
8554,-2.335
8555,-2.315
8556,-2.290
8557,-2.270
8558,-2.250
8559,-2.235
8560,-2.215
8561,-2.195
8562,-2.175
8563,-2.150
8564,-2.130
8565,-2.115
8566,-2.090
8567,-2.075
8568,-2.060
8569,-2.050
8570,-2.050
8571,-2.060
8572,-2.080
8573,-2.130
8574,-2.180
8575,-2.230
8576,-2.280
8577,-2.315
8578,-2.365
8579,-2.395
8580,-2.420
8581,-2.435
8582,-2.450
8583,-2.455
8584,-2.465
8585,-2.465
8586,-2.465
8587,-2.470
8588,-2.465
8589,-2.465
8590,-2.465
8591,-2.470
8592,-2.465
8593,-2.465
8594,-2.465
8595,-2.465
8596,-2.465
8597,-2.465
8598,-2.465
8599,-2.455
8600,-2.455
8601,-2.455
8602,-2.455
8603,-2.460
8604,-2.460
8605,-2.455
8606,-2.450
8607,-2.450
8608,-2.460
8609,-2.460
8610,-2.455
8611,-2.455
8612,-2.455
8613,-2.460
8614,-2.460
8615,-2.460
8616,-2.455
8617,-2.450
8618,-2.455
8619,-2.475
8620,-2.460
8621,-2.465
8622,-2.465
8623,-2.475
8624,-2.480
8625,-2.475
8626,-2.465
8627,-2.470
8628,-2.465
8629,-2.465
8630,-2.455
8631,-2.450
8632,-2.430
8633,-2.415
8634,-2.400
8635,-2.385
8636,-2.385
8637,-2.385
8638,-2.375
8639,-2.355
8640,-2.335
8641,-2.320
8642,-2.315
8643,-2.315
8644,-2.325
8645,-2.335
8646,-2.350
8647,-2.385
8648,-2.400
8649,-2.445
8650,-2.475
8651,-2.495
8652,-2.505
8653,-2.515
8654,-2.520
8655,-2.535
8656,-2.535
8657,-2.535
8658,-2.535
8659,-2.530
8660,-2.525
8661,-2.545
8662,-2.530
8663,-2.535
8664,-2.535
8665,-2.535
8666,-2.545
8667,-2.530
8668,-2.520
8669,-2.515
8670,-2.520
8671,-2.500
8672,-2.400
8673,-2.205
8674,-1.860
8675,-1.455
8676,-1.100
8677,-0.995
8678,-1.180
8679,-1.605
8680,-2.110
8681,-2.520
8682,-2.685
8683,-2.675
8684,-2.605
8685,-2.530
8686,-2.490
8687,-2.490
8688,-2.510
8689,-2.520
8690,-2.525
8691,-2.525
8692,-2.520
8693,-2.515
8694,-2.520
8695,-2.525
8696,-2.520
8697,-2.520
8698,-2.520
8699,-2.515
8700,-2.510
8701,-2.500
8702,-2.495
8703,-2.495
8704,-2.495
8705,-2.495
8706,-2.490
8707,-2.485
8708,-2.485
8709,-2.470
8710,-2.465
8711,-2.460
8712,-2.455
8713,-2.450
8714,-2.445
8715,-2.435
8716,-2.435
8717,-2.425
8718,-2.420
8719,-2.405
8720,-2.400
8721,-2.385
8722,-2.365
8723,-2.350
8724,-2.335
8725,-2.315
8726,-2.305
8727,-2.285
8728,-2.275
8729,-2.250
8730,-2.225
8731,-2.215
8732,-2.190
8733,-2.175
8734,-2.150
8735,-2.120
8736,-2.095
8737,-2.070
8738,-2.055
8739,-2.045
8740,-2.060
8741,-2.080
8742,-2.115
8743,-2.160
8744,-2.200
8745,-2.265
8746,-2.310
8747,-2.355
8748,-2.400
8749,-2.430
8750,-2.455
8751,-2.455
8752,-2.475
8753,-2.485
8754,-2.490
8755,-2.505
8756,-2.490
8757,-2.485
8758,-2.495
8759,-2.500
8760,-2.500
8761,-2.495
8762,-2.490
8763,-2.485
8764,-2.480
8765,-2.485
8766,-2.480
8767,-2.480
8768,-2.475
8769,-2.475
8770,-2.480
8771,-2.485
8772,-2.480
8773,-2.485
8774,-2.480
8775,-2.480
8776,-2.480
8777,-2.480
8778,-2.480
8779,-2.480
8780,-2.490
8781,-2.490
8782,-2.480
8783,-2.480
8784,-2.480
8785,-2.475
8786,-2.480
8787,-2.485
8788,-2.495
8789,-2.490
8790,-2.495
8791,-2.500
8792,-2.510
8793,-2.495
8794,-2.495
8795,-2.490
8796,-2.480
8797,-2.485
8798,-2.465
8799,-2.455
8800,-2.445
8801,-2.435
8802,-2.425
8803,-2.420
8804,-2.415
8805,-2.400
8806,-2.395
8807,-2.370
8808,-2.350
8809,-2.345
8810,-2.335
8811,-2.340
8812,-2.350
8813,-2.365
8814,-2.385
8815,-2.415
8816,-2.440
8817,-2.475
8818,-2.500
8819,-2.520
8820,-2.530
8821,-2.540
8822,-2.540
8823,-2.555
8824,-2.555
8825,-2.555
8826,-2.555
8827,-2.555
8828,-2.555
8829,-2.555
8830,-2.555
8831,-2.555
8832,-2.555
8833,-2.550
8834,-2.540
8835,-2.540
8836,-2.540
8837,-2.545
8838,-2.545
8839,-2.540
8840,-2.455
8841,-2.300
8842,-2.005
8843,-1.615
8844,-1.235
8845,-1.095
8846,-1.260
8847,-1.695
8848,-2.250
8849,-2.695
8850,-2.850
8851,-2.805
8852,-2.680
8853,-2.580
8854,-2.520
8855,-2.510
8856,-2.525
8857,-2.535
8858,-2.545
8859,-2.555
8860,-2.555
8861,-2.545
8862,-2.540
8863,-2.535
8864,-2.535
8865,-2.530
8866,-2.525
8867,-2.530
8868,-2.520
8869,-2.520
8870,-2.520
8871,-2.520
8872,-2.520
8873,-2.515
8874,-2.505
8875,-2.495
8876,-2.485
8877,-2.485
8878,-2.480
8879,-2.475
8880,-2.475
8881,-2.480
8882,-2.465
8883,-2.460
8884,-2.450
8885,-2.445
8886,-2.450
8887,-2.425
8888,-2.400
8889,-2.390
8890,-2.375
8891,-2.365
8892,-2.355
8893,-2.340
8894,-2.330
8895,-2.305
8896,-2.280
8897,-2.265
8898,-2.245
8899,-2.220
8900,-2.200
8901,-2.175
8902,-2.150
8903,-2.130
8904,-2.110
8905,-2.090
8906,-2.075
8907,-2.060
8908,-2.060
8909,-2.075
8910,-2.105
8911,-2.145
8912,-2.190
8913,-2.250
8914,-2.300
8915,-2.350
8916,-2.400
8917,-2.430
8918,-2.455
8919,-2.475
8920,-2.490
8921,-2.500
8922,-2.505
8923,-2.520
8924,-2.510
8925,-2.515
8926,-2.515
8927,-2.520
8928,-2.525
8929,-2.515
8930,-2.510
8931,-2.505
8932,-2.505
8933,-2.505
8934,-2.500
8935,-2.500
8936,-2.500
8937,-2.505
8938,-2.515
8939,-2.505
8940,-2.505
8941,-2.510
8942,-2.505
8943,-2.500
8944,-2.495
8945,-2.505
8946,-2.495
8947,-2.505
8948,-2.505
8949,-2.505
8950,-2.505
8951,-2.505
8952,-2.510
8953,-2.510
8954,-2.515
8955,-2.515
8956,-2.505
8957,-2.505
8958,-2.505
8959,-2.510
8960,-2.505
8961,-2.515
8962,-2.505
8963,-2.495
8964,-2.480
8965,-2.475
8966,-2.465
8967,-2.450
8968,-2.435
8969,-2.425
8970,-2.445
8971,-2.420
8972,-2.415
8973,-2.390
8974,-2.385
8975,-2.370
8976,-2.370
8977,-2.370
8978,-2.370
8979,-2.370
8980,-2.385
8981,-2.415
8982,-2.445
8983,-2.480
8984,-2.520
8985,-2.535
8986,-2.555
8987,-2.560
8988,-2.570
8989,-2.570
8990,-2.560
8991,-2.555
8992,-2.555
8993,-2.565
8994,-2.570
8995,-2.570
8996,-2.570
8997,-2.560
8998,-2.555
8999,-2.555
9000,-2.555
9001,-2.545
9002,-2.555
9003,-2.560
9004,-2.565
9005,-2.525
9006,-2.420
9007,-2.205
9008,-1.850
9009,-1.435
9010,-1.110
9011,-1.060
9012,-1.345
9013,-1.855
9014,-2.420
9015,-2.795
9016,-2.895
9017,-2.830
9018,-2.705
9019,-2.600
9020,-2.540
9021,-2.525
9022,-2.530
9023,-2.540
9024,-2.540
9025,-2.540
9026,-2.535
9027,-2.535
9028,-2.535
9029,-2.535
9030,-2.525
9031,-2.525
9032,-2.520
9033,-2.525
9034,-2.520
9035,-2.520
9036,-2.520
9037,-2.510
9038,-2.505
9039,-2.490
9040,-2.485
9041,-2.485
9042,-2.485
9043,-2.485
9044,-2.465
9045,-2.470
9046,-2.465
9047,-2.460
9048,-2.465
9049,-2.455
9050,-2.435
9051,-2.435
9052,-2.415
9053,-2.400
9054,-2.390
9055,-2.375
9056,-2.365
9057,-2.355
9058,-2.340
9059,-2.315
9060,-2.295
9061,-2.275
9062,-2.255
9063,-2.230
9064,-2.215
9065,-2.200
9066,-2.180
9067,-2.160
9068,-2.135
9069,-2.115
9070,-2.090
9071,-2.070
9072,-2.050
9073,-2.040
9074,-2.045
9075,-2.070
9076,-2.110
9077,-2.160
9078,-2.215
9079,-2.265
9080,-2.305
9081,-2.350
9082,-2.385
9083,-2.415
9084,-2.430
9085,-2.450
9086,-2.470
9087,-2.475
9088,-2.480
9089,-2.485
9090,-2.490
9091,-2.490
9092,-2.490
9093,-2.485
9094,-2.480
9095,-2.475
9096,-2.475
9097,-2.475
9098,-2.475
9099,-2.475
9100,-2.480
9101,-2.480
9102,-2.465
9103,-2.470
9104,-2.465
9105,-2.470
9106,-2.475
9107,-2.465
9108,-2.465
9109,-2.460
9110,-2.460
9111,-2.470
9112,-2.460
9113,-2.465
9114,-2.465
9115,-2.465
9116,-2.465
9117,-2.470
9118,-2.465
9119,-2.470
9120,-2.465
9121,-2.465
9122,-2.460
9123,-2.465
9124,-2.465
9125,-2.465
9126,-2.470
9127,-2.470
9128,-2.465
9129,-2.455
9130,-2.455
9131,-2.445
9132,-2.435
9133,-2.415
9134,-2.400
9135,-2.385
9136,-2.385
9137,-2.370
9138,-2.370
9139,-2.365
9140,-2.340
9141,-2.325
9142,-2.305
9143,-2.290
9144,-2.300
9145,-2.305
9146,-2.315
9147,-2.330
9148,-2.340
9149,-2.385
9150,-2.410
9151,-2.450
9152,-2.475
9153,-2.495
9154,-2.500
9155,-2.505
9156,-2.495
9157,-2.500
9158,-2.515
9159,-2.510
9160,-2.505
9161,-2.505
9162,-2.500
9163,-2.510
9164,-2.510
9165,-2.510
9166,-2.495
9167,-2.485
9168,-2.480
9169,-2.485
9170,-2.500
9171,-2.505
9172,-2.475
9173,-2.365
9174,-2.150
9175,-1.785
9176,-1.350
9177,-0.995
9178,-0.855
9179,-1.060
9180,-1.535
9181,-2.075
9182,-2.520
9183,-2.700
9184,-2.665
9185,-2.560
9186,-2.485
9187,-2.450
9188,-2.445
9189,-2.465
9190,-2.490
9191,-2.485
9192,-2.490
9193,-2.485
9194,-2.495
9195,-2.500
9196,-2.485
9197,-2.485
9198,-2.475
9199,-2.475
9200,-2.465
9201,-2.470
9202,-2.470
9203,-2.470
9204,-2.465
9205,-2.455
9206,-2.450
9207,-2.450
9208,-2.445
9209,-2.440
9210,-2.435
9211,-2.435
9212,-2.425
9213,-2.415
9214,-2.420
9215,-2.405
9216,-2.400
9217,-2.390
9218,-2.385
9219,-2.385
9220,-2.375
9221,-2.365
9222,-2.350
9223,-2.345
9224,-2.325
9225,-2.310
9226,-2.290
9227,-2.280
9228,-2.265
9229,-2.240
9230,-2.220
9231,-2.195
9232,-2.165
9233,-2.150
9234,-2.130
9235,-2.105
9236,-2.085
9237,-2.050
9238,-2.040
9239,-2.030
9240,-2.025
9241,-2.035
9242,-2.055
9243,-2.095
9244,-2.135
9245,-2.180
9246,-2.230
9247,-2.275
9248,-2.320
9249,-2.350
9250,-2.385
9251,-2.400
9252,-2.415
9253,-2.425
9254,-2.435
9255,-2.435
9256,-2.435
9257,-2.445
9258,-2.445
9259,-2.445
9260,-2.445
9261,-2.445
9262,-2.435
9263,-2.445
9264,-2.430
9265,-2.440
9266,-2.435
9267,-2.440
9268,-2.435
9269,-2.435
9270,-2.435
9271,-2.435
9272,-2.430
9273,-2.430
9274,-2.435
9275,-2.435
9276,-2.435
9277,-2.425
9278,-2.425
9279,-2.435
9280,-2.420
9281,-2.425
9282,-2.425
9283,-2.430
9284,-2.430
9285,-2.420
9286,-2.425
9287,-2.430
9288,-2.435
9289,-2.435
9290,-2.435
9291,-2.430
9292,-2.430
9293,-2.435
9294,-2.435
9295,-2.435
9296,-2.435
9297,-2.425
9298,-2.420
9299,-2.415
9300,-2.395
9301,-2.385
9302,-2.365
9303,-2.355
9304,-2.350
9305,-2.345
9306,-2.340
9307,-2.330
9308,-2.310
9309,-2.295
9310,-2.275
9311,-2.275
9312,-2.280
9313,-2.280
9314,-2.290
9315,-2.305
9316,-2.320
9317,-2.350
9318,-2.375
9319,-2.405
9320,-2.435
9321,-2.470
9322,-2.465
9323,-2.475
9324,-2.480
9325,-2.480
9326,-2.495
9327,-2.480
9328,-2.480
9329,-2.475
9330,-2.480
9331,-2.485
9332,-2.480
9333,-2.485
9334,-2.475
9335,-2.475
9336,-2.475
9337,-2.465
9338,-2.465
9339,-2.475
9340,-2.455
9341,-2.385
9342,-2.230
9343,-1.935
9344,-1.520
9345,-1.100
9346,-0.845
9347,-0.915
9348,-1.285
9349,-1.805
9350,-2.300
9351,-2.585
9352,-2.620
9353,-2.550
9354,-2.465
9355,-2.425
9356,-2.415
9357,-2.435
9358,-2.450
9359,-2.465
9360,-2.465
9361,-2.460
9362,-2.465
9363,-2.480
9364,-2.455
9365,-2.455
9366,-2.455
9367,-2.460
9368,-2.460
9369,-2.450
9370,-2.450
9371,-2.435
9372,-2.435
9373,-2.435
9374,-2.435
9375,-2.430
9376,-2.425
9377,-2.425
9378,-2.420
9379,-2.415
9380,-2.405
9381,-2.400
9382,-2.395
9383,-2.390
9384,-2.385
9385,-2.375
9386,-2.365
9387,-2.355
9388,-2.350
9389,-2.340
9390,-2.335
9391,-2.320
9392,-2.305
9393,-2.295
9394,-2.275
9395,-2.260
9396,-2.245
9397,-2.225
9398,-2.205
9399,-2.190
9400,-2.170
9401,-2.150
9402,-2.130
9403,-2.110
9404,-2.090
9405,-2.050
9406,-2.045
9407,-2.025
9408,-2.010
9409,-2.005
9410,-2.010
9411,-2.040
9412,-2.070
9413,-2.115
9414,-2.155
9415,-2.195
9416,-2.245
9417,-2.285
9418,-2.320
9419,-2.350
9420,-2.370
9421,-2.395
9422,-2.400
9423,-2.405
9424,-2.420
9425,-2.420
9426,-2.435
9427,-2.430
9428,-2.435
9429,-2.430
9430,-2.425
9431,-2.425
9432,-2.420
9433,-2.420
9434,-2.420
9435,-2.420
9436,-2.420
9437,-2.420
9438,-2.420
9439,-2.420
9440,-2.420
9441,-2.415
9442,-2.400
9443,-2.405
9444,-2.400
9445,-2.405
9446,-2.405
9447,-2.415
9448,-2.415
9449,-2.415
9450,-2.410
9451,-2.410
9452,-2.420
9453,-2.415
9454,-2.415
9455,-2.415
9456,-2.420
9457,-2.435
9458,-2.415
9459,-2.420
9460,-2.420
9461,-2.420
9462,-2.425
9463,-2.420
9464,-2.420
9465,-2.415
9466,-2.415
9467,-2.405
9468,-2.400
9469,-2.385
9470,-2.370
9471,-2.350
9472,-2.340
9473,-2.335
9474,-2.335
9475,-2.330
9476,-2.315
9477,-2.300
9478,-2.280
9479,-2.265
9480,-2.260
9481,-2.265
9482,-2.275
9483,-2.280
9484,-2.305
9485,-2.330
9486,-2.365
9487,-2.395
9488,-2.425
9489,-2.445
9490,-2.455
9491,-2.470
9492,-2.465
9493,-2.470
9494,-2.485
9495,-2.475
9496,-2.475
9497,-2.475
9498,-2.475
9499,-2.480
9500,-2.475
9501,-2.475
9502,-2.475
9503,-2.470
9504,-2.470
9505,-2.465
9506,-2.465
9507,-2.470
9508,-2.465
9509,-2.420
9510,-2.310
9511,-2.070
9512,-1.705
9513,-1.300
9514,-0.970
9515,-0.910
9516,-1.130
9517,-1.555
9518,-2.040
9519,-2.420
9520,-2.570
9521,-2.570
9522,-2.500
9523,-2.450
9524,-2.420
9525,-2.420
9526,-2.435
9527,-2.450
9528,-2.455
9529,-2.455
9530,-2.460
9531,-2.460
9532,-2.465
9533,-2.465
9534,-2.460
9535,-2.460
9536,-2.450
9537,-2.450
9538,-2.445
9539,-2.435
9540,-2.435
9541,-2.450
9542,-2.440
9543,-2.440
9544,-2.435
9545,-2.420
9546,-2.420
9547,-2.415
9548,-2.400
9549,-2.400
9550,-2.400
9551,-2.395
9552,-2.385
9553,-2.385
9554,-2.375
9555,-2.365
9556,-2.365
9557,-2.360
9558,-2.335
9559,-2.330
9560,-2.310
9561,-2.300
9562,-2.280
9563,-2.265
9564,-2.250
9565,-2.230
9566,-2.215
9567,-2.200
9568,-2.180
9569,-2.160
9570,-2.135
9571,-2.120
9572,-2.090
9573,-2.070
9574,-2.045
9575,-2.030
9576,-2.010
9577,-2.010
9578,-2.015
9579,-2.030
9580,-2.070
9581,-2.115
9582,-2.165
9583,-2.205
9584,-2.265
9585,-2.300
9586,-2.340
9587,-2.365
9588,-2.400
9589,-2.400
9590,-2.420
9591,-2.420
9592,-2.430
9593,-2.435
9594,-2.435
9595,-2.435
9596,-2.435
9597,-2.435
9598,-2.435
9599,-2.435
9600,-2.435
9601,-2.425
9602,-2.435
9603,-2.430
9604,-2.425
9605,-2.430
9606,-2.420
9607,-2.420
9608,-2.420
9609,-2.420
9610,-2.420
9611,-2.420
9612,-2.420
9613,-2.420
9614,-2.420
9615,-2.415
9616,-2.420
9617,-2.420
9618,-2.415
9619,-2.420
9620,-2.420
9621,-2.420
9622,-2.425
9623,-2.430
9624,-2.435
9625,-2.435
9626,-2.425
9627,-2.430
9628,-2.435
9629,-2.435
9630,-2.445
9631,-2.435
9632,-2.435
9633,-2.435
9634,-2.435
9635,-2.435
9636,-2.425
9637,-2.420
9638,-2.395
9639,-2.385
9640,-2.365
9641,-2.360
9642,-2.345
9643,-2.340
9644,-2.340
9645,-2.345
9646,-2.325
9647,-2.300
9648,-2.290
9649,-2.280
9650,-2.280
9651,-2.280
9652,-2.290
9653,-2.310
9654,-2.335
9655,-2.365
9656,-2.385
9657,-2.420
9658,-2.450
9659,-2.470
9660,-2.480
9661,-2.485
9662,-2.490
9663,-2.485
9664,-2.480
9665,-2.485
9666,-2.485
9667,-2.485
9668,-2.495
9669,-2.500
9670,-2.495
9671,-2.500
9672,-2.505
9673,-2.495
9674,-2.495
9675,-2.485
9676,-2.480
9677,-2.490
9678,-2.465
9679,-2.400
9680,-2.230
9681,-1.920
9682,-1.510
9683,-1.130
9684,-0.925
9685,-0.995
9686,-1.335
9687,-1.815
9688,-2.280
9689,-2.555
9690,-2.620
9691,-2.560
9692,-2.490
9693,-2.455
9694,-2.445
9695,-2.460
9696,-2.480
9697,-2.485
9698,-2.495
9699,-2.495
9700,-2.495
9701,-2.485
9702,-2.480
9703,-2.480
9704,-2.480
9705,-2.480
9706,-2.480
9707,-2.480
9708,-2.480
9709,-2.475
9710,-2.470
9711,-2.475
9712,-2.465
9713,-2.465
9714,-2.475
9715,-2.460
9716,-2.450
9717,-2.445
9718,-2.435
9719,-2.445
9720,-2.420
9721,-2.420
9722,-2.415
9723,-2.415
9724,-2.400
9725,-2.400
9726,-2.385
9727,-2.385
9728,-2.365
9729,-2.350
9730,-2.335
9731,-2.315
9732,-2.310
9733,-2.290
9734,-2.280
9735,-2.255
9736,-2.230
9737,-2.220
9738,-2.200
9739,-2.180
9740,-2.155
9741,-2.145
9742,-2.115
9743,-2.095
9744,-2.075
9745,-2.050
9746,-2.035
9747,-2.035
9748,-2.045
9749,-2.085
9750,-2.130
9751,-2.190
9752,-2.245
9753,-2.290
9754,-2.335
9755,-2.355
9756,-2.365
9757,-2.400
9758,-2.425
9759,-2.445
9760,-2.465
9761,-2.485
9762,-2.475
9763,-2.475
9764,-2.465
9765,-2.475
9766,-2.475
9767,-2.475
9768,-2.475
9769,-2.475
9770,-2.470
9771,-2.470
9772,-2.465
9773,-2.475
9774,-2.465
9775,-2.470
9776,-2.465
9777,-2.460
9778,-2.455
9779,-2.455
9780,-2.465
9781,-2.465
9782,-2.465
9783,-2.465
9784,-2.460
9785,-2.465
9786,-2.460
9787,-2.465
9788,-2.465
9789,-2.465
9790,-2.465
9791,-2.465
9792,-2.465
9793,-2.460
9794,-2.465
9795,-2.465
9796,-2.465
9797,-2.470
9798,-2.475
9799,-2.475
9800,-2.475
9801,-2.480
9802,-2.480
9803,-2.485
9804,-2.465
9805,-2.450
9806,-2.435
9807,-2.430
9808,-2.435
9809,-2.410
9810,-2.400
9811,-2.395
9812,-2.385
9813,-2.390
9814,-2.370
9815,-2.350
9816,-2.335
9817,-2.330
9818,-2.320
9819,-2.330
9820,-2.330
9821,-2.340
9822,-2.355
9823,-2.385
9824,-2.420
9825,-2.450
9826,-2.485
9827,-2.505
9828,-2.520
9829,-2.525
9830,-2.525
9831,-2.525
9832,-2.525
9833,-2.535
9834,-2.535
9835,-2.535
9836,-2.540
9837,-2.540
9838,-2.545
9839,-2.540
9840,-2.535
9841,-2.530
9842,-2.530
9843,-2.525
9844,-2.525
9845,-2.550
9846,-2.540
9847,-2.520
9848,-2.445
9849,-2.275
9850,-1.960
9851,-1.595
9852,-1.235
9853,-1.065
9854,-1.225
9855,-1.650
9856,-2.165
9857,-2.600
9858,-2.790
9859,-2.785
9860,-2.680
9861,-2.580
9862,-2.530
9863,-2.510
9864,-2.510
9865,-2.520
9866,-2.530
9867,-2.530
9868,-2.525
9869,-2.535
9870,-2.530
9871,-2.530
9872,-2.525
9873,-2.520
9874,-2.520
9875,-2.510
9876,-2.505
9877,-2.490
9878,-2.505
9879,-2.510
9880,-2.505
9881,-2.505
9882,-2.495
9883,-2.495
9884,-2.480
9885,-2.475
9886,-2.470
9887,-2.470
9888,-2.465
9889,-2.460
9890,-2.460
9891,-2.450
9892,-2.450
9893,-2.435
9894,-2.430
9895,-2.420
9896,-2.415
9897,-2.405
9898,-2.385
9899,-2.365
9900,-2.355
9901,-2.340
9902,-2.320
9903,-2.315
9904,-2.295
9905,-2.275
9906,-2.250
9907,-2.230
9908,-2.205
9909,-2.175
9910,-2.160
9911,-2.145
9912,-2.130
9913,-2.095
9914,-2.060
9915,-2.045
9916,-2.045
9917,-2.055
9918,-2.080
9919,-2.125
9920,-2.170
9921,-2.220
9922,-2.275
9923,-2.315
9924,-2.355
9925,-2.400
9926,-2.425
9927,-2.450
9928,-2.465
9929,-2.485
9930,-2.495
9931,-2.515
9932,-2.515
9933,-2.510
9934,-2.520
9935,-2.510
9936,-2.505
9937,-2.495
9938,-2.505
9939,-2.525
9940,-2.510
9941,-2.515
9942,-2.505
9943,-2.505
9944,-2.495
9945,-2.485
9946,-2.495
9947,-2.495
9948,-2.495
9949,-2.505
9950,-2.500
9951,-2.500
9952,-2.500
9953,-2.505
9954,-2.510
9955,-2.505
9956,-2.495
9957,-2.500
9958,-2.495
9959,-2.495
9960,-2.495
9961,-2.505
9962,-2.510
9963,-2.510
9964,-2.505
9965,-2.505
9966,-2.495
9967,-2.510
9968,-2.510
9969,-2.510
9970,-2.505
9971,-2.505
9972,-2.495
9973,-2.475
9974,-2.460
9975,-2.450
9976,-2.460
9977,-2.445
9978,-2.445
9979,-2.435
9980,-2.420
9981,-2.405
9982,-2.385
9983,-2.375
9984,-2.380
9985,-2.370
9986,-2.370
9987,-2.370
9988,-2.385
9989,-2.420
9990,-2.445
9991,-2.485
9992,-2.510
9993,-2.535
9994,-2.540
9995,-2.555
9996,-2.560
9997,-2.570
9998,-2.570
9999,-2.570
10000,-2.575
10001,-2.580
10002,-2.575
10003,-2.575
10004,-2.570
10005,-2.570
10006,-2.570
10007,-2.580
10008,-2.570
10009,-2.570
10010,-2.560
10011,-2.555
10012,-2.560
10013,-2.565
10014,-2.555
10015,-2.490
10016,-2.335
10017,-2.055
10018,-1.665
10019,-1.285
10020,-1.080
10021,-1.190
10022,-1.580
10023,-2.120
10024,-2.620
10025,-2.885
10026,-2.925
10027,-2.815
10028,-2.690
10029,-2.585
10030,-2.540
10031,-2.530
10032,-2.535
10033,-2.555
10034,-2.560
10035,-2.570
10036,-2.555
10037,-2.550
10038,-2.540
10039,-2.540
10040,-2.540
10041,-2.535
10042,-2.530
10043,-2.525
10044,-2.525
10045,-2.525
10046,-2.520
10047,-2.520
10048,-2.520
10049,-2.520
10050,-2.520
10051,-2.505
10052,-2.505
10053,-2.485
10054,-2.480
10055,-2.475
10056,-2.475
10057,-2.470
10058,-2.460
10059,-2.450
10060,-2.445
10061,-2.440
10062,-2.435
10063,-2.430
10064,-2.420
10065,-2.420
10066,-2.385
10067,-2.370
10068,-2.355
10069,-2.335
10070,-2.315
10071,-2.300
10072,-2.290
10073,-2.265
10074,-2.250
10075,-2.225
10076,-2.210
10077,-2.190
10078,-2.165
10079,-2.145
10080,-2.125
10081,-2.105
