'sample interval','MLII','V1'
'0.004 sec','mV','mV'
0,-0.320,-1.240
1,-0.320,-1.240
2,-0.320,-1.240
3,-0.320,-1.240
4,-0.320,-1.290
5,0.030,-1.385
6,0.465,-1.485
7,0.955,-1.565
8,1.495,-1.575
9,1.995,-1.545
10,2.270,-1.425
11,2.210,-1.265
12,1.595,-1.120
13,0.670,-1.030
14,-0.250,-0.975
15,-1.170,-0.925
16,-1.630,-0.870
17,-1.255,-0.850
18,-0.935,-0.860
19,-0.870,-0.880
20,-0.975,-0.880
21,-1.105,-0.850
22,-1.190,-0.825
23,-1.180,-0.800
24,-1.170,-0.785
25,-1.155,-0.765
26,-1.125,-0.775
27,-1.150,-0.790
28,-1.165,-0.790
29,-1.180,-0.780
30,-1.185,-0.775
31,-1.160,-0.755
32,-1.135,-0.735
33,-1.110,-0.755
34,-1.080,-0.760
35,-1.090,-0.775
36,-1.100,-0.790
37,-1.110,-0.780
38,-1.110,-0.765
39,-1.105,-0.740
40,-1.075,-0.730
41,-1.050,-0.730
42,-1.035,-0.730
43,-1.030,-0.745
44,-1.020,-0.740
45,-1.005,-0.760
46,-1.000,-0.750
47,-0.970,-0.725
48,-0.935,-0.690
49,-0.910,-0.680
50,-0.895,-0.680
51,-0.885,-0.705
52,-0.845,-0.710
53,-0.830,-0.700
54,-0.815,-0.680
55,-0.770,-0.655
56,-0.710,-0.640
57,-0.655,-0.625
58,-0.595,-0.620
59,-0.560,-0.625
60,-0.515,-0.640
61,-0.495,-0.645
62,-0.485,-0.645
63,-0.470,-0.630
64,-0.445,-0.615
65,-0.410,-0.585
66,-0.355,-0.575
67,-0.340,-0.590
68,-0.335,-0.620
69,-0.355,-0.640
70,-0.385,-0.645
71,-0.420,-0.625
72,-0.465,-0.625
73,-0.495,-0.630
74,-0.545,-0.645
75,-0.565,-0.645
76,-0.675,-0.685
77,-0.735,-0.705
78,-0.810,-0.740
79,-0.880,-0.720
80,-0.950,-0.725
81,-1.005,-0.725
82,-1.050,-0.730
83,-1.075,-0.700
84,-1.115,-0.685
85,-1.130,-0.720
86,-1.165,-0.780
87,-1.215,-0.810
88,-1.255,-0.800
89,-1.260,-0.770
90,-1.235,-0.725
91,-1.215,-0.735
92,-1.220,-0.750
93,-1.235,-0.760
94,-1.250,-0.780
95,-1.260,-0.775
96,-1.275,-0.735
97,-1.275,-0.745
98,-1.260,-0.745
99,-1.250,-0.745
100,-1.235,-0.750
101,-1.240,-0.730
102,-1.240,-0.745
103,-1.245,-0.745
104,-1.265,-0.750
105,-1.265,-0.740
106,-1.240,-0.725
107,-1.210,-0.715
108,-1.210,-0.705
109,-1.225,-0.715
110,-1.240,-0.730
111,-1.260,-0.735
112,-1.265,-0.720
113,-1.270,-0.715
114,-1.265,-0.705
115,-1.245,-0.715
116,-1.225,-0.735
117,-1.235,-0.760
118,-1.255,-0.745
119,-1.285,-0.760
120,-1.300,-0.750
121,-1.305,-0.775
122,-1.295,-0.780
123,-1.290,-0.755
124,-1.295,-0.735
125,-1.295,-0.725
126,-1.305,-0.730
127,-1.320,-0.765
128,-1.320,-0.790
129,-1.340,-0.780
130,-1.345,-0.775
131,-1.325,-0.745
132,-1.315,-0.720
133,-1.300,-0.705
134,-1.300,-0.720
135,-1.300,-0.745
136,-1.315,-0.760
137,-1.335,-0.765
138,-1.350,-0.765
139,-1.355,-0.760
140,-1.350,-0.730
141,-1.340,-0.715
142,-1.345,-0.705
143,-1.370,-0.720
144,-1.385,-0.750
145,-1.370,-0.760
146,-1.365,-0.760
147,-1.365,-0.735
148,-1.345,-0.700
149,-1.315,-0.670
150,-1.305,-0.665
151,-1.270,-0.660
152,-1.270,-0.665
153,-1.310,-0.690
154,-1.325,-0.695
155,-1.320,-0.720
156,-1.285,-0.710
157,-1.255,-0.705
158,-1.240,-0.690
159,-1.215,-0.695
160,-1.195,-0.680
161,-1.195,-0.695
162,-1.205,-0.725
163,-1.200,-0.765
164,-1.205,-0.760
165,-1.215,-0.720
166,-1.215,-0.690
167,-1.235,-0.690
168,-1.255,-0.720
169,-1.285,-0.740
170,-1.305,-0.765
171,-1.355,-0.765
172,-1.380,-0.755
173,-1.400,-0.750
174,-1.400,-0.745
175,-1.400,-0.755
176,-1.385,-0.760
177,-1.380,-0.770
178,-1.380,-0.780
179,-1.405,-0.775
180,-1.425,-0.760
181,-1.425,-0.740
182,-1.420,-0.715
183,-1.395,-0.695
184,-1.390,-0.705
185,-1.395,-0.750
186,-1.380,-0.815
187,-1.330,-0.870
188,-1.230,-0.930
189,-1.020,-0.975
190,-0.725,-1.020
191,-0.370,-1.080
192,0.010,-1.160
193,0.370,-1.270
194,0.775,-1.350
195,1.195,-1.320
196,1.430,-1.175
197,1.285,-1.010
198,0.590,-0.920
199,-0.330,-0.885
200,-0.615,-0.890
201,-1.970,-0.865
202,-1.925,-0.830
203,-1.560,-0.775
204,-1.275,-0.730
205,-1.185,-0.720
206,-1.225,-0.720
207,-1.285,-0.740
208,-1.335,-0.715
209,-1.355,-0.715
210,-1.360,-0.710
211,-1.365,-0.700
212,-1.370,-0.720
213,-1.395,-0.710
214,-1.380,-0.695
215,-1.375,-0.690
216,-1.335,-0.675
217,-1.300,-0.685
218,-1.290,-0.690
219,-1.295,-0.700
220,-1.295,-0.715
221,-1.290,-0.715
222,-1.285,-0.690
223,-1.260,-0.660
224,-1.230,-0.650
225,-1.225,-0.630
226,-1.215,-0.655
227,-1.225,-0.685
228,-1.210,-0.695
229,-1.195,-0.705
230,-1.175,-0.695
231,-1.145,-0.675
232,-1.100,-0.665
233,-1.070,-0.660
234,-1.050,-0.675
235,-1.035,-0.675
236,-1.040,-0.680
237,-1.025,-0.665
238,-1.020,-0.660
239,-0.975,-0.640
240,-0.935,-0.620
241,-0.875,-0.595
242,-0.845,-0.605
243,-0.815,-0.605
244,-0.765,-0.615
245,-0.735,-0.625
246,-0.745,-0.620
247,-0.700,-0.600
248,-0.685,-0.575
249,-0.650,-0.570
250,-0.635,-0.575
251,-0.600,-0.605
252,-0.600,-0.620
253,-0.600,-0.620
254,-0.615,-0.600
255,-0.620,-0.585
256,-0.640,-0.590
257,-0.650,-0.625
258,-0.680,-0.615
259,-0.745,-0.620
260,-0.790,-0.640
261,-0.875,-0.670
262,-0.935,-0.690
263,-0.985,-0.680
264,-1.015,-0.675
265,-1.060,-0.675
266,-1.070,-0.690
267,-1.095,-0.690
268,-1.125,-0.700
269,-1.160,-0.715
270,-1.200,-0.720
271,-1.235,-0.750
272,-1.235,-0.740
273,-1.225,-0.765
274,-1.220,-0.740
275,-1.215,-0.735
276,-1.215,-0.745
277,-1.230,-0.745
278,-1.245,-0.745
279,-1.250,-0.735
280,-1.255,-0.725
281,-1.245,-0.715
282,-1.230,-0.720
283,-1.210,-0.720
284,-1.200,-0.740
285,-1.205,-0.765
286,-1.215,-0.760
287,-1.190,-0.745
288,-1.195,-0.725
289,-1.185,-0.720
290,-1.160,-0.680
291,-1.150,-0.690
292,-1.140,-0.705
293,-1.145,-0.720
294,-1.155,-0.745
295,-1.160,-0.775
296,-1.150,-0.770
297,-1.150,-0.765
298,-1.160,-0.755
299,-1.160,-0.730
300,-1.155,-0.715
301,-1.135,-0.730
302,-1.130,-0.725
303,-1.135,-0.725
304,-1.155,-0.730
305,-1.160,-0.720
306,-1.150,-0.710
307,-1.145,-0.695
308,-1.135,-0.680
309,-1.170,-0.680
310,-1.175,-0.710
311,-1.190,-0.755
312,-1.190,-0.780
313,-1.200,-0.780
314,-1.205,-0.760
315,-1.180,-0.750
316,-1.160,-0.745
317,-1.170,-0.745
318,-1.180,-0.730
319,-1.175,-0.730
320,-1.190,-0.775
321,-1.200,-0.800
322,-1.200,-0.820
323,-1.210,-0.785
324,-1.195,-0.745
325,-1.175,-0.735
326,-1.160,-0.705
327,-1.160,-0.725
328,-1.190,-0.750
329,-1.225,-0.780
330,-1.240,-0.785
331,-1.215,-0.765
332,-1.200,-0.750
333,-1.195,-0.735
334,-1.200,-0.735
335,-1.210,-0.750
336,-1.210,-0.765
337,-1.215,-0.755
338,-1.210,-0.715
339,-1.195,-0.670
340,-1.150,-0.675
341,-1.125,-0.710
342,-1.120,-0.710
343,-1.110,-0.720
344,-1.090,-0.695
345,-1.100,-0.690
346,-1.105,-0.695
347,-1.110,-0.695
348,-1.095,-0.715
349,-1.085,-0.710
350,-1.075,-0.705
351,-1.035,-0.730
352,-1.000,-0.750
353,-0.985,-0.765
354,-0.970,-0.775
355,-0.990,-0.760
356,-1.010,-0.730
357,-0.995,-0.715
358,-0.990,-0.705
359,-0.985,-0.725
360,-1.015,-0.735
361,-1.060,-0.745
362,-1.080,-0.750
363,-1.135,-0.745
364,-1.155,-0.735
365,-1.185,-0.730
366,-1.185,-0.735
367,-1.200,-0.760
368,-1.210,-0.750
369,-1.215,-0.755
370,-1.205,-0.755
371,-1.205,-0.750
372,-1.205,-0.740
373,-1.200,-0.715
374,-1.195,-0.715
375,-1.185,-0.705
376,-1.175,-0.740
377,-1.200,-0.745
378,-1.230,-0.775
379,-1.210,-0.815
380,-1.180,-0.835
381,-1.065,-0.920
382,-0.855,-1.020
383,-0.505,-1.135
384,-0.035,-1.250
385,0.505,-1.370
386,1.065,-1.495
387,1.615,-1.545
388,2.060,-1.525
389,2.320,-1.400
390,2.345,-1.220
391,2.050,-1.030
392,1.260,-0.935
393,0.340,-0.915
394,-0.585,-0.900
395,-1.505,-0.865
396,-1.610,-0.795
397,-1.200,-0.740
398,-0.875,-0.720
399,-0.820,-0.700
400,-0.840,-0.710
401,-1.055,-0.745
402,-1.150,-0.760
403,-1.160,-0.750
404,-1.150,-0.725
405,-1.150,-0.700
406,-1.135,-0.670
407,-1.145,-0.660
408,-1.130,-0.670
409,-1.130,-0.675
410,-1.115,-0.690
411,-1.105,-0.705
412,-1.105,-0.695
413,-1.120,-0.705
414,-1.100,-0.705
415,-1.075,-0.685
416,-1.060,-0.665
417,-1.040,-0.655
418,-1.040,-0.645
419,-1.040,-0.670
420,-1.035,-0.685
421,-1.040,-0.700
422,-1.025,-0.685
423,-1.005,-0.670
424,-0.990,-0.640
425,-0.975,-0.635
426,-0.945,-0.650
427,-0.925,-0.675
428,-0.910,-0.675
429,-0.880,-0.660
430,-0.860,-0.645
431,-0.850,-0.615
432,-0.825,-0.615
433,-0.780,-0.610
434,-0.725,-0.610
435,-0.685,-0.615
436,-0.660,-0.625
437,-0.660,-0.630
438,-0.635,-0.640
439,-0.600,-0.620
440,-0.535,-0.595
441,-0.475,-0.560
442,-0.400,-0.560
443,-0.360,-0.560
444,-0.335,-0.570
445,-0.330,-0.580
446,-0.295,-0.570
447,-0.260,-0.545
448,-0.230,-0.530
449,-0.210,-0.535
450,-0.205,-0.550
451,-0.200,-0.575
452,-0.220,-0.585
453,-0.230,-0.585
454,-0.270,-0.590
455,-0.310,-0.615
456,-0.365,-0.620
457,-0.435,-0.630
458,-0.510,-0.635
459,-0.610,-0.635
460,-0.705,-0.670
461,-0.800,-0.710
462,-0.895,-0.745
463,-0.960,-0.750
464,-0.990,-0.730
465,-1.010,-0.695
466,-1.020,-0.675
467,-1.025,-0.685
468,-1.045,-0.705
469,-1.070,-0.740
470,-1.100,-0.740
471,-1.125,-0.730
472,-1.135,-0.720
473,-1.140,-0.710
474,-1.135,-0.680
475,-1.130,-0.665
476,-1.110,-0.705
477,-1.115,-0.740
478,-1.145,-0.765
479,-1.135,-0.755
480,-1.145,-0.720
481,-1.130,-0.700
482,-1.115,-0.675
483,-1.105,-0.670
484,-1.100,-0.695
485,-1.110,-0.700
486,-1.110,-0.715
487,-1.105,-0.740
488,-1.100,-0.725
489,-1.110,-0.730
490,-1.090,-0.710
491,-1.080,-0.690
492,-1.065,-0.690
493,-1.075,-0.690
494,-1.080,-0.690
495,-1.090,-0.700
496,-1.110,-0.695
497,-1.110,-0.705
498,-1.115,-0.700
499,-1.115,-0.685
500,-1.105,-0.675
501,-1.090,-0.700
502,-1.110,-0.715
503,-1.120,-0.710
504,-1.150,-0.725
505,-1.160,-0.700
506,-1.155,-0.700
507,-1.145,-0.705
508,-1.130,-0.710
509,-1.130,-0.715
510,-1.140,-0.705
511,-1.155,-0.720
512,-1.180,-0.730
513,-1.180,-0.720
514,-1.185,-0.715
515,-1.185,-0.700
516,-1.180,-0.685
517,-1.180,-0.680
518,-1.190,-0.680
519,-1.190,-0.690
520,-1.190,-0.720
521,-1.195,-0.730
522,-1.200,-0.725
523,-1.200,-0.725
524,-1.190,-0.705
525,-1.190,-0.695
526,-1.200,-0.695
527,-1.205,-0.690
528,-1.210,-0.720
529,-1.225,-0.720
530,-1.235,-0.720
531,-1.220,-0.690
532,-1.195,-0.660
533,-1.155,-0.635
534,-1.130,-0.610
535,-1.105,-0.605
536,-1.110,-0.610
537,-1.120,-0.645
538,-1.125,-0.655
539,-1.110,-0.665
540,-1.105,-0.665
541,-1.080,-0.630
542,-1.055,-0.645
543,-1.035,-0.660
544,-1.005,-0.695
545,-1.005,-0.710
546,-1.015,-0.710
547,-1.005,-0.690
548,-1.005,-0.690
549,-1.005,-0.655
550,-1.010,-0.655
551,-1.045,-0.685
552,-1.080,-0.705
553,-1.095,-0.700
554,-1.110,-0.690
555,-1.130,-0.680
556,-1.170,-0.680
557,-1.195,-0.675
558,-1.225,-0.685
559,-1.230,-0.685
560,-1.255,-0.715
561,-1.270,-0.730
562,-1.275,-0.730
563,-1.280,-0.705
564,-1.290,-0.680
565,-1.265,-0.665
566,-1.240,-0.650
567,-1.225,-0.660
568,-1.215,-0.675
569,-1.215,-0.675
570,-1.235,-0.680
571,-1.225,-0.730
572,-1.180,-0.795
573,-1.055,-0.885
574,-0.815,-1.025
575,-0.720,-1.060
576,0.100,-1.255
577,0.690,-1.375
578,1.310,-1.470
579,1.885,-1.515
580,2.295,-1.440
581,2.470,-1.275
582,2.425,-1.060
583,2.000,-0.880
584,1.180,-0.790
585,0.255,-0.795
586,-0.665,-0.800
587,-1.505,-0.755
588,-1.575,-0.715
589,-1.160,-0.655
590,-0.870,-0.620
591,-0.820,-0.605
592,-0.950,-0.625
593,-1.100,-0.635
594,-1.170,-0.615
595,-1.185,-0.615
596,-1.165,-0.595
597,-1.140,-0.595
598,-1.115,-0.590
599,-1.145,-0.580
600,-1.150,-0.565
601,-1.175,-0.580
602,-1.175,-0.605
603,-1.165,-0.620
604,-1.130,-0.625
605,-1.100,-0.610
606,-1.105,-0.580
607,-1.100,-0.550
608,-1.070,-0.540
609,-1.050,-0.535
610,-1.045,-0.580
611,-1.055,-0.615
612,-1.050,-0.620
613,-1.050,-0.580
614,-1.030,-0.550
615,-1.010,-0.540
616,-0.970,-0.540
617,-0.945,-0.560
618,-0.925,-0.590
619,-0.930,-0.595
620,-0.925,-0.595
621,-0.910,-0.590
622,-0.875,-0.565
623,-0.840,-0.560
624,-0.810,-0.535
625,-0.795,-0.530
626,-0.730,-0.500
627,-0.685,-0.500
628,-0.675,-0.525
629,-0.645,-0.535
630,-0.610,-0.540
631,-0.555,-0.520
632,-0.500,-0.500
633,-0.425,-0.495
634,-0.370,-0.485
635,-0.320,-0.470
636,-0.310,-0.475
637,-0.280,-0.485
638,-0.270,-0.485
639,-0.255,-0.455
640,-0.240,-0.450
641,-0.230,-0.450
642,-0.230,-0.460
643,-0.235,-0.485
644,-0.250,-0.495
645,-0.300,-0.500
646,-0.360,-0.525
647,-0.425,-0.555
648,-0.490,-0.585
649,-0.575,-0.555
650,-0.600,-0.545
651,-0.730,-0.585
652,-0.800,-0.615
653,-0.895,-0.630
654,-0.980,-0.630
655,-1.035,-0.625
656,-1.060,-0.595
657,-1.075,-0.575
658,-1.080,-0.565
659,-1.090,-0.585
660,-1.110,-0.600
661,-1.125,-0.615
662,-1.150,-0.640
663,-1.160,-0.645
664,-1.165,-0.640
665,-1.175,-0.595
666,-1.175,-0.590
667,-1.160,-0.585
668,-1.155,-0.625
669,-1.175,-0.640
670,-1.175,-0.660
671,-1.180,-0.635
672,-1.165,-0.595
673,-1.135,-0.585
674,-1.120,-0.585
675,-1.110,-0.595
676,-1.120,-0.625
677,-1.135,-0.620
678,-1.150,-0.605
679,-1.145,-0.600
680,-1.150,-0.600
681,-1.155,-0.595
682,-1.140,-0.600
683,-1.140,-0.600
684,-1.145,-0.590
685,-1.135,-0.580
686,-1.130,-0.585
687,-1.150,-0.585
688,-1.160,-0.595
689,-1.155,-0.595
690,-1.155,-0.580
691,-1.150,-0.570
692,-1.145,-0.565
693,-1.165,-0.580
694,-1.195,-0.590
695,-1.220,-0.600
696,-1.230,-0.600
697,-1.220,-0.590
698,-1.220,-0.575
699,-1.200,-0.565
700,-1.200,-0.570
701,-1.195,-0.595
702,-1.220,-0.600
703,-1.230,-0.615
704,-1.245,-0.600
705,-1.260,-0.580
706,-1.265,-0.560
707,-1.245,-0.530
708,-1.230,-0.560
709,-1.240,-0.595
710,-1.265,-0.620
711,-1.275,-0.615
712,-1.305,-0.590
713,-1.310,-0.575
714,-1.285,-0.570
715,-1.280,-0.565
716,-1.260,-0.545
717,-1.265,-0.550
718,-1.265,-0.550
719,-1.280,-0.565
720,-1.295,-0.570
721,-1.295,-0.570
722,-1.285,-0.535
723,-1.255,-0.510
724,-1.230,-0.475
725,-1.220,-0.465
726,-1.195,-0.500
727,-1.210,-0.515
728,-1.215,-0.540
729,-1.215,-0.540
730,-1.205,-0.535
731,-1.170,-0.520
732,-1.140,-0.495
733,-1.115,-0.540
734,-1.100,-0.565
735,-1.090,-0.575
736,-1.130,-0.580
737,-1.150,-0.545
738,-1.200,-0.535
739,-1.215,-0.535
740,-1.220,-0.525
741,-1.215,-0.540
742,-1.245,-0.530
743,-1.280,-0.545
744,-1.325,-0.550
745,-1.345,-0.535
746,-1.365,-0.540
747,-1.385,-0.540
748,-1.405,-0.535
749,-1.390,-0.535
750,-1.375,-0.525
751,-1.365,-0.510
752,-1.365,-0.510
753,-1.380,-0.540
754,-1.400,-0.545
755,-1.405,-0.545
756,-1.395,-0.520
757,-1.370,-0.520
758,-1.325,-0.550
759,-1.225,-0.660
760,-1.090,-0.815
761,-0.825,-0.950
762,-0.365,-1.090
763,0.250,-1.200
764,0.995,-1.280
765,1.710,-1.235
766,2.225,-1.050
767,2.235,-0.860
768,1.625,-0.715
769,0.710,-0.655
770,-0.210,-0.655
771,-1.130,-0.645
772,-1.860,-0.585
773,-1.585,-0.540
774,-1.155,-0.490
775,-1.050,-0.480
776,-1.065,-0.485
777,-1.235,-0.515
778,-1.365,-0.540
779,-1.400,-0.515
780,-1.375,-0.470
781,-1.345,-0.445
782,-1.310,-0.425
783,-1.305,-0.440
784,-1.330,-0.465
785,-1.335,-0.490
786,-1.345,-0.500
787,-1.350,-0.495
788,-1.335,-0.485
789,-1.340,-0.465
790,-1.310,-0.450
791,-1.255,-0.390
792,-1.255,-0.410
793,-1.250,-0.425
794,-1.245,-0.445
795,-1.250,-0.470
796,-1.240,-0.460
797,-1.225,-0.455
798,-1.185,-0.420
799,-1.170,-0.400
800,-1.150,-0.410
801,-1.125,-0.435
802,-1.110,-0.450
803,-1.105,-0.450
804,-1.085,-0.450
805,-1.065,-0.435
806,-1.035,-0.410
807,-1.010,-0.420
808,-0.975,-0.395
809,-0.955,-0.400
810,-0.935,-0.400
811,-0.880,-0.405
812,-0.835,-0.390
813,-0.815,-0.380
814,-0.775,-0.375
815,-0.725,-0.365
816,-0.655,-0.345
817,-0.610,-0.355
818,-0.600,-0.375
819,-0.590,-0.395
820,-0.560,-0.380
821,-0.545,-0.380
822,-0.520,-0.375
823,-0.475,-0.360
824,-0.440,-0.345
825,-0.430,-0.335
826,-0.435,-0.350
827,-0.465,-0.360
828,-0.500,-0.385
829,-0.555,-0.410
830,-0.620,-0.415
831,-0.700,-0.375
832,-0.740,-0.365
833,-0.810,-0.380
834,-0.910,-0.410
835,-0.975,-0.445
836,-1.025,-0.465
837,-1.115,-0.460
838,-1.180,-0.445
839,-1.225,-0.435
840,-1.250,-0.435
841,-1.275,-0.445
842,-1.300,-0.460
843,-1.330,-0.475
844,-1.360,-0.465
845,-1.380,-0.475
846,-1.395,-0.470
847,-1.390,-0.460
848,-1.380,-0.450
849,-1.380,-0.455
850,-1.365,-0.445
851,-1.365,-0.465
852,-1.390,-0.480
853,-1.390,-0.470
854,-1.410,-0.455
855,-1.415,-0.460
856,-1.385,-0.450
857,-1.365,-0.455
858,-1.350,-0.465
859,-1.345,-0.495
860,-1.350,-0.490
861,-1.350,-0.500
862,-1.350,-0.490
863,-1.360,-0.475
864,-1.370,-0.450
865,-1.355,-0.445
866,-1.340,-0.445
867,-1.330,-0.460
868,-1.330,-0.460
869,-1.350,-0.470
870,-1.360,-0.475
871,-1.365,-0.475
872,-1.370,-0.470
873,-1.350,-0.470
874,-1.350,-0.460
875,-1.350,-0.450
876,-1.395,-0.455
877,-1.415,-0.475
878,-1.420,-0.485
879,-1.420,-0.480
880,-1.430,-0.475
881,-1.435,-0.465
882,-1.405,-0.460
883,-1.385,-0.455
884,-1.385,-0.465
885,-1.405,-0.470
886,-1.415,-0.480
887,-1.425,-0.455
888,-1.445,-0.460
889,-1.445,-0.450
890,-1.430,-0.445
891,-1.420,-0.445
892,-1.420,-0.445
893,-1.410,-0.455
894,-1.420,-0.475
895,-1.420,-0.480
896,-1.435,-0.490
897,-1.440,-0.485
898,-1.440,-0.480
899,-1.440,-0.450
900,-1.435,-0.445
901,-1.430,-0.445
902,-1.435,-0.445
903,-1.420,-0.435
904,-1.400,-0.410
905,-1.385,-0.385
906,-1.345,-0.370
907,-1.325,-0.365
908,-1.305,-0.390
909,-1.310,-0.410
910,-1.315,-0.425
911,-1.330,-0.440
912,-1.325,-0.460
913,-1.330,-0.455
914,-1.335,-0.445
915,-1.290,-0.430
916,-1.245,-0.425
917,-1.215,-0.420
918,-1.200,-0.430
919,-1.215,-0.465
920,-1.240,-0.485
921,-1.280,-0.480
922,-1.300,-0.470
923,-1.295,-0.450
924,-1.290,-0.445
925,-1.280,-0.435
926,-1.320,-0.460
927,-1.365,-0.475
928,-1.405,-0.480
929,-1.410,-0.470
930,-1.435,-0.465
931,-1.430,-0.470
932,-1.435,-0.465
933,-1.425,-0.430
934,-1.430,-0.435
935,-1.425,-0.480
936,-1.420,-0.495
937,-1.425,-0.480
938,-1.430,-0.440
939,-1.410,-0.420
940,-1.395,-0.430
941,-1.365,-0.450
942,-1.315,-0.535
943,-1.235,-0.635
944,-1.070,-0.745
945,-0.745,-0.855
946,-0.295,-0.965
947,0.320,-1.065
948,0.985,-1.130
949,1.645,-1.105
950,1.845,-1.080
951,2.105,-0.760
952,1.540,-0.605
953,0.635,-0.560
954,-0.290,-0.575
955,-1.210,-0.545
956,-1.960,-0.500
957,-1.745,-0.465
958,-1.285,-0.460
959,-1.055,-0.460
960,-1.065,-0.450
961,-1.175,-0.445
962,-1.285,-0.450
963,-1.350,-0.445
964,-1.370,-0.435
965,-1.330,-0.430
966,-1.305,-0.400
967,-1.295,-0.405
968,-1.295,-0.395
969,-1.305,-0.420
970,-1.295,-0.420
971,-1.285,-0.415
972,-1.280,-0.420
973,-1.260,-0.405
974,-1.240,-0.385
975,-1.225,-0.390
976,-1.215,-0.375
977,-1.215,-0.385
978,-1.225,-0.395
979,-1.215,-0.405
980,-1.190,-0.400
981,-1.155,-0.375
982,-1.105,-0.360
983,-1.070,-0.375
984,-1.055,-0.405
985,-1.050,-0.425
986,-1.060,-0.415
987,-1.060,-0.385
988,-1.060,-0.370
989,-1.040,-0.355
990,-0.980,-0.340
991,-0.940,-0.345
992,-0.895,-0.380
993,-0.850,-0.375
994,-0.825,-0.385
995,-0.800,-0.360
996,-0.790,-0.345
997,-0.755,-0.320
998,-0.695,-0.310
999,-0.630,-0.300
1000,-0.610,-0.295
1001,-0.535,-0.305
1002,-0.510,-0.315
1003,-0.490,-0.315
1004,-0.465,-0.295
1005,-0.440,-0.270
1006,-0.405,-0.260
1007,-0.390,-0.275
1008,-0.375,-0.280
1009,-0.385,-0.295
1010,-0.410,-0.315
1011,-0.435,-0.320
1012,-0.475,-0.310
1013,-0.525,-0.315
1014,-0.565,-0.300
1015,-0.625,-0.315
1016,-0.675,-0.305
1017,-0.730,-0.330
1018,-0.800,-0.375
1019,-0.885,-0.410
1020,-0.965,-0.410
1021,-1.045,-0.400
1022,-1.110,-0.395
1023,-1.155,-0.400
1024,-1.175,-0.380
1025,-1.170,-0.385
1026,-1.220,-0.390
1027,-1.250,-0.415
1028,-1.270,-0.450
1029,-1.290,-0.445
1030,-1.325,-0.420
1031,-1.315,-0.400
1032,-1.315,-0.390
1033,-1.280,-0.400
1034,-1.280,-0.410
1035,-1.270,-0.450
1036,-1.285,-0.445
1037,-1.285,-0.440
1038,-1.305,-0.420
1039,-1.290,-0.390
1040,-1.255,-0.405
1041,-1.235,-0.405
1042,-1.225,-0.405
1043,-1.230,-0.390
1044,-1.225,-0.410
1045,-1.230,-0.430
1046,-1.235,-0.450
1047,-1.250,-0.435
1048,-1.240,-0.420
1049,-1.240,-0.410
1050,-1.230,-0.405
1051,-1.220,-0.410
1052,-1.230,-0.400
1053,-1.240,-0.395
1054,-1.250,-0.415
1055,-1.270,-0.440
1056,-1.255,-0.445
1057,-1.250,-0.450
1058,-1.250,-0.440
1059,-1.265,-0.400
1060,-1.265,-0.400
1061,-1.285,-0.395
1062,-1.315,-0.420
1063,-1.325,-0.455
1064,-1.320,-0.445
1065,-1.320,-0.445
1066,-1.305,-0.405
1067,-1.290,-0.405
1068,-1.300,-0.405
1069,-1.300,-0.440
1070,-1.325,-0.455
1071,-1.340,-0.445
1072,-1.355,-0.420
1073,-1.345,-0.395
1074,-1.330,-0.395
1075,-1.325,-0.385
1076,-1.320,-0.405
1077,-1.325,-0.425
1078,-1.340,-0.470
1079,-1.350,-0.485
1080,-1.350,-0.470
1081,-1.335,-0.430
1082,-1.325,-0.400
1083,-1.330,-0.390
1084,-1.325,-0.400
1085,-1.330,-0.430
1086,-1.340,-0.470
1087,-1.360,-0.480
1088,-1.370,-0.455
1089,-1.370,-0.420
1090,-1.360,-0.385
1091,-1.320,-0.355
1092,-1.305,-0.375
1093,-1.290,-0.390
1094,-1.275,-0.400
1095,-1.265,-0.390
1096,-1.285,-0.390
1097,-1.280,-0.375
1098,-1.280,-0.360
1099,-1.250,-0.385
1100,-1.235,-0.400
1101,-1.215,-0.465
1102,-1.205,-0.460
1103,-1.205,-0.435
1104,-1.190,-0.430
1105,-1.150,-0.410
1106,-1.125,-0.425
1107,-1.125,-0.425
1108,-1.140,-0.425
1109,-1.180,-0.435
1110,-1.220,-0.450
1111,-1.255,-0.465
1112,-1.270,-0.455
1113,-1.285,-0.450
1114,-1.310,-0.440
1115,-1.345,-0.455
1116,-1.365,-0.430
1117,-1.380,-0.455
1118,-1.395,-0.470
1119,-1.415,-0.480
1120,-1.400,-0.475
1121,-1.390,-0.475
1122,-1.400,-0.485
1123,-1.410,-0.470
1124,-1.385,-0.450
1125,-1.370,-0.440
1126,-1.375,-0.395
1127,-1.390,-0.410
1128,-1.380,-0.465
1129,-1.340,-0.555
1130,-1.240,-0.620
1131,-1.025,-0.705
1132,-0.710,-0.795
1133,-0.260,-0.925
1134,0.280,-1.085
1135,0.890,-1.210
1136,1.550,-1.265
1137,2.060,-1.175
1138,2.290,-0.960
1139,2.075,-0.720
1140,1.290,-0.600
1141,0.365,-0.555
1142,-0.555,-0.555
1143,-1.475,-0.525
1144,-1.780,-0.505
1145,-1.355,-0.475
1146,-1.055,-0.455
1147,-0.995,-0.420
1148,-1.100,-0.395
1149,-1.240,-0.365
1150,-1.280,-0.365
1151,-1.335,-0.380
1152,-1.325,-0.390
1153,-1.300,-0.365
1154,-1.310,-0.370
1155,-1.320,-0.360
1156,-1.310,-0.355
1157,-1.300,-0.345
1158,-1.280,-0.355
1159,-1.265,-0.365
1160,-1.250,-0.400
1161,-1.260,-0.405
1162,-1.270,-0.405
1163,-1.265,-0.390
1164,-1.260,-0.380
1165,-1.225,-0.360
1166,-1.200,-0.355
1167,-1.170,-0.350
1168,-1.165,-0.360
1169,-1.175,-0.350
1170,-1.170,-0.345
1171,-1.170,-0.345
1172,-1.150,-0.320
1173,-1.120,-0.335
1174,-1.080,-0.330
1175,-1.080,-0.340
1176,-1.025,-0.380
1177,-1.015,-0.365
1178,-1.010,-0.365
1179,-1.000,-0.350
1180,-0.970,-0.325
1181,-0.945,-0.300
1182,-0.895,-0.285
1183,-0.840,-0.285
1184,-0.795,-0.280
1185,-0.750,-0.300
1186,-0.710,-0.310
1187,-0.665,-0.325
1188,-0.630,-0.335
1189,-0.590,-0.300
1190,-0.550,-0.260
1191,-0.510,-0.245
1192,-0.480,-0.255
1193,-0.430,-0.245
1194,-0.420,-0.270
1195,-0.400,-0.280
1196,-0.395,-0.275
1197,-0.370,-0.265
1198,-0.360,-0.260
1199,-0.340,-0.255
1200,-0.335,-0.260
1201,-0.415,-0.285
1202,-0.475,-0.315
1203,-0.525,-0.320
1204,-0.580,-0.330
1205,-0.660,-0.330
1206,-0.715,-0.330
1207,-0.780,-0.335
1208,-0.825,-0.310
1209,-0.900,-0.345
1210,-0.985,-0.380
1211,-1.075,-0.405
1212,-1.130,-0.420
1213,-1.185,-0.385
1214,-1.215,-0.355
1215,-1.225,-0.350
1216,-1.230,-0.370
1217,-1.240,-0.400
1218,-1.255,-0.420
1219,-1.260,-0.405
1220,-1.270,-0.380
1221,-1.285,-0.385
1222,-1.290,-0.370
1223,-1.300,-0.370
1224,-1.290,-0.370
1225,-1.290,-0.360
1226,-1.265,-0.365
1227,-1.275,-0.375
1228,-1.280,-0.405
1229,-1.275,-0.420
1230,-1.270,-0.400
1231,-1.255,-0.370
1232,-1.245,-0.325
1233,-1.225,-0.325
1234,-1.220,-0.345
1235,-1.225,-0.375
1236,-1.250,-0.415
1237,-1.270,-0.405
1238,-1.275,-0.405
1239,-1.265,-0.390
1240,-1.245,-0.365
1241,-1.225,-0.360
1242,-1.225,-0.365
1243,-1.250,-0.365
1244,-1.260,-0.385
1245,-1.265,-0.410
1246,-1.275,-0.415
1247,-1.280,-0.410
1248,-1.285,-0.390
1249,-1.275,-0.365
1250,-1.270,-0.360
1251,-1.260,-0.370
1252,-1.280,-0.370
1253,-1.305,-0.385
1254,-1.335,-0.380
1255,-1.350,-0.385
1256,-1.340,-0.385
1257,-1.310,-0.390
1258,-1.315,-0.415
1259,-1.325,-0.395
1260,-1.335,-0.390
1261,-1.340,-0.375
1262,-1.340,-0.375
1263,-1.365,-0.385
1264,-1.380,-0.390
1265,-1.375,-0.380
1266,-1.380,-0.370
1267,-1.335,-0.365
1268,-1.340,-0.355
1269,-1.350,-0.400
1270,-1.360,-0.410
1271,-1.380,-0.415
1272,-1.380,-0.395
1273,-1.365,-0.385
1274,-1.340,-0.375
1275,-1.335,-0.360
1276,-1.355,-0.365
1277,-1.355,-0.360
1278,-1.355,-0.365
1279,-1.335,-0.355
1280,-1.325,-0.345
1281,-1.305,-0.325
1282,-1.280,-0.315
1283,-1.260,-0.315
1284,-1.255,-0.350
1285,-1.260,-0.375
1286,-1.255,-0.385
1287,-1.250,-0.370
1288,-1.220,-0.350
1289,-1.195,-0.345
1290,-1.165,-0.335
1291,-1.135,-0.345
1292,-1.130,-0.375
1293,-1.165,-0.385
1294,-1.215,-0.395
1295,-1.255,-0.385
1296,-1.280,-0.400
1297,-1.275,-0.390
1298,-1.285,-0.390
1299,-1.275,-0.365
1300,-1.285,-0.365
1301,-1.345,-0.375
1302,-1.405,-0.400
1303,-1.415,-0.405
1304,-1.445,-0.390
1305,-1.435,-0.385
1306,-1.400,-0.385
1307,-1.375,-0.385
1308,-1.360,-0.370
1309,-1.360,-0.360
1310,-1.380,-0.365
1311,-1.405,-0.380
1312,-1.415,-0.375
1313,-1.420,-0.365
1314,-1.400,-0.355
1315,-1.370,-0.380
1316,-1.320,-0.400
1317,-1.225,-0.500
1318,-1.080,-0.585
1319,-0.865,-0.715
1320,-0.550,-0.820
1321,-0.150,-0.905
1322,0.325,-0.990
1323,0.890,-1.070
1324,1.500,-1.045
1325,1.680,-1.015
1326,2.100,-0.730
1327,1.670,-0.555
1328,0.775,-0.505
1329,-0.150,-0.540
1330,-1.070,-0.560
1331,-1.885,-0.500
1332,-1.790,-0.430
1333,-1.345,-0.360
1334,-1.065,-0.340
1335,-1.045,-0.340
1336,-1.170,-0.350
1337,-1.310,-0.380
1338,-1.380,-0.390
1339,-1.385,-0.380
1340,-1.360,-0.360
1341,-1.335,-0.330
1342,-1.335,-0.320
1343,-1.355,-0.325
1344,-1.350,-0.355
1345,-1.345,-0.350
1346,-1.340,-0.355
1347,-1.325,-0.340
1348,-1.300,-0.335
1349,-1.280,-0.330
1350,-1.270,-0.320
1351,-1.270,-0.315
1352,-1.275,-0.330
1353,-1.280,-0.335
1354,-1.285,-0.345
1355,-1.270,-0.345
1356,-1.255,-0.335
1357,-1.215,-0.310
1358,-1.190,-0.270
1359,-1.165,-0.295
1360,-1.155,-0.340
1361,-1.155,-0.370
1362,-1.135,-0.360
1363,-1.135,-0.310
1364,-1.105,-0.270
1365,-1.080,-0.270
1366,-1.040,-0.280
1367,-1.000,-0.300
1368,-0.975,-0.320
1369,-0.970,-0.305
1370,-0.965,-0.305
1371,-0.950,-0.305
1372,-0.895,-0.290
1373,-0.830,-0.290
1374,-0.780,-0.240
1375,-0.760,-0.225
1376,-0.700,-0.190
1377,-0.675,-0.205
1378,-0.640,-0.230
1379,-0.605,-0.265
1380,-0.575,-0.270
1381,-0.575,-0.275
1382,-0.545,-0.220
1383,-0.520,-0.200
1384,-0.495,-0.185
1385,-0.495,-0.200
1386,-0.510,-0.220
1387,-0.540,-0.230
1388,-0.555,-0.235
1389,-0.575,-0.245
1390,-0.615,-0.265
1391,-0.650,-0.270
1392,-0.720,-0.270
1393,-0.795,-0.265
1394,-0.865,-0.275
1395,-0.935,-0.295
1396,-1.015,-0.290
1397,-1.075,-0.275
1398,-1.120,-0.280
1399,-1.165,-0.310
1400,-1.170,-0.320
1401,-1.225,-0.350
1402,-1.265,-0.370
1403,-1.295,-0.385
1404,-1.315,-0.365
1405,-1.330,-0.350
1406,-1.330,-0.345
1407,-1.335,-0.335
1408,-1.330,-0.320
1409,-1.330,-0.335
1410,-1.335,-0.335
1411,-1.345,-0.350
1412,-1.345,-0.360
1413,-1.345,-0.370
1414,-1.340,-0.360
1415,-1.325,-0.330
1416,-1.315,-0.315
1417,-1.310,-0.335
1418,-1.310,-0.375
1419,-1.320,-0.375
1420,-1.330,-0.370
1421,-1.350,-0.375
1422,-1.360,-0.345
1423,-1.335,-0.320
1424,-1.300,-0.330
1425,-1.295,-0.340
1426,-1.265,-0.345
1427,-1.275,-0.355
1428,-1.300,-0.360
1429,-1.315,-0.360
1430,-1.320,-0.360
1431,-1.310,-0.340
1432,-1.295,-0.330
1433,-1.295,-0.330
1434,-1.300,-0.360
1435,-1.305,-0.370
1436,-1.315,-0.385
1437,-1.310,-0.380
1438,-1.315,-0.375
1439,-1.335,-0.360
1440,-1.355,-0.345
1441,-1.370,-0.335
1442,-1.375,-0.345
1443,-1.385,-0.370
1444,-1.395,-0.370
1445,-1.395,-0.385
1446,-1.400,-0.385
1447,-1.415,-0.390
1448,-1.400,-0.355
1449,-1.405,-0.330
1450,-1.400,-0.320
1451,-1.390,-0.370
1452,-1.400,-0.385
1453,-1.410,-0.395
1454,-1.420,-0.390
1455,-1.420,-0.395
1456,-1.410,-0.370
1457,-1.405,-0.360
1458,-1.385,-0.340
1459,-1.380,-0.355
1460,-1.385,-0.380
1461,-1.410,-0.400
1462,-1.415,-0.395
1463,-1.425,-0.375
1464,-1.450,-0.370
1465,-1.440,-0.345
1466,-1.430,-0.335
1467,-1.395,-0.320
1468,-1.380,-0.320
1469,-1.330,-0.320
1470,-1.325,-0.330
1471,-1.330,-0.330
1472,-1.335,-0.325
1473,-1.340,-0.305
1474,-1.335,-0.300
1475,-1.320,-0.290
1476,-1.305,-0.315
1477,-1.310,-0.360
1478,-1.305,-0.380
1479,-1.260,-0.390
1480,-1.240,-0.365
1481,-1.235,-0.335
1482,-1.220,-0.330
1483,-1.230,-0.350
1484,-1.245,-0.370
1485,-1.275,-0.365
1486,-1.320,-0.365
1487,-1.330,-0.370
1488,-1.315,-0.395
1489,-1.340,-0.400
1490,-1.345,-0.410
1491,-1.380,-0.395
1492,-1.410,-0.390
1493,-1.450,-0.400
1494,-1.465,-0.400
1495,-1.475,-0.390
1496,-1.480,-0.385
1497,-1.465,-0.385
1498,-1.455,-0.370
1499,-1.435,-0.360
1500,-1.420,-0.360
1501,-1.415,-0.335
1502,-1.440,-0.350
1503,-1.465,-0.380
1504,-1.425,-0.440
1505,-1.345,-0.505
1506,-1.180,-0.610
1507,-0.915,-0.725
1508,-0.495,-0.835
1509,0.030,-0.950
1510,0.630,-1.065
1511,1.220,-1.145
1512,1.715,-1.125
1513,2.015,-1.010
1514,2.070,-0.820
1515,1.645,-0.655
1516,0.800,-0.580
1517,-0.120,-0.535
1518,-1.040,-0.530
1519,-1.825,-0.485
1520,-1.790,-0.415
1521,-1.400,-0.370
1522,-1.175,-0.335
1523,-1.150,-0.345
1524,-1.270,-0.350
1525,-1.310,-0.355
1526,-1.415,-0.365
1527,-1.425,-0.360
1528,-1.410,-0.365
1529,-1.410,-0.355
1530,-1.400,-0.325
1531,-1.395,-0.305
1532,-1.385,-0.295
1533,-1.370,-0.285
1534,-1.335,-0.305
1535,-1.325,-0.340
1536,-1.325,-0.360
1537,-1.340,-0.365
1538,-1.330,-0.350
1539,-1.345,-0.340
1540,-1.325,-0.320
1541,-1.305,-0.295
1542,-1.275,-0.285
1543,-1.260,-0.285
1544,-1.255,-0.300
1545,-1.260,-0.320
1546,-1.240,-0.340
1547,-1.230,-0.350
1548,-1.190,-0.325
1549,-1.150,-0.285
1550,-1.130,-0.280
1551,-1.095,-0.245
1552,-1.090,-0.255
1553,-1.075,-0.280
1554,-1.050,-0.300
1555,-1.025,-0.310
1556,-0.990,-0.325
1557,-0.955,-0.295
1558,-0.935,-0.265
1559,-0.885,-0.255
1560,-0.840,-0.245
1561,-0.810,-0.235
1562,-0.800,-0.240
1563,-0.740,-0.240
1564,-0.705,-0.235
1565,-0.660,-0.225
1566,-0.605,-0.190
1567,-0.585,-0.190
1568,-0.565,-0.180
1569,-0.575,-0.225
1570,-0.595,-0.235
1571,-0.605,-0.230
1572,-0.620,-0.220
1573,-0.605,-0.190
1574,-0.610,-0.180
1575,-0.625,-0.195
1576,-0.650,-0.235
1577,-0.715,-0.260
1578,-0.805,-0.290
1579,-0.890,-0.315
1580,-0.950,-0.335
1581,-1.000,-0.355
1582,-1.060,-0.375
1583,-1.100,-0.385
1584,-1.120,-0.365
1585,-1.170,-0.365
1586,-1.205,-0.365
1587,-1.250,-0.370
1588,-1.275,-0.390
1589,-1.295,-0.390
1590,-1.290,-0.365
1591,-1.295,-0.355
1592,-1.285,-0.355
1593,-1.300,-0.385
1594,-1.340,-0.395
1595,-1.340,-0.380
1596,-1.340,-0.380
1597,-1.345,-0.385
1598,-1.325,-0.370
1599,-1.305,-0.365
1600,-1.300,-0.375
1601,-1.290,-0.380
1602,-1.300,-0.405
1603,-1.325,-0.395
1604,-1.315,-0.410
1605,-1.315,-0.405
1606,-1.305,-0.405
1607,-1.275,-0.380
1608,-1.280,-0.365
1609,-1.285,-0.365
1610,-1.280,-0.370
1611,-1.270,-0.395
1612,-1.285,-0.415
1613,-1.300,-0.440
1614,-1.285,-0.420
1615,-1.280,-0.390
1616,-1.255,-0.380
1617,-1.250,-0.375
1618,-1.255,-0.370
1619,-1.270,-0.385
1620,-1.290,-0.380
1621,-1.290,-0.385
1622,-1.300,-0.390
1623,-1.295,-0.400
1624,-1.295,-0.390
1625,-1.285,-0.380
1626,-1.285,-0.400
1627,-1.305,-0.420
1628,-1.325,-0.420
1629,-1.330,-0.425
1630,-1.320,-0.400
1631,-1.315,-0.390
1632,-1.300,-0.400
1633,-1.305,-0.400
1634,-1.310,-0.410
1635,-1.335,-0.415
1636,-1.340,-0.420
1637,-1.335,-0.430
1638,-1.345,-0.430
1639,-1.345,-0.430
1640,-1.325,-0.405
1641,-1.315,-0.390
1642,-1.310,-0.395
1643,-1.300,-0.390
1644,-1.315,-0.405
1645,-1.325,-0.425
1646,-1.335,-0.410
1647,-1.340,-0.420
1648,-1.340,-0.415
1649,-1.325,-0.395
1650,-1.325,-0.385
1651,-1.300,-0.370
1652,-1.300,-0.365
1653,-1.290,-0.365
1654,-1.280,-0.365
1655,-1.265,-0.355
1656,-1.245,-0.360
1657,-1.235,-0.365
1658,-1.225,-0.355
1659,-1.215,-0.350
1660,-1.210,-0.355
1661,-1.220,-0.370
1662,-1.210,-0.390
1663,-1.205,-0.405
1664,-1.180,-0.385
1665,-1.140,-0.375
1666,-1.120,-0.365
1667,-1.125,-0.365
1668,-1.140,-0.380
1669,-1.165,-0.385
1670,-1.195,-0.415
1671,-1.215,-0.420
1672,-1.220,-0.445
1673,-1.225,-0.440
1674,-1.215,-0.420
1675,-1.220,-0.410
1676,-1.265,-0.410
1677,-1.310,-0.430
1678,-1.350,-0.445
1679,-1.380,-0.450
1680,-1.390,-0.435
1681,-1.385,-0.440
1682,-1.370,-0.430
1683,-1.350,-0.400
1684,-1.335,-0.385
1685,-1.335,-0.415
1686,-1.345,-0.425
1687,-1.350,-0.420
1688,-1.340,-0.420
1689,-1.330,-0.430
1690,-1.300,-0.480
1691,-1.235,-0.565
1692,-1.075,-0.715
1693,-0.810,-0.850
1694,-0.385,-0.990
1695,0.160,-1.115
1696,0.795,-1.210
1697,1.475,-1.235
1698,2.050,-1.165
1699,2.340,-1.005
1700,2.390,-0.945
1701,1.635,-0.745
1702,0.730,-0.685
1703,-0.190,-0.670
1704,-1.115,-0.635
1705,-1.845,-0.555
1706,-1.615,-0.480
1707,-1.240,-0.405
1708,-1.025,-0.410
1709,-0.995,-0.430
1710,-1.125,-0.445
1711,-1.250,-0.435
1712,-1.310,-0.435
1713,-1.320,-0.415
1714,-1.300,-0.370
1715,-1.260,-0.370
1716,-1.250,-0.375
1717,-1.255,-0.385
1718,-1.260,-0.385
1719,-1.260,-0.385
1720,-1.270,-0.390
1721,-1.260,-0.405
1722,-1.255,-0.395
1723,-1.230,-0.350
1724,-1.210,-0.325
1725,-1.200,-0.315
1726,-1.185,-0.355
1727,-1.190,-0.380
1728,-1.185,-0.385
1729,-1.190,-0.345
1730,-1.180,-0.340
1731,-1.165,-0.340
1732,-1.135,-0.365
1733,-1.095,-0.365
1734,-1.080,-0.350
1735,-1.060,-0.360
1736,-1.045,-0.360
1737,-1.035,-0.370
1738,-1.025,-0.365
1739,-1.005,-0.345
1740,-0.965,-0.310
1741,-0.920,-0.295
1742,-0.855,-0.305
1743,-0.820,-0.295
1744,-0.805,-0.300
1745,-0.785,-0.305
1746,-0.735,-0.305
1747,-0.730,-0.275
1748,-0.680,-0.230
1749,-0.615,-0.235
1750,-0.590,-0.235
1751,-0.540,-0.250
1752,-0.520,-0.260
1753,-0.485,-0.255
1754,-0.475,-0.260
1755,-0.475,-0.265
1756,-0.465,-0.230
1757,-0.465,-0.225
1758,-0.480,-0.235
1759,-0.485,-0.225
1760,-0.515,-0.260
1761,-0.575,-0.310
1762,-0.625,-0.355
1763,-0.690,-0.370
1764,-0.765,-0.345
1765,-0.835,-0.350
1766,-0.905,-0.360
1767,-0.945,-0.390
1768,-1.010,-0.405
1769,-1.075,-0.435
1770,-1.140,-0.455
1771,-1.185,-0.465
1772,-1.215,-0.455
1773,-1.215,-0.450
1774,-1.225,-0.435
1775,-1.230,-0.420
1776,-1.250,-0.420
1777,-1.265,-0.430
1778,-1.280,-0.455
1779,-1.290,-0.455
1780,-1.310,-0.455
1781,-1.315,-0.435
1782,-1.290,-0.435
1783,-1.280,-0.425
1784,-1.280,-0.435
1785,-1.265,-0.440
1786,-1.285,-0.470
1787,-1.285,-0.475
1788,-1.290,-0.495
1789,-1.280,-0.480
1790,-1.275,-0.455
1791,-1.260,-0.435
1792,-1.245,-0.420
1793,-1.255,-0.430
1794,-1.240,-0.465
1795,-1.250,-0.475
1796,-1.250,-0.470
1797,-1.265,-0.435
1798,-1.280,-0.420
1799,-1.265,-0.415
1800,-1.265,-0.420
1801,-1.220,-0.455
1802,-1.225,-0.465
1803,-1.240,-0.465
1804,-1.265,-0.450
1805,-1.285,-0.440
1806,-1.285,-0.455
1807,-1.265,-0.465
1808,-1.275,-0.465
1809,-1.290,-0.455
1810,-1.305,-0.455
1811,-1.315,-0.470
1812,-1.295,-0.490
1813,-1.305,-0.510
1814,-1.315,-0.500
1815,-1.315,-0.480
1816,-1.305,-0.450
1817,-1.285,-0.435
1818,-1.275,-0.460
1819,-1.285,-0.490
1820,-1.305,-0.505
1821,-1.320,-0.505
1822,-1.330,-0.520
1823,-1.330,-0.500
1824,-1.320,-0.495
1825,-1.320,-0.485
1826,-1.335,-0.490
1827,-1.325,-0.495
1828,-1.325,-0.485
1829,-1.325,-0.500
1830,-1.335,-0.490
1831,-1.330,-0.500
1832,-1.320,-0.505
1833,-1.305,-0.490
1834,-1.300,-0.495
1835,-1.310,-0.490
1836,-1.310,-0.495
1837,-1.330,-0.495
1838,-1.350,-0.485
1839,-1.350,-0.475
1840,-1.295,-0.450
1841,-1.240,-0.430
1842,-1.220,-0.415
1843,-1.210,-0.405
1844,-1.215,-0.425
1845,-1.230,-0.445
1846,-1.240,-0.475
1847,-1.235,-0.465
1848,-1.210,-0.430
1849,-1.180,-0.420
1850,-1.170,-0.415
1851,-1.135,-0.470
1852,-1.135,-0.495
1853,-1.135,-0.515
1854,-1.160,-0.505
1855,-1.180,-0.485
1856,-1.185,-0.475
1857,-1.190,-0.475
1858,-1.195,-0.480
1859,-1.190,-0.500
1860,-1.205,-0.520
1861,-1.235,-0.540
1862,-1.280,-0.560
1863,-1.320,-0.545
1864,-1.355,-0.535
1865,-1.360,-0.520
1866,-1.365,-0.510
1867,-1.345,-0.525
1868,-1.335,-0.550
1869,-1.335,-0.550
1870,-1.345,-0.540
1871,-1.360,-0.535
1872,-1.365,-0.540
1873,-1.360,-0.530
1874,-1.330,-0.505
1875,-1.320,-0.500
1876,-1.320,-0.495
1877,-1.315,-0.540
1878,-1.280,-0.610
1879,-1.195,-0.710
1880,-1.030,-0.800
1881,-0.780,-0.865
1882,-0.425,-0.920
1883,-0.040,-0.990
1884,0.360,-1.100
1885,0.795,-1.215
1886,1.285,-1.250
1887,1.690,-1.150
1888,1.840,-0.970
1889,1.490,-0.840
1890,0.640,-0.775
1891,-0.285,-0.740
1892,-1.205,-0.690
1893,-1.880,-0.635
1894,-1.685,-0.590
1895,-1.310,-0.580
1896,-1.065,-0.585
1897,-1.035,-0.555
1898,-1.105,-0.545
1899,-1.200,-0.530
1900,-1.225,-0.520
1901,-1.255,-0.520
1902,-1.245,-0.525
1903,-1.235,-0.545
1904,-1.250,-0.565
1905,-1.265,-0.555
1906,-1.265,-0.530
1907,-1.240,-0.500
1908,-1.230,-0.485
1909,-1.235,-0.495
1910,-1.220,-0.525
1911,-1.220,-0.555
1912,-1.205,-0.570
1913,-1.190,-0.555
1914,-1.175,-0.545
1915,-1.165,-0.505
1916,-1.130,-0.480
1917,-1.130,-0.475
1918,-1.120,-0.490
1919,-1.120,-0.515
1920,-1.115,-0.515
1921,-1.100,-0.515
1922,-1.080,-0.520
1923,-1.055,-0.515
1924,-1.030,-0.490
1925,-1.015,-0.495
1926,-0.985,-0.475
1927,-0.960,-0.480
1928,-0.935,-0.495
1929,-0.905,-0.490
1930,-0.890,-0.480
1931,-0.865,-0.495
1932,-0.840,-0.475
1933,-0.800,-0.435
1934,-0.755,-0.420
1935,-0.720,-0.415
1936,-0.680,-0.455
1937,-0.645,-0.465
1938,-0.610,-0.465
1939,-0.580,-0.450
1940,-0.530,-0.435
1941,-0.490,-0.405
1942,-0.425,-0.380
1943,-0.385,-0.390
1944,-0.360,-0.400
1945,-0.350,-0.410
1946,-0.350,-0.395
1947,-0.355,-0.400
1948,-0.350,-0.405
1949,-0.320,-0.390
1950,-0.315,-0.385
1951,-0.300,-0.395
1952,-0.330,-0.435
1953,-0.400,-0.435
1954,-0.480,-0.470
1955,-0.555,-0.470
1956,-0.615,-0.475
1957,-0.670,-0.490
1958,-0.720,-0.470
1959,-0.760,-0.480
1960,-0.830,-0.515
1961,-0.885,-0.555
1962,-0.935,-0.570
1963,-0.975,-0.580
1964,-0.995,-0.575
1965,-0.995,-0.540
1966,-1.010,-0.525
1967,-1.035,-0.520
1968,-1.045,-0.555
1969,-1.070,-0.565
1970,-1.080,-0.595
1971,-1.080,-0.595
1972,-1.085,-0.580
1973,-1.090,-0.550
1974,-1.075,-0.555
1975,-1.075,-0.550
1976,-1.040,-0.560
1977,-1.045,-0.575
1978,-1.065,-0.605
1979,-1.080,-0.605
1980,-1.080,-0.595
1981,-1.070,-0.575
1982,-1.045,-0.545
1983,-1.025,-0.530
1984,-1.015,-0.545
1985,-1.000,-0.555
1986,-1.015,-0.570
1987,-1.020,-0.590
1988,-1.025,-0.605
1989,-1.030,-0.590
1990,-1.025,-0.580
1991,-0.985,-0.555
1992,-0.970,-0.525
1993,-0.980,-0.535
1994,-1.000,-0.560
1995,-1.010,-0.585
1996,-1.020,-0.600
1997,-1.035,-0.610
1998,-1.030,-0.615
1999,-1.035,-0.575
2000,-1.040,-0.565
2001,-1.020,-0.540
2002,-1.025,-0.545
2003,-1.050,-0.560
2004,-1.060,-0.585
2005,-1.060,-0.600
2006,-1.065,-0.620
2007,-1.055,-0.585
2008,-1.035,-0.600
2009,-1.040,-0.585
2010,-1.060,-0.585
2011,-1.075,-0.605
2012,-1.085,-0.620
2013,-1.085,-0.605
2014,-1.085,-0.590
2015,-1.080,-0.585
2016,-1.070,-0.585
2017,-1.050,-0.595
2018,-1.055,-0.605
2019,-1.065,-0.620
2020,-1.090,-0.635
2021,-1.095,-0.635
2022,-1.090,-0.605
2023,-1.080,-0.585
2024,-1.085,-0.585
2025,-1.075,-0.595
2026,-1.055,-0.605
2027,-1.065,-0.600
2028,-1.065,-0.605
2029,-1.050,-0.580
2030,-1.020,-0.555
2031,-0.990,-0.530
2032,-0.960,-0.510
2033,-0.950,-0.535
2034,-0.925,-0.565
2035,-0.925,-0.570
2036,-0.935,-0.580
2037,-0.960,-0.575
2038,-0.945,-0.585
2039,-0.915,-0.615
2040,-0.880,-0.610
2041,-0.870,-0.620
2042,-0.865,-0.590
2043,-0.875,-0.570
2044,-0.880,-0.575
2045,-0.900,-0.605
2046,-0.910,-0.615
2047,-0.955,-0.625
2048,-0.980,-0.605
2049,-1.005,-0.605
2050,-1.020,-0.595
2051,-1.050,-0.620
2052,-1.060,-0.660
2053,-1.085,-0.670
2054,-1.120,-0.665
2055,-1.145,-0.650
2056,-1.130,-0.630
2057,-1.095,-0.615
2058,-1.085,-0.620
2059,-1.080,-0.615
2060,-1.080,-0.615
2061,-1.100,-0.615
2062,-1.130,-0.630
2063,-1.135,-0.630
2064,-1.125,-0.660
2065,-1.055,-0.695
2066,-0.945,-0.755
2067,-0.760,-0.875
2068,-0.490,-1.010
2069,-0.095,-1.160
2070,0.410,-1.295
2071,0.995,-1.405
2072,1.605,-1.445
2073,2.125,-1.390
2074,2.395,-1.225
2075,2.435,-1.170
2076,1.620,-0.910
2077,0.700,-0.840
2078,-0.220,-0.820
2079,-1.145,-0.775
2080,-1.625,-0.720
2081,-1.210,-0.645
2082,-0.790,-0.635
2083,-0.655,-0.635
2084,-0.720,-0.630
2085,-0.890,-0.640
2086,-1.020,-0.645
2087,-1.070,-0.635
2088,-1.085,-0.635
2089,-1.060,-0.595
2090,-1.040,-0.575
2091,-1.025,-0.565
2092,-1.015,-0.570
2093,-1.005,-0.600
2094,-0.990,-0.610
2095,-0.995,-0.620
2096,-1.000,-0.605
2097,-1.005,-0.605
2098,-1.020,-0.595
2099,-1.010,-0.580
2100,-1.015,-0.580
2101,-0.980,-0.545
2102,-0.965,-0.550
2103,-0.960,-0.545
2104,-0.955,-0.560
2105,-0.935,-0.580
2106,-0.915,-0.595
2107,-0.900,-0.565
2108,-0.885,-0.550
2109,-0.870,-0.515
2110,-0.860,-0.525
2111,-0.865,-0.545
2112,-0.860,-0.560
2113,-0.835,-0.565
2114,-0.810,-0.555
2115,-0.785,-0.540
2116,-0.740,-0.505
2117,-0.695,-0.490
2118,-0.670,-0.470
2119,-0.645,-0.485
2120,-0.620,-0.490
2121,-0.605,-0.495
2122,-0.560,-0.485
2123,-0.515,-0.465
2124,-0.470,-0.460
2125,-0.450,-0.455
2126,-0.360,-0.440
2127,-0.325,-0.445
2128,-0.305,-0.465
2129,-0.290,-0.480
2130,-0.265,-0.465
2131,-0.250,-0.440
2132,-0.225,-0.425
2133,-0.200,-0.400
2134,-0.170,-0.390
2135,-0.170,-0.435
2136,-0.195,-0.455
2137,-0.240,-0.485
2138,-0.280,-0.490
2139,-0.335,-0.500
2140,-0.405,-0.505
2141,-0.455,-0.480
2142,-0.515,-0.490
2143,-0.580,-0.510
2144,-0.645,-0.550
2145,-0.725,-0.585
2146,-0.765,-0.615
2147,-0.815,-0.615
2148,-0.840,-0.580
2149,-0.875,-0.595
2150,-0.885,-0.605
2151,-0.935,-0.640
2152,-0.970,-0.655
2153,-1.000,-0.660
2154,-1.025,-0.645
2155,-1.020,-0.645
2156,-1.040,-0.645
2157,-1.005,-0.625
2158,-0.985,-0.625
2159,-0.980,-0.620
2160,-0.975,-0.625
2161,-0.990,-0.640
2162,-1.005,-0.655
2163,-1.015,-0.670
2164,-1.010,-0.650
2165,-1.020,-0.615
2166,-1.025,-0.610
2167,-1.010,-0.610
2168,-1.010,-0.625
2169,-1.015,-0.635
2170,-1.010,-0.640
2171,-0.995,-0.640
2172,-1.000,-0.615
2173,-0.975,-0.625
2174,-0.975,-0.625
2175,-0.970,-0.625
2176,-0.970,-0.640
2177,-0.985,-0.650
2178,-1.020,-0.650
2179,-1.015,-0.630
2180,-1.010,-0.625
2181,-1.020,-0.630
2182,-1.010,-0.625
2183,-1.000,-0.620
2184,-0.975,-0.625
2185,-0.980,-0.650
2186,-1.000,-0.670
2187,-1.015,-0.685
2188,-1.030,-0.675
2189,-1.030,-0.665
2190,-1.015,-0.645
2191,-1.000,-0.630
2192,-0.995,-0.630
2193,-1.030,-0.645
2194,-1.060,-0.685
2195,-1.055,-0.690
2196,-1.055,-0.680
2197,-1.040,-0.675
2198,-1.040,-0.655
2199,-1.045,-0.655
2200,-1.035,-0.655
2201,-1.030,-0.635
2202,-1.020,-0.645
2203,-1.050,-0.660
2204,-1.060,-0.680
2205,-1.060,-0.695
2206,-1.050,-0.690
2207,-1.045,-0.700
2208,-1.045,-0.670
2209,-1.040,-0.665
2210,-1.070,-0.640
2211,-1.070,-0.655
2212,-1.080,-0.675
2213,-1.090,-0.690
2214,-1.080,-0.675
2215,-1.060,-0.630
2216,-1.025,-0.600
2217,-0.970,-0.590
2218,-0.945,-0.605
2219,-0.925,-0.635
2220,-0.925,-0.640
2221,-0.925,-0.650
2222,-0.935,-0.630
2223,-0.950,-0.635
2224,-0.940,-0.610
2225,-0.935,-0.615
2226,-0.880,-0.605
2227,-0.855,-0.635
2228,-0.835,-0.640
2229,-0.855,-0.645
2230,-0.875,-0.650
2231,-0.885,-0.660
2232,-0.890,-0.655
2233,-0.910,-0.655
2234,-0.920,-0.665
2235,-0.930,-0.680
2236,-0.960,-0.680
2237,-0.985,-0.660
2238,-1.025,-0.680
2239,-1.070,-0.690
2240,-1.090,-0.715
2241,-1.100,-0.695
2242,-1.100,-0.675
2243,-1.110,-0.665
2244,-1.125,-0.685
2245,-1.125,-0.695
2246,-1.125,-0.700
2247,-1.120,-0.700
2248,-1.105,-0.690
2249,-1.095,-0.670
2250,-1.090,-0.665
2251,-1.070,-0.660
2252,-1.075,-0.690
2253,-1.035,-0.775
2254,-0.910,-0.925
2255,-0.640,-1.090
2256,-0.175,-1.260
2257,0.475,-1.395
2258,1.230,-1.490
2259,1.945,-1.495
2260,2.375,-1.380
2261,2.415,-1.205
2262,1.840,-1.050
2263,0.915,-0.965
2264,-0.005,-0.930
2265,-0.925,-0.865
2266,-1.795,-0.780
2267,-1.350,-0.720
2268,-0.870,-0.665
2269,-0.690,-0.655
2270,-0.755,-0.675
2271,-0.930,-0.690
2272,-1.060,-0.720
2273,-1.110,-0.695
2274,-1.095,-0.660
2275,-1.085,-0.660
2276,-1.040,-0.620
2277,-1.055,-0.640
2278,-1.055,-0.675
2279,-1.055,-0.690
2280,-1.060,-0.680
2281,-1.050,-0.655
2282,-1.050,-0.630
2283,-1.020,-0.625
2284,-1.010,-0.630
2285,-1.000,-0.615
2286,-0.985,-0.625
2287,-0.980,-0.640
2288,-0.980,-0.655
2289,-0.965,-0.640
2290,-0.950,-0.590
2291,-0.905,-0.555
2292,-0.895,-0.550
2293,-0.870,-0.580
2294,-0.865,-0.630
2295,-0.860,-0.640
2296,-0.875,-0.635
2297,-0.860,-0.610
2298,-0.840,-0.570
2299,-0.810,-0.560
2300,-0.800,-0.555
2301,-0.730,-0.560
2302,-0.690,-0.550
2303,-0.665,-0.540
2304,-0.635,-0.545
2305,-0.600,-0.545
2306,-0.565,-0.530
2307,-0.520,-0.520
2308,-0.465,-0.520
2309,-0.430,-0.505
2310,-0.415,-0.480
2311,-0.395,-0.470
2312,-0.365,-0.475
2313,-0.320,-0.495
2314,-0.300,-0.495
2315,-0.255,-0.490
2316,-0.220,-0.475
2317,-0.195,-0.480
2318,-0.185,-0.495
2319,-0.195,-0.505
2320,-0.210,-0.500
2321,-0.235,-0.505
2322,-0.270,-0.500
2323,-0.305,-0.515
2324,-0.345,-0.535
2325,-0.355,-0.545
2326,-0.445,-0.580
2327,-0.510,-0.605
2328,-0.580,-0.625
2329,-0.645,-0.625
2330,-0.710,-0.650
2331,-0.765,-0.660
2332,-0.815,-0.645
2333,-0.850,-0.625
2334,-0.875,-0.615
2335,-0.910,-0.650
2336,-0.940,-0.690
2337,-0.965,-0.715
2338,-0.970,-0.725
2339,-0.995,-0.695
2340,-0.985,-0.670
2341,-0.990,-0.665
2342,-0.985,-0.670
2343,-0.980,-0.685
2344,-1.005,-0.710
2345,-1.035,-0.705
2346,-1.040,-0.680
2347,-1.035,-0.675
2348,-1.050,-0.675
2349,-1.045,-0.690
2350,-1.030,-0.705
2351,-1.010,-0.700
2352,-1.005,-0.680
2353,-1.010,-0.670
2354,-1.010,-0.690
2355,-1.005,-0.710
2356,-1.005,-0.710
2357,-0.995,-0.690
2358,-1.000,-0.660
2359,-0.995,-0.655
2360,-1.010,-0.680
2361,-1.000,-0.695
2362,-1.015,-0.715
2363,-1.025,-0.680
2364,-1.010,-0.665
2365,-0.995,-0.660
2366,-1.000,-0.665
2367,-0.990,-0.675
2368,-0.990,-0.715
2369,-1.010,-0.715
2370,-1.020,-0.740
2371,-1.030,-0.735
2372,-1.045,-0.700
2373,-1.060,-0.665
2374,-1.060,-0.670
2375,-1.070,-0.660
2376,-1.045,-0.660
2377,-1.055,-0.690
2378,-1.060,-0.720
2379,-1.080,-0.725
2380,-1.095,-0.715
2381,-1.110,-0.700
2382,-1.105,-0.695
2383,-1.105,-0.680
2384,-1.095,-0.680
2385,-1.115,-0.695
2386,-1.125,-0.700
2387,-1.135,-0.700
2388,-1.145,-0.705
2389,-1.120,-0.715
2390,-1.110,-0.700
2391,-1.110,-0.695
2392,-1.125,-0.680
2393,-1.120,-0.675
2394,-1.125,-0.670
2395,-1.145,-0.690
2396,-1.160,-0.690
2397,-1.180,-0.700
2398,-1.170,-0.700
2399,-1.140,-0.690
2400,-1.135,-0.680
2401,-1.120,-0.655
2402,-1.110,-0.655
2403,-1.110,-0.670
2404,-1.100,-0.660
2405,-1.070,-0.655
2406,-1.055,-0.665
2407,-1.045,-0.630
2408,-1.040,-0.620
2409,-1.045,-0.610
2410,-1.045,-0.640
2411,-1.045,-0.665
2412,-1.040,-0.680
2413,-1.015,-0.690
2414,-1.000,-0.685
2415,-0.975,-0.670
2416,-0.940,-0.670
2417,-0.935,-0.660
2418,-0.950,-0.660
2419,-0.960,-0.655
2420,-0.995,-0.660
2421,-1.015,-0.670
2422,-1.045,-0.700
2423,-1.055,-0.710
2424,-1.050,-0.700
2425,-1.060,-0.700
2426,-1.100,-0.680
2427,-1.155,-0.715
2428,-1.210,-0.750
2429,-1.250,-0.760
2430,-1.265,-0.730
2431,-1.255,-0.700
2432,-1.220,-0.685
2433,-1.200,-0.700
2434,-1.190,-0.710
2435,-1.180,-0.725
2436,-1.170,-0.730
2437,-1.165,-0.705
2438,-1.180,-0.700
2439,-1.195,-0.690
2440,-1.210,-0.695
2441,-1.200,-0.740
2442,-1.145,-0.810
2443,-0.990,-0.920
2444,-0.715,-1.075
2445,-0.295,-1.210
2446,0.250,-1.355
2447,0.915,-1.450
2448,1.620,-1.535
2449,2.170,-1.505
2450,2.310,-1.485
2451,2.440,-1.210
2452,1.980,-1.045
2453,1.090,-0.975
2454,0.165,-0.940
2455,-0.755,-0.890
2456,-1.560,-0.805
2457,-1.435,-0.705
2458,-1.045,-0.660
2459,-0.860,-0.635
2460,-0.925,-0.675
2461,-1.080,-0.700
2462,-1.190,-0.705
2463,-1.220,-0.705
2464,-1.210,-0.675
2465,-1.175,-0.665
2466,-1.145,-0.650
2467,-1.145,-0.615
2468,-1.155,-0.630
2469,-1.160,-0.645
2470,-1.165,-0.655
2471,-1.165,-0.655
2472,-1.170,-0.630
2473,-1.160,-0.620
2474,-1.130,-0.615
2475,-1.120,-0.610
2476,-1.085,-0.605
2477,-1.080,-0.630
2478,-1.090,-0.635
2479,-1.085,-0.650
2480,-1.075,-0.650
2481,-1.075,-0.630
2482,-1.065,-0.595
2483,-1.050,-0.600
2484,-1.015,-0.595
2485,-0.980,-0.605
2486,-0.950,-0.610
2487,-0.930,-0.605
2488,-0.930,-0.605
2489,-0.915,-0.600
2490,-0.895,-0.600
2491,-0.860,-0.600
2492,-0.810,-0.595
2493,-0.780,-0.575
2494,-0.755,-0.565
2495,-0.735,-0.560
2496,-0.725,-0.545
2497,-0.690,-0.535
2498,-0.635,-0.525
2499,-0.580,-0.510
2500,-0.560,-0.520
2501,-0.485,-0.505
2502,-0.470,-0.500
2503,-0.460,-0.505
2504,-0.465,-0.515
2505,-0.445,-0.520
2506,-0.425,-0.525
2507,-0.405,-0.520
2508,-0.405,-0.515
2509,-0.395,-0.520
2510,-0.405,-0.530
2511,-0.440,-0.555
2512,-0.480,-0.575
2513,-0.555,-0.580
2514,-0.610,-0.590
2515,-0.685,-0.600
2516,-0.740,-0.630
2517,-0.800,-0.600
2518,-0.860,-0.615
2519,-0.915,-0.630
2520,-0.970,-0.645
2521,-1.020,-0.665
2522,-1.060,-0.675
2523,-1.090,-0.670
2524,-1.090,-0.685
2525,-1.095,-0.680
2526,-1.115,-0.665
2527,-1.130,-0.660
2528,-1.140,-0.665
2529,-1.160,-0.670
2530,-1.170,-0.690
2531,-1.165,-0.690
2532,-1.165,-0.685
2533,-1.130,-0.670
2534,-1.110,-0.665
2535,-1.120,-0.660
2536,-1.115,-0.665
2537,-1.145,-0.685
2538,-1.135,-0.680
2539,-1.130,-0.690
2540,-1.135,-0.665
2541,-1.110,-0.640
2542,-1.100,-0.635
2543,-1.080,-0.640
2544,-1.085,-0.655
2545,-1.100,-0.685
2546,-1.125,-0.700
2547,-1.120,-0.710
2548,-1.125,-0.700
2549,-1.125,-0.685
2550,-1.120,-0.680
2551,-1.095,-0.680
2552,-1.090,-0.690
2553,-1.100,-0.675
2554,-1.115,-0.690
2555,-1.130,-0.675
2556,-1.135,-0.685
2557,-1.130,-0.685
2558,-1.145,-0.685
2559,-1.150,-0.685
2560,-1.155,-0.685
2561,-1.160,-0.690
2562,-1.165,-0.700
2563,-1.180,-0.705
2564,-1.175,-0.710
2565,-1.170,-0.695
2566,-1.165,-0.695
2567,-1.165,-0.700
2568,-1.155,-0.685
2569,-1.170,-0.690
2570,-1.185,-0.710
2571,-1.195,-0.715
2572,-1.195,-0.720
2573,-1.195,-0.725
2574,-1.180,-0.715
2575,-1.185,-0.700
2576,-1.185,-0.665
2577,-1.195,-0.680
2578,-1.200,-0.700
2579,-1.205,-0.715
2580,-1.205,-0.700
2581,-1.220,-0.685
2582,-1.205,-0.675
2583,-1.195,-0.680
2584,-1.175,-0.685
2585,-1.180,-0.675
2586,-1.185,-0.680
2587,-1.205,-0.690
2588,-1.220,-0.675
2589,-1.200,-0.675
2590,-1.175,-0.665
2591,-1.140,-0.665
2592,-1.105,-0.655
2593,-1.095,-0.645
2594,-1.100,-0.635
2595,-1.105,-0.660
2596,-1.115,-0.670
2597,-1.110,-0.665
2598,-1.095,-0.650
2599,-1.070,-0.635
2600,-1.055,-0.630
2601,-1.000,-0.640
2602,-0.990,-0.680
2603,-1.005,-0.705
2604,-1.035,-0.715
2605,-1.055,-0.700
2606,-1.060,-0.685
2607,-1.055,-0.700
2608,-1.050,-0.695
2609,-1.065,-0.700
2610,-1.085,-0.695
2611,-1.120,-0.695
2612,-1.160,-0.710
2613,-1.190,-0.725
2614,-1.215,-0.760
2615,-1.245,-0.755
2616,-1.270,-0.720
2617,-1.265,-0.695
2618,-1.250,-0.700
2619,-1.215,-0.720
2620,-1.220,-0.730
2621,-1.235,-0.715
2622,-1.230,-0.700
2623,-1.225,-0.685
2624,-1.230,-0.680
2625,-1.240,-0.675
2626,-1.225,-0.710
2627,-1.170,-0.745
2628,-1.045,-0.845
2629,-0.855,-0.965
2630,-0.565,-1.090
2631,-0.125,-1.235
2632,0.425,-1.310
2633,1.075,-1.390
2634,1.735,-1.405
2635,2.180,-1.345
2636,2.310,-1.205
2637,1.960,-1.060
2638,1.150,-0.975
2639,0.230,-0.915
2640,-0.690,-0.860
2641,-1.590,-0.795
2642,-1.545,-0.730
2643,-1.145,-0.685
2644,-0.865,-0.670
2645,-0.815,-0.675
2646,-0.920,-0.680
2647,-1.040,-0.670
2648,-1.130,-0.665
2649,-1.150,-0.645
2650,-1.150,-0.630
2651,-1.115,-0.600
2652,-1.095,-0.610
2653,-1.100,-0.620
2654,-1.115,-0.635
2655,-1.110,-0.650
2656,-1.110,-0.625
2657,-1.085,-0.610
2658,-1.070,-0.595
2659,-1.040,-0.600
2660,-1.035,-0.610
2661,-1.040,-0.615
2662,-1.035,-0.630
2663,-1.035,-0.620
2664,-1.030,-0.605
2665,-1.015,-0.605
2666,-0.995,-0.585
2667,-0.970,-0.570
2668,-0.940,-0.575
2669,-0.955,-0.590
2670,-0.935,-0.600
2671,-0.920,-0.610
2672,-0.895,-0.600
2673,-0.865,-0.575
2674,-0.835,-0.560
2675,-0.825,-0.565
2676,-0.760,-0.550
2677,-0.755,-0.580
2678,-0.740,-0.600
2679,-0.735,-0.580
2680,-0.720,-0.560
2681,-0.685,-0.540
2682,-0.630,-0.525
2683,-0.575,-0.520
2684,-0.505,-0.515
2685,-0.445,-0.515
2686,-0.420,-0.525
2687,-0.410,-0.510
2688,-0.405,-0.525
2689,-0.395,-0.535
2690,-0.370,-0.530
2691,-0.340,-0.510
2692,-0.335,-0.495
2693,-0.310,-0.500
2694,-0.320,-0.495
2695,-0.320,-0.530
2696,-0.335,-0.545
2697,-0.365,-0.550
2698,-0.400,-0.555
2699,-0.445,-0.560
2700,-0.465,-0.555
2701,-0.550,-0.595
2702,-0.615,-0.620
2703,-0.690,-0.645
2704,-0.755,-0.660
2705,-0.810,-0.670
2706,-0.870,-0.675
2707,-0.895,-0.665
2708,-0.915,-0.660
2709,-0.925,-0.655
2710,-0.975,-0.635
2711,-0.990,-0.660
2712,-1.025,-0.680
2713,-1.040,-0.685
2714,-1.055,-0.670
2715,-1.075,-0.655
2716,-1.070,-0.655
2717,-1.045,-0.655
2718,-1.035,-0.680
2719,-1.040,-0.705
2720,-1.055,-0.710
2721,-1.070,-0.715
2722,-1.065,-0.710
2723,-1.060,-0.695
2724,-1.045,-0.685
2725,-1.040,-0.675
2726,-1.025,-0.660
2727,-1.015,-0.675
2728,-1.040,-0.695
2729,-1.035,-0.715
2730,-1.035,-0.725
2731,-1.045,-0.720
2732,-1.020,-0.705
2733,-0.995,-0.670
2734,-0.995,-0.660
2735,-0.980,-0.685
2736,-0.985,-0.715
2737,-1.000,-0.730
2738,-1.025,-0.725
2739,-1.045,-0.720
2740,-1.050,-0.710
2741,-1.050,-0.705
2742,-1.035,-0.690
2743,-1.020,-0.670
2744,-1.035,-0.695
2745,-1.045,-0.725
2746,-1.045,-0.755
2747,-1.055,-0.755
2748,-1.095,-0.740
2749,-1.085,-0.750
2750,-1.090,-0.740
2751,-1.055,-0.705
2752,-1.075,-0.700
2753,-1.060,-0.730
2754,-1.080,-0.755
2755,-1.100,-0.770
2756,-1.110,-0.750
2757,-1.110,-0.730
2758,-1.095,-0.690
2759,-1.090,-0.680
2760,-1.090,-0.680
2761,-1.085,-0.705
2762,-1.105,-0.720
2763,-1.120,-0.740
2764,-1.135,-0.755
2765,-1.125,-0.760
2766,-1.095,-0.760
2767,-1.095,-0.735
2768,-1.085,-0.710
2769,-1.095,-0.730
2770,-1.110,-0.760
2771,-1.140,-0.770
2772,-1.135,-0.755
2773,-1.135,-0.740
2774,-1.135,-0.720
2775,-1.135,-0.710
2776,-1.085,-0.665
2777,-1.050,-0.660
2778,-1.035,-0.660
2779,-1.030,-0.685
2780,-1.010,-0.710
2781,-1.015,-0.700
2782,-0.995,-0.685
2783,-0.990,-0.665
2784,-0.975,-0.670
2785,-0.980,-0.680
2786,-0.985,-0.685
2787,-0.970,-0.690
2788,-0.950,-0.710
2789,-0.930,-0.735
2790,-0.920,-0.710
2791,-0.910,-0.680
2792,-0.915,-0.670
2793,-0.910,-0.690
2794,-0.940,-0.750
2795,-0.970,-0.780
2796,-0.990,-0.785
2797,-1.020,-0.775
2798,-1.070,-0.745
2799,-1.105,-0.725
2800,-1.120,-0.730
2801,-1.125,-0.725
2802,-1.140,-0.745
2803,-1.175,-0.755
2804,-1.190,-0.775
2805,-1.190,-0.775
2806,-1.195,-0.775
2807,-1.170,-0.760
2808,-1.165,-0.725
2809,-1.145,-0.720
2810,-1.130,-0.705
2811,-1.140,-0.715
2812,-1.170,-0.740
2813,-1.175,-0.775
2814,-1.190,-0.810
2815,-1.120,-0.870
2816,-0.960,-0.975
2817,-0.655,-1.130
2818,-0.210,-1.280
2819,0.330,-1.415
2820,0.940,-1.525
2821,1.550,-1.630
2822,2.065,-1.655
2823,2.380,-1.615
2824,2.470,-1.445
2825,2.460,-1.390
2826,1.875,-1.110
2827,1.035,-1.015
2828,0.115,-0.975
2829,-0.810,-0.925
2830,-1.605,-0.875
2831,-1.450,-0.810
2832,-1.045,-0.750
2833,-0.810,-0.740
2834,-0.795,-0.745
2835,-0.925,-0.775
2836,-1.070,-0.790
2837,-1.155,-0.795
2838,-1.160,-0.755
2839,-1.140,-0.730
2840,-1.120,-0.710
2841,-1.095,-0.700
2842,-1.105,-0.720
2843,-1.095,-0.725
2844,-1.125,-0.745
2845,-1.130,-0.740
2846,-1.135,-0.720
2847,-1.135,-0.735
2848,-1.140,-0.735
2849,-1.115,-0.725
2850,-1.105,-0.715
2851,-1.060,-0.680
2852,-1.045,-0.680
2853,-1.020,-0.710
2854,-1.025,-0.730
2855,-1.020,-0.735
2856,-1.020,-0.735
2857,-1.005,-0.720
2858,-0.985,-0.680
2859,-0.965,-0.640
2860,-0.940,-0.645
2861,-0.930,-0.655
2862,-0.915,-0.685
2863,-0.905,-0.690
2864,-0.890,-0.685
2865,-0.865,-0.670
2866,-0.835,-0.655
2867,-0.795,-0.640
2868,-0.750,-0.635
2869,-0.740,-0.625
2870,-0.710,-0.640
2871,-0.695,-0.645
2872,-0.665,-0.635
2873,-0.640,-0.635
2874,-0.585,-0.605
2875,-0.565,-0.605
2876,-0.490,-0.575
2877,-0.455,-0.570
2878,-0.425,-0.570
2879,-0.405,-0.590
2880,-0.385,-0.585
2881,-0.380,-0.585
2882,-0.355,-0.565
2883,-0.320,-0.575
2884,-0.300,-0.575
2885,-0.295,-0.600
2886,-0.310,-0.620
2887,-0.350,-0.635
2888,-0.350,-0.630
2889,-0.395,-0.620
2890,-0.425,-0.610
2891,-0.460,-0.625
2892,-0.485,-0.650
2893,-0.535,-0.665
2894,-0.630,-0.705
2895,-0.710,-0.740
2896,-0.790,-0.745
2897,-0.855,-0.755
2898,-0.900,-0.750
2899,-0.940,-0.735
2900,-0.945,-0.730
2901,-0.985,-0.740
2902,-1.000,-0.760
2903,-1.030,-0.785
2904,-1.060,-0.785
2905,-1.085,-0.780
2906,-1.110,-0.785
2907,-1.115,-0.770
2908,-1.120,-0.755
2909,-1.085,-0.735
2910,-1.085,-0.760
2911,-1.090,-0.780
2912,-1.105,-0.790
2913,-1.100,-0.810
2914,-1.100,-0.800
2915,-1.095,-0.790
2916,-1.080,-0.765
2917,-1.080,-0.740
2918,-1.060,-0.730
2919,-1.055,-0.755
2920,-1.055,-0.770
2921,-1.075,-0.790
2922,-1.090,-0.800
2923,-1.085,-0.795
2924,-1.070,-0.770
2925,-1.065,-0.755
2926,-1.025,-0.740
2927,-1.015,-0.745
2928,-1.025,-0.760
2929,-1.045,-0.780
2930,-1.060,-0.790
2931,-1.070,-0.800
2932,-1.070,-0.780
2933,-1.035,-0.755
2934,-1.030,-0.725
2935,-1.010,-0.725
2936,-1.025,-0.750
2937,-1.040,-0.770
2938,-1.050,-0.785
2939,-1.070,-0.780
2940,-1.075,-0.770
2941,-1.070,-0.760
2942,-1.065,-0.755
2943,-1.055,-0.745
2944,-1.075,-0.765
2945,-1.085,-0.785
2946,-1.100,-0.810
2947,-1.120,-0.815
2948,-1.115,-0.825
2949,-1.105,-0.785
2950,-1.095,-0.775
2951,-1.085,-0.760
2952,-1.085,-0.755
2953,-1.100,-0.780
2954,-1.105,-0.795
2955,-1.115,-0.805
2956,-1.130,-0.785
2957,-1.125,-0.760
2958,-1.110,-0.745
2959,-1.100,-0.745
2960,-1.095,-0.765
2961,-1.105,-0.760
2962,-1.110,-0.780
2963,-1.125,-0.795
2964,-1.130,-0.780
2965,-1.130,-0.760
2966,-1.130,-0.740
2967,-1.125,-0.735
2968,-1.125,-0.735
2969,-1.120,-0.740
2970,-1.105,-0.755
2971,-1.085,-0.755
2972,-1.055,-0.760
2973,-1.035,-0.735
2974,-1.010,-0.715
2975,-0.995,-0.710
2976,-1.000,-0.695
2977,-0.985,-0.705
2978,-0.975,-0.715
2979,-0.955,-0.725
2980,-0.925,-0.740
2981,-0.895,-0.755
2982,-0.880,-0.755
2983,-0.885,-0.735
2984,-0.890,-0.735
2985,-0.900,-0.725
2986,-0.920,-0.750
2987,-0.950,-0.775
2988,-0.990,-0.790
2989,-1.015,-0.785
2990,-1.045,-0.790
2991,-1.060,-0.770
2992,-1.055,-0.770
2993,-1.055,-0.770
2994,-1.095,-0.780
2995,-1.155,-0.805
2996,-1.155,-0.815
2997,-1.170,-0.800
2998,-1.175,-0.795
2999,-1.170,-0.775
3000,-1.170,-0.770
3001,-1.160,-0.755
3002,-1.135,-0.760
3003,-1.135,-0.755
3004,-1.140,-0.735
3005,-1.155,-0.765
3006,-1.160,-0.795
3007,-1.130,-0.825
3008,-1.045,-0.895
3009,-0.880,-0.980
3010,-0.550,-1.105
3011,-0.120,-1.235
3012,0.405,-1.365
3013,0.935,-1.470
3014,1.480,-1.565
3015,1.945,-1.580
3016,2.305,-1.485
3017,2.385,-1.290
3018,2.125,-1.100
3019,1.325,-0.990
3020,0.405,-0.940
3021,-0.515,-0.930
3022,-1.440,-0.880
3023,-1.515,-0.805
3024,-1.035,-0.755
3025,-0.900,-0.745
3026,-0.715,-0.720
3027,-0.865,-0.725
3028,-1.020,-0.725
3029,-1.105,-0.740
3030,-1.120,-0.735
3031,-1.105,-0.720
3032,-1.095,-0.700
3033,-1.090,-0.695
3034,-1.085,-0.685
3035,-1.075,-0.680
3036,-1.065,-0.680
3037,-1.065,-0.695
3038,-1.055,-0.695
3039,-1.050,-0.700
3040,-1.035,-0.700
3041,-1.005,-0.670
3042,-0.995,-0.670
3043,-0.985,-0.655
3044,-1.005,-0.680
3045,-1.025,-0.665
3046,-1.015,-0.675
3047,-0.990,-0.685
3048,-0.975,-0.700
3049,-0.940,-0.670
3050,-0.925,-0.665
3051,-0.890,-0.640
3052,-0.880,-0.655
3053,-0.855,-0.665
3054,-0.845,-0.670
3055,-0.835,-0.665
3056,-0.830,-0.625
3057,-0.785,-0.615
3058,-0.740,-0.600
3059,-0.685,-0.580
3060,-0.640,-0.590
3061,-0.610,-0.590
3062,-0.580,-0.615
3063,-0.560,-0.615
3064,-0.525,-0.610
3065,-0.475,-0.585
3066,-0.405,-0.555
3067,-0.355,-0.535
3068,-0.310,-0.535
3069,-0.285,-0.565
3070,-0.255,-0.580
3071,-0.250,-0.570
3072,-0.255,-0.555
3073,-0.260,-0.540
3074,-0.250,-0.535
3075,-0.250,-0.540
3076,-0.235,-0.535
3077,-0.240,-0.540
3078,-0.285,-0.590
3079,-0.350,-0.625
3080,-0.420,-0.660
3081,-0.485,-0.675
3082,-0.560,-0.670
3083,-0.615,-0.665
3084,-0.670,-0.670
3085,-0.715,-0.675
3086,-0.775,-0.695
3087,-0.840,-0.720
3088,-0.900,-0.740
3089,-0.945,-0.725
3090,-0.950,-0.705
3091,-0.965,-0.705
3092,-0.975,-0.695
3093,-0.980,-0.705
3094,-1.025,-0.725
3095,-1.045,-0.745
3096,-1.075,-0.770
3097,-1.095,-0.760
3098,-1.105,-0.745
3099,-1.065,-0.735
3100,-1.055,-0.735
3101,-1.025,-0.735
3102,-1.025,-0.730
3103,-1.045,-0.745
3104,-1.065,-0.735
3105,-1.075,-0.740
3106,-1.065,-0.740
3107,-1.045,-0.740
3108,-1.040,-0.725
3109,-1.035,-0.740
3110,-1.025,-0.735
3111,-1.020,-0.745
3112,-1.020,-0.760
3113,-1.015,-0.735
3114,-1.025,-0.730
3115,-1.035,-0.715
3116,-1.040,-0.715
3117,-1.015,-0.700
3118,-1.000,-0.725
3119,-1.010,-0.725
3120,-1.010,-0.740
3121,-1.040,-0.735
3122,-1.050,-0.745
3123,-1.055,-0.745
3124,-1.035,-0.730
3125,-1.035,-0.715
3126,-1.015,-0.680
3127,-1.010,-0.680
3128,-1.015,-0.715
3129,-1.065,-0.745
3130,-1.110,-0.755
3131,-1.125,-0.755
3132,-1.120,-0.730
3133,-1.100,-0.695
3134,-1.070,-0.680
3135,-1.060,-0.710
3136,-1.075,-0.740
3137,-1.100,-0.745
3138,-1.120,-0.765
3139,-1.135,-0.760
3140,-1.135,-0.725
3141,-1.130,-0.715
3142,-1.120,-0.715
3143,-1.100,-0.700
3144,-1.095,-0.700
3145,-1.105,-0.715
3146,-1.120,-0.725
3147,-1.115,-0.740
3148,-1.125,-0.735
3149,-1.135,-0.720
3150,-1.125,-0.720
3151,-1.120,-0.715
3152,-1.110,-0.715
3153,-1.130,-0.735
3154,-1.140,-0.725
3155,-1.165,-0.715
3156,-1.160,-0.700
3157,-1.150,-0.680
3158,-1.130,-0.665
3159,-1.100,-0.645
3160,-1.065,-0.660
3161,-1.035,-0.660
3162,-1.020,-0.660
3163,-1.020,-0.670
3164,-1.030,-0.670
3165,-1.030,-0.650
3166,-1.015,-0.640
3167,-1.010,-0.630
3168,-0.965,-0.645
3169,-0.930,-0.680
3170,-0.925,-0.710
3171,-0.950,-0.705
3172,-0.970,-0.710
3173,-0.995,-0.700
3174,-0.985,-0.685
3175,-0.995,-0.685
3176,-1.000,-0.680
3177,-1.020,-0.670
3178,-1.040,-0.695
3179,-1.095,-0.725
3180,-1.140,-0.750
3181,-1.175,-0.775
3182,-1.220,-0.765
3183,-1.225,-0.720
3184,-1.225,-0.700
3185,-1.215,-0.695
3186,-1.210,-0.720
3187,-1.200,-0.730
3188,-1.210,-0.740
3189,-1.200,-0.745
3190,-1.225,-0.715
3191,-1.210,-0.685
3192,-1.200,-0.670
3193,-1.185,-0.675
3194,-1.180,-0.725
3195,-1.165,-0.810
3196,-1.090,-0.895
3197,-0.875,-1.000
3198,-0.530,-1.120
3199,-0.020,-1.235
3200,0.140,-1.275
3201,1.105,-1.405
3202,1.660,-1.470
3203,2.095,-1.480
3204,2.300,-1.375
3205,2.200,-1.200
3206,1.695,-1.010
3207,0.825,-0.905
3208,-0.095,-0.855
3209,-1.015,-0.810
3210,-1.655,-0.760
3211,-1.365,-0.715
3212,-0.990,-0.695
3213,-0.845,-0.675
3214,-0.905,-0.690
3215,-1.060,-0.695
3216,-1.170,-0.675
3217,-1.205,-0.665
3218,-1.185,-0.655
3219,-1.175,-0.640
3220,-1.175,-0.640
3221,-1.170,-0.660
3222,-1.190,-0.665
3223,-1.185,-0.675
3224,-1.180,-0.655
3225,-1.175,-0.655
3226,-1.130,-0.635
3227,-1.120,-0.625
3228,-1.130,-0.630
3229,-1.140,-0.630
3230,-1.140,-0.640
3231,-1.110,-0.640
3232,-1.100,-0.655
3233,-1.095,-0.635
3234,-1.085,-0.615
3235,-1.060,-0.605
3236,-1.045,-0.610
3237,-1.035,-0.605
3238,-1.045,-0.625
3239,-1.025,-0.635
3240,-1.000,-0.640
3241,-0.960,-0.615
3242,-0.920,-0.560
3243,-0.895,-0.535
3244,-0.870,-0.535
3245,-0.860,-0.565
3246,-0.860,-0.585
3247,-0.830,-0.600
3248,-0.830,-0.595
3249,-0.775,-0.580
3250,-0.755,-0.580
3251,-0.670,-0.535
3252,-0.610,-0.525
3253,-0.590,-0.535
3254,-0.555,-0.535
3255,-0.540,-0.535
3256,-0.540,-0.545
3257,-0.490,-0.525
3258,-0.450,-0.505
3259,-0.400,-0.490
3260,-0.355,-0.480
3261,-0.340,-0.490
3262,-0.345,-0.510
3263,-0.360,-0.530
3264,-0.380,-0.530
3265,-0.415,-0.535
3266,-0.440,-0.505
3267,-0.480,-0.500
3268,-0.535,-0.510
3269,-0.615,-0.530
3270,-0.695,-0.575
3271,-0.765,-0.620
3272,-0.835,-0.635
3273,-0.885,-0.650
3274,-0.935,-0.630
3275,-0.950,-0.620
3276,-1.035,-0.620
3277,-1.075,-0.620
3278,-1.115,-0.645
3279,-1.160,-0.675
3280,-1.185,-0.690
3281,-1.195,-0.685
3282,-1.195,-0.665
3283,-1.210,-0.645
3284,-1.210,-0.640
3285,-1.185,-0.650
3286,-1.165,-0.670
3287,-1.180,-0.695
3288,-1.215,-0.680
3289,-1.255,-0.670
3290,-1.250,-0.665
3291,-1.235,-0.635
3292,-1.210,-0.615
3293,-1.190,-0.625
3294,-1.185,-0.635
3295,-1.185,-0.655
3296,-1.190,-0.690
3297,-1.205,-0.695
3298,-1.215,-0.690
3299,-1.215,-0.660
3300,-1.210,-0.645
3301,-1.190,-0.640
3302,-1.185,-0.640
3303,-1.175,-0.665
3304,-1.195,-0.670
3305,-1.205,-0.670
3306,-1.200,-0.660
3307,-1.210,-0.650
3308,-1.205,-0.640
3309,-1.200,-0.630
3310,-1.195,-0.635
3311,-1.205,-0.635
3312,-1.205,-0.640
3313,-1.200,-0.660
3314,-1.215,-0.680
3315,-1.230,-0.675
3316,-1.260,-0.680
3317,-1.265,-0.675
3318,-1.275,-0.645
3319,-1.270,-0.655
3320,-1.260,-0.665
3321,-1.270,-0.670
3322,-1.300,-0.680
3323,-1.315,-0.695
3324,-1.315,-0.685
3325,-1.310,-0.675
3326,-1.260,-0.645
3327,-1.260,-0.645
3328,-1.285,-0.675
3329,-1.315,-0.705
3330,-1.335,-0.695
3331,-1.325,-0.685
3332,-1.325,-0.670
3333,-1.320,-0.655
3334,-1.300,-0.650
3335,-1.285,-0.655
3336,-1.280,-0.665
3337,-1.295,-0.670
3338,-1.315,-0.670
3339,-1.325,-0.690
3340,-1.325,-0.680
3341,-1.330,-0.660
3342,-1.305,-0.660
3343,-1.290,-0.635
3344,-1.270,-0.640
3345,-1.260,-0.645
3346,-1.245,-0.655
3347,-1.265,-0.655
3348,-1.265,-0.620
3349,-1.265,-0.595
3350,-1.260,-0.590
3351,-1.195,-0.605
3352,-1.180,-0.635
3353,-1.190,-0.645
3354,-1.200,-0.650
3355,-1.195,-0.635
3356,-1.175,-0.655
3357,-1.170,-0.665
3358,-1.165,-0.650
3359,-1.160,-0.635
3360,-1.160,-0.645
3361,-1.150,-0.660
3362,-1.155,-0.650
3363,-1.180,-0.665
3364,-1.190,-0.665
3365,-1.200,-0.685
3366,-1.210,-0.685
3367,-1.225,-0.685
3368,-1.245,-0.665
3369,-1.285,-0.670
3370,-1.315,-0.690
3371,-1.360,-0.730
3372,-1.370,-0.730
3373,-1.370,-0.730
3374,-1.350,-0.675
3375,-1.340,-0.655
3376,-1.345,-0.640
3377,-1.360,-0.655
3378,-1.365,-0.675
3379,-1.375,-0.690
3380,-1.365,-0.670
3381,-1.355,-0.650
3382,-1.340,-0.640
3383,-1.320,-0.655
3384,-1.280,-0.685
3385,-1.145,-0.785
3386,-0.935,-0.890
3387,-0.605,-1.030
3388,-0.160,-1.155
3389,0.350,-1.250
3390,0.950,-1.330
3391,1.555,-1.380
3392,2.005,-1.340
3393,2.220,-1.230
3394,2.065,-1.070
3395,1.450,-0.955
3396,0.550,-0.925
3397,-0.375,-0.925
3398,-1.295,-0.880
3399,-1.860,-0.805
3400,-1.860,-0.775
3401,-1.275,-0.700
3402,-1.065,-0.690
3403,-1.050,-0.685
3404,-1.120,-0.680
3405,-1.200,-0.675
3406,-1.260,-0.665
3407,-1.275,-0.685
3408,-1.265,-0.680
3409,-1.255,-0.665
3410,-1.220,-0.655
3411,-1.225,-0.650
3412,-1.245,-0.670
3413,-1.260,-0.690
3414,-1.250,-0.695
3415,-1.240,-0.695
3416,-1.215,-0.655
3417,-1.195,-0.640
3418,-1.150,-0.640
3419,-1.125,-0.675
3420,-1.150,-0.685
3421,-1.155,-0.670
3422,-1.170,-0.655
3423,-1.150,-0.635
3424,-1.130,-0.645
3425,-1.120,-0.655
3426,-1.090,-0.650
3427,-1.095,-0.655
3428,-1.085,-0.660
3429,-1.065,-0.655
3430,-1.055,-0.660
3431,-1.055,-0.660
3432,-1.040,-0.650
3433,-0.995,-0.630
3434,-0.960,-0.615
3435,-0.900,-0.605
3436,-0.885,-0.640
3437,-0.860,-0.645
3438,-0.875,-0.655
3439,-0.845,-0.645
3440,-0.810,-0.605
3441,-0.735,-0.560
3442,-0.655,-0.550
3443,-0.605,-0.565
3444,-0.580,-0.595
3445,-0.570,-0.605
3446,-0.580,-0.620
3447,-0.560,-0.585
3448,-0.525,-0.565
3449,-0.490,-0.535
3450,-0.480,-0.535
3451,-0.445,-0.525
3452,-0.435,-0.530
3453,-0.405,-0.535
3454,-0.395,-0.555
3455,-0.400,-0.570
3456,-0.435,-0.580
3457,-0.480,-0.565
3458,-0.485,-0.545
3459,-0.505,-0.540
3460,-0.550,-0.575
3461,-0.600,-0.605
3462,-0.670,-0.620
3463,-0.725,-0.645
3464,-0.785,-0.650
3465,-0.835,-0.660
3466,-0.875,-0.660
3467,-0.890,-0.655
3468,-0.925,-0.645
3469,-0.985,-0.665
3470,-1.045,-0.675
3471,-1.100,-0.700
3472,-1.135,-0.695
3473,-1.160,-0.695
3474,-1.155,-0.700
3475,-1.150,-0.690
3476,-1.120,-0.690
3477,-1.105,-0.695
3478,-1.100,-0.700
3479,-1.110,-0.705
3480,-1.135,-0.700
3481,-1.145,-0.710
3482,-1.130,-0.730
3483,-1.120,-0.720
3484,-1.100,-0.715
3485,-1.085,-0.710
3486,-1.075,-0.725
3487,-1.060,-0.740
3488,-1.075,-0.740
3489,-1.080,-0.730
3490,-1.095,-0.715
3491,-1.085,-0.690
3492,-1.085,-0.705
3493,-1.090,-0.715
3494,-1.070,-0.735
3495,-1.060,-0.720
3496,-1.050,-0.735
3497,-1.055,-0.740
3498,-1.055,-0.760
3499,-1.065,-0.740
3500,-1.060,-0.725
3501,-1.050,-0.695
3502,-1.040,-0.690
3503,-1.045,-0.715
3504,-1.070,-0.750
3505,-1.095,-0.760
3506,-1.115,-0.760
3507,-1.120,-0.765
3508,-1.090,-0.725
3509,-1.060,-0.710
3510,-1.045,-0.725
3511,-1.075,-0.730
3512,-1.130,-0.745
3513,-1.160,-0.740
3514,-1.160,-0.740
3515,-1.135,-0.740
3516,-1.105,-0.735
3517,-1.125,-0.715
3518,-1.130,-0.705
3519,-1.115,-0.720
3520,-1.125,-0.730
3521,-1.125,-0.765
3522,-1.120,-0.770
3523,-1.140,-0.775
3524,-1.165,-0.740
3525,-1.180,-0.720
3526,-1.195,-0.720
3527,-1.180,-0.710
3528,-1.175,-0.735
3529,-1.165,-0.745
3530,-1.155,-0.740
3531,-1.140,-0.750
3532,-1.125,-0.750
3533,-1.115,-0.735
3534,-1.135,-0.730
3535,-1.130,-0.700
3536,-1.115,-0.705
3537,-1.125,-0.695
3538,-1.105,-0.690
3539,-1.110,-0.705
3540,-1.105,-0.705
3541,-1.075,-0.715
3542,-1.050,-0.680
3543,-1.005,-0.655
3544,-1.015,-0.650
3545,-1.020,-0.680
3546,-1.045,-0.715
3547,-1.045,-0.710
3548,-1.050,-0.695
3549,-1.010,-0.690
3550,-0.990,-0.680
3551,-0.920,-0.705
3552,-0.900,-0.725
3553,-0.915,-0.705
3554,-0.920,-0.720
3555,-0.945,-0.715
3556,-0.980,-0.715
3557,-1.015,-0.720
3558,-1.030,-0.735
3559,-1.040,-0.725
3560,-1.035,-0.715
3561,-1.075,-0.720
3562,-1.125,-0.755
3563,-1.185,-0.765
3564,-1.220,-0.770
3565,-1.235,-0.740
3566,-1.205,-0.740
3567,-1.180,-0.735
3568,-1.140,-0.725
3569,-1.130,-0.760
3570,-1.145,-0.770
3571,-1.155,-0.775
3572,-1.185,-0.750
3573,-1.190,-0.720
3574,-1.180,-0.685
3575,-1.175,-0.670
3576,-1.160,-0.735
3577,-1.105,-0.800
3578,-0.995,-0.900
3579,-0.795,-1.035
3580,-0.460,-1.175
3581,0.025,-1.315
3582,0.610,-1.430
3583,1.240,-1.520
3584,1.840,-1.545
3585,2.265,-1.460
3586,2.415,-1.290
3587,2.185,-1.135
3588,1.460,-1.015
3589,0.540,-0.955
3590,-0.380,-0.920
3591,-1.300,-0.875
3592,-1.720,-0.820
3593,-1.270,-0.755
3594,-0.880,-0.740
3595,-0.745,-0.755
3596,-0.850,-0.735
3597,-1.025,-0.750
3598,-1.145,-0.745
3599,-1.150,-0.715
3600,-1.150,-0.700
3601,-1.120,-0.660
3602,-1.110,-0.665
3603,-1.100,-0.685
3604,-1.110,-0.720
3605,-1.125,-0.720
3606,-1.105,-0.720
3607,-1.135,-0.730
3608,-1.130,-0.705
3609,-1.110,-0.700
3610,-1.085,-0.680
3611,-1.055,-0.670
3612,-1.060,-0.680
3613,-1.035,-0.700
3614,-1.050,-0.695
3615,-1.055,-0.700
3616,-1.040,-0.700
3617,-1.025,-0.690
3618,-0.990,-0.685
3619,-0.985,-0.640
3620,-0.980,-0.665
3621,-0.965,-0.680
3622,-0.975,-0.695
3623,-0.945,-0.685
3624,-0.940,-0.665
3625,-0.930,-0.670
3626,-0.880,-0.610
3627,-0.850,-0.610
3628,-0.815,-0.605
3629,-0.810,-0.625
3630,-0.790,-0.640
3631,-0.775,-0.635
3632,-0.740,-0.630
3633,-0.690,-0.605
3634,-0.645,-0.570
3635,-0.580,-0.565
3636,-0.525,-0.580
3637,-0.490,-0.605
3638,-0.465,-0.605
3639,-0.440,-0.580
3640,-0.445,-0.555
3641,-0.425,-0.540
3642,-0.370,-0.520
3643,-0.310,-0.525
3644,-0.280,-0.530
3645,-0.265,-0.545
3646,-0.265,-0.570
3647,-0.265,-0.550
3648,-0.290,-0.550
3649,-0.310,-0.545
3650,-0.330,-0.550
3651,-0.385,-0.555
3652,-0.420,-0.575
3653,-0.480,-0.600
3654,-0.535,-0.645
3655,-0.595,-0.645
3656,-0.675,-0.655
3657,-0.740,-0.675
3658,-0.785,-0.675
3659,-0.835,-0.690
3660,-0.875,-0.720
3661,-0.925,-0.715
3662,-0.975,-0.710
3663,-1.015,-0.700
3664,-1.055,-0.695
3665,-1.075,-0.715
3666,-1.085,-0.715
3667,-1.085,-0.710
3668,-1.080,-0.690
3669,-1.095,-0.685
3670,-1.120,-0.715
3671,-1.130,-0.730
3672,-1.110,-0.750
3673,-1.120,-0.740
3674,-1.115,-0.740
3675,-1.120,-0.725
3676,-1.125,-0.705
3677,-1.110,-0.700
3678,-1.085,-0.705
3679,-1.100,-0.715
3680,-1.105,-0.725
3681,-1.110,-0.735
3682,-1.125,-0.725
3683,-1.105,-0.710
3684,-1.100,-0.700
3685,-1.070,-0.685
3686,-1.075,-0.675
3687,-1.065,-0.675
3688,-1.095,-0.700
3689,-1.100,-0.715
3690,-1.130,-0.715
3691,-1.120,-0.690
3692,-1.100,-0.670
3693,-1.080,-0.675
3694,-1.065,-0.700
3695,-1.070,-0.715
3696,-1.095,-0.725
3697,-1.120,-0.730
3698,-1.150,-0.695
3699,-1.150,-0.685
3700,-1.150,-0.680
3701,-1.130,-0.665
3702,-1.120,-0.645
3703,-1.115,-0.665
3704,-1.125,-0.700
3705,-1.135,-0.735
3706,-1.165,-0.750
3707,-1.190,-0.750
3708,-1.170,-0.730
3709,-1.150,-0.705
3710,-1.140,-0.675
3711,-1.170,-0.685
3712,-1.175,-0.715
3713,-1.180,-0.740
3714,-1.200,-0.735
3715,-1.200,-0.725
3716,-1.215,-0.715
3717,-1.205,-0.715
3718,-1.185,-0.705
3719,-1.155,-0.685
3720,-1.155,-0.695
3721,-1.160,-0.700
3722,-1.200,-0.720
3723,-1.230,-0.730
3724,-1.215,-0.735
3725,-1.210,-0.730
3726,-1.180,-0.685
3727,-1.170,-0.655
3728,-1.180,-0.655
3729,-1.160,-0.645
3730,-1.125,-0.645
3731,-1.125,-0.635
3732,-1.135,-0.635
3733,-1.120,-0.625
3734,-1.105,-0.625
3735,-1.075,-0.635
3736,-1.075,-0.650
3737,-1.080,-0.685
3738,-1.090,-0.695
3739,-1.060,-0.700
3740,-1.045,-0.700
3741,-1.025,-0.685
3742,-1.015,-0.680
3743,-1.025,-0.670
3744,-1.045,-0.680
3745,-1.075,-0.695
3746,-1.085,-0.705
3747,-1.105,-0.725
3748,-1.125,-0.710
3749,-1.135,-0.700
3750,-1.135,-0.690
3751,-1.145,-0.660
3752,-1.165,-0.695
3753,-1.205,-0.715
3754,-1.240,-0.725
3755,-1.275,-0.715
3756,-1.280,-0.705
3757,-1.280,-0.715
3758,-1.270,-0.715
3759,-1.255,-0.680
3760,-1.235,-0.660
3761,-1.225,-0.655
3762,-1.225,-0.675
3763,-1.215,-0.715
3764,-1.230,-0.755
3765,-1.190,-0.795
3766,-1.110,-0.855
3767,-0.915,-0.985
3768,-0.585,-1.110
3769,-0.065,-1.215
3770,0.580,-1.330
3771,1.290,-1.440
3772,1.920,-1.480
3773,2.300,-1.420
3774,2.330,-1.240
3775,2.290,-1.175
3776,1.060,-0.930
3777,0.140,-0.900
3778,-0.780,-0.875
3779,-1.705,-0.825
3780,-1.630,-0.745
3781,-1.225,-0.705
3782,-0.970,-0.660
3783,-0.960,-0.660
3784,-1.095,-0.660
3785,-1.200,-0.635
3786,-1.250,-0.640
3787,-1.245,-0.645
3788,-1.220,-0.675
3789,-1.195,-0.685
3790,-1.205,-0.675
3791,-1.200,-0.640
3792,-1.205,-0.625
3793,-1.185,-0.625
3794,-1.165,-0.650
3795,-1.150,-0.655
3796,-1.145,-0.660
3797,-1.130,-0.655
3798,-1.130,-0.650
3799,-1.125,-0.620
3800,-1.120,-0.615
3801,-1.110,-0.605
3802,-1.090,-0.610
3803,-1.065,-0.600
3804,-1.070,-0.605
3805,-1.080,-0.615
3806,-1.060,-0.635
3807,-1.040,-0.620
3808,-1.020,-0.590
3809,-0.980,-0.565
3810,-0.945,-0.570
3811,-0.915,-0.565
3812,-0.895,-0.555
3813,-0.875,-0.565
3814,-0.865,-0.555
3815,-0.845,-0.525
3816,-0.810,-0.525
3817,-0.760,-0.530
3818,-0.710,-0.520
3819,-0.670,-0.515
3820,-0.635,-0.515
3821,-0.610,-0.505
3822,-0.580,-0.490
3823,-0.560,-0.485
3824,-0.530,-0.470
3825,-0.515,-0.460
3826,-0.455,-0.445
3827,-0.440,-0.450
3828,-0.440,-0.480
3829,-0.430,-0.510
3830,-0.455,-0.525
3831,-0.480,-0.515
3832,-0.505,-0.500
3833,-0.510,-0.490
3834,-0.555,-0.475
3835,-0.590,-0.475
3836,-0.665,-0.500
3837,-0.730,-0.565
3838,-0.810,-0.600
3839,-0.890,-0.630
3840,-0.980,-0.640
3841,-1.030,-0.620
3842,-1.040,-0.605
3843,-1.055,-0.595
3844,-1.075,-0.590
3845,-1.130,-0.615
3846,-1.175,-0.640
3847,-1.200,-0.650
3848,-1.210,-0.645
3849,-1.220,-0.645
3850,-1.225,-0.640
3851,-1.220,-0.605
3852,-1.255,-0.590
3853,-1.255,-0.595
3854,-1.265,-0.620
3855,-1.270,-0.650
3856,-1.255,-0.660
3857,-1.255,-0.660
3858,-1.260,-0.640
3859,-1.240,-0.620
3860,-1.205,-0.595
3861,-1.210,-0.610
3862,-1.225,-0.635
3863,-1.255,-0.665
3864,-1.250,-0.665
3865,-1.250,-0.665
3866,-1.220,-0.650
3867,-1.210,-0.615
3868,-1.185,-0.605
3869,-1.195,-0.615
3870,-1.210,-0.635
3871,-1.220,-0.630
3872,-1.220,-0.625
3873,-1.220,-0.610
3874,-1.235,-0.605
3875,-1.240,-0.610
3876,-1.210,-0.630
3877,-1.195,-0.630
3878,-1.190,-0.640
3879,-1.200,-0.625
3880,-1.205,-0.635
3881,-1.235,-0.645
3882,-1.255,-0.665
3883,-1.245,-0.635
3884,-1.240,-0.635
3885,-1.215,-0.630
3886,-1.210,-0.635
3887,-1.220,-0.660
3888,-1.230,-0.665
3889,-1.260,-0.670
3890,-1.265,-0.650
3891,-1.285,-0.610
3892,-1.295,-0.605
3893,-1.295,-0.625
3894,-1.270,-0.660
3895,-1.230,-0.670
3896,-1.235,-0.675
3897,-1.235,-0.680
3898,-1.265,-0.670
3899,-1.285,-0.650
3900,-1.285,-0.635
3901,-1.285,-0.590
3902,-1.270,-0.615
3903,-1.270,-0.650
3904,-1.265,-0.660
3905,-1.280,-0.670
3906,-1.285,-0.660
3907,-1.295,-0.665
3908,-1.285,-0.660
3909,-1.270,-0.645
3910,-1.250,-0.630
3911,-1.235,-0.620
3912,-1.250,-0.650
3913,-1.270,-0.670
3914,-1.260,-0.665
3915,-1.240,-0.635
3916,-1.215,-0.600
3917,-1.185,-0.585
3918,-1.180,-0.575
3919,-1.155,-0.565
3920,-1.155,-0.590
3921,-1.145,-0.620
3922,-1.170,-0.625
3923,-1.175,-0.650
3924,-1.170,-0.655
3925,-1.160,-0.640
3926,-1.110,-0.655
3927,-1.070,-0.660
3928,-1.075,-0.670
3929,-1.070,-0.665
3930,-1.085,-0.655
3931,-1.095,-0.645
3932,-1.115,-0.665
3933,-1.125,-0.650
3934,-1.120,-0.655
3935,-1.105,-0.640
3936,-1.125,-0.655
3937,-1.165,-0.680
3938,-1.200,-0.700
3939,-1.235,-0.705
3940,-1.245,-0.685
3941,-1.260,-0.670
3942,-1.245,-0.680
3943,-1.235,-0.680
3944,-1.225,-0.690
3945,-1.245,-0.685
3946,-1.255,-0.690
3947,-1.265,-0.705
3948,-1.270,-0.695
3949,-1.250,-0.695
3950,-1.245,-0.680
3951,-1.215,-0.625
3952,-1.200,-0.650
3953,-1.170,-0.705
3954,-1.100,-0.795
3955,-0.960,-0.905
3956,-0.715,-1.010
3957,-0.390,-1.110
3958,0.065,-1.200
3959,0.575,-1.280
3960,1.190,-1.350
3961,1.750,-1.375
3962,2.090,-1.275
3963,2.065,-1.120
3964,1.505,-1.000
3965,0.585,-0.945
3966,-0.340,-0.895
3967,-1.260,-0.825
3968,-1.665,-0.740
3969,-1.310,-0.705
3970,-0.975,-0.695
3971,-0.850,-0.700
3972,-0.925,-0.715
3973,-1.055,-0.725
3974,-1.135,-0.685
3975,-1.155,-0.675
3976,-1.130,-0.640
3977,-1.105,-0.630
3978,-1.090,-0.645
3979,-1.095,-0.660
3980,-1.105,-0.680
3981,-1.100,-0.655
3982,-1.070,-0.645
3983,-1.055,-0.635
3984,-1.050,-0.640
3985,-1.040,-0.630
3986,-1.045,-0.645
3987,-1.045,-0.645
3988,-1.055,-0.660
3989,-1.035,-0.660
3990,-1.035,-0.665
3991,-1.030,-0.645
3992,-1.025,-0.630
3993,-0.995,-0.620
3994,-0.960,-0.610
3995,-0.930,-0.625
3996,-0.925,-0.665
3997,-0.925,-0.670
3998,-0.935,-0.695
3999,-0.920,-0.660
4000,-0.910,-0.655
4001,-0.845,-0.600
4002,-0.805,-0.570
4003,-0.775,-0.570
4004,-0.750,-0.580
4005,-0.740,-0.585
4006,-0.720,-0.610
4007,-0.685,-0.595
4008,-0.610,-0.575
4009,-0.555,-0.550
4010,-0.510,-0.515
4011,-0.495,-0.525
4012,-0.500,-0.540
4013,-0.470,-0.530
4014,-0.460,-0.510
4015,-0.420,-0.525
4016,-0.395,-0.495
4017,-0.365,-0.485
4018,-0.330,-0.480
4019,-0.300,-0.500
4020,-0.300,-0.535
4021,-0.330,-0.535
4022,-0.360,-0.525
4023,-0.380,-0.520
4024,-0.430,-0.535
4025,-0.450,-0.530
4026,-0.470,-0.570
4027,-0.495,-0.585
4028,-0.570,-0.610
4029,-0.660,-0.650
4030,-0.770,-0.690
4031,-0.835,-0.710
4032,-0.895,-0.710
4033,-0.930,-0.700
4034,-0.940,-0.700
4035,-0.945,-0.690
4036,-0.945,-0.690
4037,-0.970,-0.705
4038,-0.990,-0.720
4039,-1.000,-0.715
4040,-1.015,-0.710
4041,-1.045,-0.685
4042,-1.050,-0.700
4043,-1.060,-0.700
4044,-1.040,-0.690
4045,-1.050,-0.700
4046,-1.045,-0.710
4047,-1.040,-0.740
4048,-1.035,-0.770
4049,-1.040,-0.770
4050,-1.035,-0.755
4051,-1.030,-0.670
4052,-1.035,-0.655
4053,-1.040,-0.700
4054,-1.055,-0.735
4055,-1.045,-0.770
4056,-1.040,-0.760
4057,-1.035,-0.710
4058,-1.015,-0.670
4059,-1.015,-0.665
4060,-0.990,-0.695
4061,-0.980,-0.735
4062,-0.995,-0.730
4063,-1.005,-0.745
4064,-1.020,-0.755
4065,-1.030,-0.760
4066,-1.015,-0.760
4067,-1.000,-0.720
4068,-0.985,-0.670
4069,-0.980,-0.665
4070,-0.980,-0.690
4071,-0.985,-0.720
4072,-1.010,-0.735
4073,-1.045,-0.730
4074,-1.065,-0.735
4075,-1.075,-0.730
4076,-1.055,-0.730
4077,-1.045,-0.720
4078,-1.035,-0.730
4079,-1.030,-0.735
4080,-1.045,-0.745
4081,-1.065,-0.760
4082,-1.090,-0.765
4083,-1.080,-0.745
4084,-1.060,-0.730
4085,-1.060,-0.720
4086,-1.080,-0.715
4087,-1.065,-0.735
4088,-1.060,-0.765
4089,-1.060,-0.770
4090,-1.065,-0.770
4091,-1.070,-0.740
4092,-1.060,-0.730
4093,-1.050,-0.725
4094,-1.050,-0.740
4095,-1.055,-0.730
4096,-1.095,-0.760
4097,-1.120,-0.755
4098,-1.125,-0.755
4099,-1.095,-0.745
4100,-1.095,-0.740
4101,-1.075,-0.725
4102,-1.065,-0.730
4103,-1.055,-0.740
4104,-1.040,-0.715
4105,-1.000,-0.725
4106,-0.990,-0.695
4107,-1.000,-0.685
4108,-0.990,-0.670
4109,-0.985,-0.665
4110,-0.940,-0.655
4111,-0.930,-0.675
4112,-0.930,-0.700
4113,-0.920,-0.730
4114,-0.905,-0.750
4115,-0.875,-0.750
4116,-0.870,-0.745
4117,-0.865,-0.730
4118,-0.865,-0.730
4119,-0.845,-0.710
4120,-0.845,-0.715
4121,-0.860,-0.735
4122,-0.890,-0.750
4123,-0.955,-0.740
4124,-0.990,-0.735
4125,-1.005,-0.735
4126,-1.035,-0.715
4127,-1.050,-0.725
4128,-1.080,-0.730
4129,-1.115,-0.750
4130,-1.165,-0.775
4131,-1.150,-0.765
4132,-1.135,-0.770
4133,-1.110,-0.735
4134,-1.100,-0.720
4135,-1.075,-0.695
4136,-1.065,-0.705
4137,-1.070,-0.725
4138,-1.085,-0.745
4139,-1.095,-0.760
4140,-1.090,-0.795
4141,-1.055,-0.820
4142,-0.945,-0.905
4143,-0.760,-1.015
4144,-0.420,-1.140
4145,0.030,-1.275
4146,0.575,-1.410
4147,1.200,-1.510
4148,1.815,-1.590
4149,2.260,-1.570
4150,2.375,-1.560
4151,2.450,-1.320
4152,2.170,-1.160
4153,1.460,-1.025
4154,0.535,-0.965
4155,-0.385,-0.930
4156,-1.305,-0.895
4157,-1.540,-0.825
4158,-1.090,-0.780
4159,-0.770,-0.750
4160,-0.715,-0.740
4161,-0.845,-0.725
4162,-1.010,-0.720
4163,-1.100,-0.730
4164,-1.130,-0.720
4165,-1.105,-0.720
4166,-1.075,-0.710
4167,-1.060,-0.705
4168,-1.055,-0.695
4169,-1.045,-0.715
4170,-1.050,-0.715
4171,-1.045,-0.720
4172,-1.055,-0.720
4173,-1.050,-0.715
4174,-1.045,-0.685
4175,-1.035,-0.675
4176,-0.995,-0.675
4177,-0.965,-0.670
4178,-0.965,-0.690
4179,-0.990,-0.695
4180,-1.000,-0.675
4181,-0.985,-0.670
4182,-0.995,-0.665
4183,-0.965,-0.665
4184,-0.945,-0.660
4185,-0.905,-0.645
4186,-0.875,-0.635
4187,-0.870,-0.660
4188,-0.885,-0.675
4189,-0.880,-0.675
4190,-0.875,-0.650
4191,-0.840,-0.615
4192,-0.810,-0.600
4193,-0.740,-0.585
4194,-0.690,-0.580
4195,-0.650,-0.575
4196,-0.630,-0.585
4197,-0.620,-0.590
4198,-0.595,-0.600
4199,-0.555,-0.585
4200,-0.545,-0.580
4201,-0.440,-0.525
4202,-0.380,-0.505
4203,-0.340,-0.495
4204,-0.335,-0.525
4205,-0.325,-0.540
4206,-0.335,-0.550
4207,-0.335,-0.545
4208,-0.335,-0.530
4209,-0.305,-0.515
4210,-0.280,-0.495
4211,-0.280,-0.530
4212,-0.300,-0.565
4213,-0.340,-0.595
4214,-0.380,-0.605
4215,-0.430,-0.620
4216,-0.505,-0.630
4217,-0.565,-0.625
4218,-0.630,-0.645
4219,-0.680,-0.665
4220,-0.780,-0.685
4221,-0.840,-0.695
4222,-0.900,-0.710
4223,-0.935,-0.720
4224,-0.970,-0.740
4225,-0.965,-0.740
4226,-0.985,-0.725
4227,-1.010,-0.725
4228,-1.020,-0.725
4229,-1.030,-0.710
4230,-1.030,-0.740
4231,-1.055,-0.755
4232,-1.065,-0.745
4233,-1.065,-0.735
4234,-1.060,-0.710
4235,-1.055,-0.690
4236,-1.055,-0.730
4237,-1.065,-0.755
4238,-1.055,-0.765
4239,-1.045,-0.765
4240,-1.040,-0.725
4241,-1.035,-0.705
4242,-1.035,-0.710
4243,-1.040,-0.705
4244,-1.035,-0.730
4245,-1.040,-0.750
4246,-1.045,-0.755
4247,-1.050,-0.750
4248,-1.060,-0.740
4249,-1.065,-0.745
4250,-1.070,-0.740
4251,-1.045,-0.705
4252,-1.020,-0.675
4253,-1.010,-0.705
4254,-1.010,-0.730
4255,-1.005,-0.735
4256,-1.025,-0.750
4257,-1.050,-0.755
4258,-1.065,-0.740
4259,-1.050,-0.730
4260,-1.045,-0.725
4261,-1.045,-0.720
4262,-1.050,-0.735
4263,-1.055,-0.740
4264,-1.060,-0.740
4265,-1.070,-0.725
4266,-1.075,-0.725
4267,-1.080,-0.725
4268,-1.080,-0.715
4269,-1.070,-0.725
4270,-1.060,-0.745
4271,-1.070,-0.755
4272,-1.085,-0.745
4273,-1.100,-0.745
4274,-1.130,-0.755
4275,-1.130,-0.750
4276,-1.095,-0.745
4277,-1.075,-0.740
4278,-1.080,-0.735
4279,-1.100,-0.750
4280,-1.120,-0.745
4281,-1.135,-0.735
4282,-1.135,-0.750
4283,-1.120,-0.760
4284,-1.110,-0.750
4285,-1.110,-0.760
4286,-1.115,-0.750
4287,-1.145,-0.730
4288,-1.140,-0.740
4289,-1.145,-0.725
4290,-1.140,-0.725
4291,-1.145,-0.740
4292,-1.130,-0.725
4293,-1.110,-0.710
4294,-1.085,-0.685
4295,-1.075,-0.695
4296,-1.080,-0.720
4297,-1.075,-0.735
4298,-1.060,-0.720
4299,-1.050,-0.700
4300,-1.040,-0.690
4301,-1.025,-0.680
4302,-1.015,-0.690
4303,-1.015,-0.670
4304,-0.990,-0.695
4305,-0.980,-0.700
4306,-0.955,-0.725
4307,-0.935,-0.755
4308,-0.920,-0.750
4309,-0.910,-0.730
4310,-0.890,-0.675
4311,-0.900,-0.645
4312,-0.930,-0.655
4313,-0.965,-0.680
4314,-0.995,-0.710
4315,-1.000,-0.730
4316,-1.015,-0.735
4317,-1.035,-0.740
4318,-1.080,-0.745
4319,-1.095,-0.750
4320,-1.125,-0.760
4321,-1.155,-0.775
4322,-1.180,-0.755
4323,-1.195,-0.720
4324,-1.200,-0.725
4325,-1.190,-0.725
4326,-1.175,-0.735
4327,-1.160,-0.735
4328,-1.145,-0.725
4329,-1.140,-0.720
4330,-1.135,-0.715
4331,-1.145,-0.700
4332,-1.150,-0.720
4333,-1.155,-0.765
4334,-1.110,-0.835
4335,-0.975,-0.940
4336,-0.735,-1.060
4337,-0.350,-1.190
4338,0.155,-1.300
4339,0.750,-1.415
4340,1.350,-1.520
4341,1.900,-1.570
4342,2.265,-1.540
4343,2.425,-1.405
4344,2.325,-1.215
4345,1.895,-1.060
4346,1.025,-0.960
4347,0.100,-0.925
4348,-0.820,-0.885
4349,-1.535,-0.820
4350,-1.655,-0.795
4351,-1.010,-0.690
4352,-0.770,-0.675
4353,-0.785,-0.685
4354,-0.935,-0.710
4355,-1.095,-0.725
4356,-1.170,-0.740
4357,-1.175,-0.720
4358,-1.135,-0.695
4359,-1.095,-0.670
4360,-1.085,-0.660
4361,-1.075,-0.660
4362,-1.090,-0.675
4363,-1.115,-0.690
4364,-1.145,-0.685
4365,-1.130,-0.685
4366,-1.100,-0.665
4367,-1.070,-0.665
4368,-1.040,-0.665
4369,-1.035,-0.665
4370,-1.035,-0.690
4371,-1.020,-0.695
4372,-1.015,-0.685
4373,-1.015,-0.665
4374,-1.025,-0.655
4375,-1.030,-0.650
4376,-0.995,-0.625
4377,-0.980,-0.615
4378,-0.965,-0.625
4379,-0.940,-0.640
4380,-0.925,-0.640
4381,-0.910,-0.645
4382,-0.910,-0.645
4383,-0.900,-0.610
4384,-0.865,-0.600
4385,-0.795,-0.580
4386,-0.750,-0.605
4387,-0.720,-0.625
4388,-0.705,-0.610
4389,-0.690,-0.605
4390,-0.675,-0.595
4391,-0.645,-0.565
4392,-0.570,-0.550
4393,-0.530,-0.540
4394,-0.490,-0.510
4395,-0.440,-0.525
4396,-0.425,-0.545
4397,-0.380,-0.560
4398,-0.355,-0.550
4399,-0.325,-0.565
4400,-0.315,-0.555
4401,-0.285,-0.515
4402,-0.275,-0.515
4403,-0.270,-0.535
4404,-0.290,-0.550
4405,-0.315,-0.570
4406,-0.340,-0.575
4407,-0.370,-0.570
4408,-0.390,-0.565
4409,-0.415,-0.570
4410,-0.470,-0.590
4411,-0.545,-0.610
4412,-0.630,-0.615
4413,-0.695,-0.645
4414,-0.770,-0.670
4415,-0.855,-0.705
4416,-0.925,-0.715
4417,-0.945,-0.700
4418,-0.960,-0.675
4419,-0.985,-0.665
4420,-1.015,-0.675
4421,-1.050,-0.710
4422,-1.080,-0.725
4423,-1.100,-0.730
4424,-1.110,-0.705
4425,-1.115,-0.695
4426,-1.095,-0.695
4427,-1.085,-0.695
4428,-1.110,-0.720
4429,-1.115,-0.720
4430,-1.105,-0.705
4431,-1.100,-0.725
4432,-1.125,-0.730
4433,-1.150,-0.715
4434,-1.150,-0.705
4435,-1.125,-0.680
4436,-1.100,-0.685
4437,-1.060,-0.700
4438,-1.065,-0.735
4439,-1.070,-0.750
4440,-1.090,-0.740
4441,-1.100,-0.695
4442,-1.100,-0.675
4443,-1.090,-0.645
4444,-1.055,-0.670
4445,-1.045,-0.680
4446,-1.050,-0.685
4447,-1.080,-0.715
4448,-1.105,-0.715
4449,-1.115,-0.705
4450,-1.120,-0.700
4451,-1.100,-0.655
4452,-1.100,-0.645
4453,-1.095,-0.665
4454,-1.090,-0.700
4455,-1.085,-0.715
4456,-1.100,-0.735
4457,-1.140,-0.715
4458,-1.145,-0.710
4459,-1.145,-0.695
4460,-1.135,-0.690
4461,-1.115,-0.695
4462,-1.115,-0.715
4463,-1.120,-0.725
4464,-1.140,-0.720
4465,-1.160,-0.705
4466,-1.170,-0.680
4467,-1.175,-0.675
4468,-1.170,-0.690
4469,-1.170,-0.695
4470,-1.165,-0.690
4471,-1.160,-0.695
4472,-1.165,-0.735
4473,-1.165,-0.760
4474,-1.185,-0.730
4475,-1.190,-0.715
4476,-1.185,-0.700
4477,-1.175,-0.680
4478,-1.180,-0.685
4479,-1.190,-0.710
4480,-1.195,-0.725
4481,-1.200,-0.740
4482,-1.195,-0.735
4483,-1.195,-0.720
4484,-1.165,-0.705
4485,-1.155,-0.700
4486,-1.180,-0.690
4487,-1.200,-0.690
4488,-1.245,-0.705
4489,-1.250,-0.705
4490,-1.215,-0.690
4491,-1.195,-0.660
4492,-1.105,-0.645
4493,-1.060,-0.635
4494,-1.045,-0.620
4495,-1.075,-0.625
4496,-1.110,-0.650
4497,-1.115,-0.670
4498,-1.120,-0.695
4499,-1.095,-0.690
4500,-1.090,-0.690
4501,-1.050,-0.685
4502,-1.025,-0.690
4503,-0.990,-0.700
4504,-1.010,-0.710
4505,-1.035,-0.710
4506,-1.035,-0.720
4507,-1.060,-0.740
4508,-1.090,-0.730
4509,-1.085,-0.730
4510,-1.110,-0.705
4511,-1.135,-0.705
4512,-1.185,-0.715
4513,-1.205,-0.730
4514,-1.225,-0.755
4515,-1.245,-0.740
4516,-1.260,-0.735
4517,-1.265,-0.725
4518,-1.280,-0.745
4519,-1.270,-0.735
4520,-1.255,-0.735
4521,-1.265,-0.735
4522,-1.275,-0.715
4523,-1.280,-0.700
4524,-1.290,-0.680
4525,-1.295,-0.675
4526,-1.255,-0.705
4527,-1.215,-0.735
4528,-1.125,-0.825
4529,-0.975,-0.955
4530,-0.680,-1.120
4531,-0.260,-1.300
4532,0.275,-1.405
4533,0.925,-1.510
4534,1.605,-1.540
4535,2.135,-1.485
4536,2.370,-1.335
4537,2.195,-1.150
4538,1.495,-1.010
4539,0.575,-0.950
4540,-0.345,-0.935
4541,-1.270,-0.865
4542,-1.795,-0.805
4543,-1.395,-0.735
4544,-1.010,-0.705
4545,-0.870,-0.675
4546,-0.980,-0.680
4547,-1.165,-0.705
4548,-1.290,-0.720
4549,-1.325,-0.705
4550,-1.330,-0.695
4551,-1.265,-0.645
4552,-1.255,-0.630
4553,-1.250,-0.640
4554,-1.280,-0.665
4555,-1.280,-0.680
4556,-1.275,-0.675
4557,-1.255,-0.675
4558,-1.255,-0.670
4559,-1.225,-0.665
4560,-1.200,-0.640
4561,-1.180,-0.640
4562,-1.180,-0.630
4563,-1.165,-0.635
4564,-1.180,-0.640
4565,-1.195,-0.645
4566,-1.200,-0.625
4567,-1.185,-0.615
4568,-1.165,-0.610
4569,-1.120,-0.605
4570,-1.095,-0.615
4571,-1.080,-0.645
4572,-1.070,-0.645
4573,-1.055,-0.650
4574,-1.040,-0.625
4575,-1.040,-0.615
4576,-1.005,-0.580
4577,-0.980,-0.565
4578,-0.960,-0.590
4579,-0.930,-0.595
4580,-0.905,-0.590
4581,-0.870,-0.595
4582,-0.845,-0.585
4583,-0.810,-0.560
4584,-0.755,-0.545
4585,-0.690,-0.505
4586,-0.655,-0.500
4587,-0.625,-0.500
4588,-0.615,-0.510
4589,-0.615,-0.535
4590,-0.580,-0.545
4591,-0.565,-0.545
4592,-0.520,-0.495
4593,-0.480,-0.435
4594,-0.445,-0.445
4595,-0.455,-0.480
4596,-0.480,-0.535
4597,-0.535,-0.570
4598,-0.575,-0.590
4599,-0.620,-0.580
4600,-0.640,-0.580
4601,-0.740,-0.585
4602,-0.825,-0.575
4603,-0.890,-0.585
4604,-0.960,-0.615
4605,-0.995,-0.640
4606,-1.050,-0.675
4607,-1.080,-0.700
4608,-1.125,-0.685
4609,-1.160,-0.655
4610,-1.170,-0.630
4611,-1.185,-0.640
4612,-1.220,-0.670
4613,-1.260,-0.690
4614,-1.265,-0.710
4615,-1.280,-0.685
4616,-1.285,-0.665
4617,-1.265,-0.650
4618,-1.260,-0.650
4619,-1.255,-0.650
4620,-1.255,-0.660
4621,-1.250,-0.650
4622,-1.250,-0.645
4623,-1.280,-0.645
4624,-1.295,-0.670
4625,-1.300,-0.680
4626,-1.280,-0.660
4627,-1.260,-0.645
4628,-1.230,-0.640
4629,-1.210,-0.650
4630,-1.225,-0.675
4631,-1.240,-0.695
4632,-1.255,-0.685
4633,-1.275,-0.665
4634,-1.270,-0.635
4635,-1.250,-0.630
4636,-1.245,-0.655
4637,-1.250,-0.655
4638,-1.250,-0.670
4639,-1.280,-0.680
4640,-1.290,-0.675
4641,-1.295,-0.670
4642,-1.285,-0.645
4643,-1.265,-0.640
4644,-1.235,-0.625
4645,-1.250,-0.665
4646,-1.285,-0.675
4647,-1.315,-0.660
4648,-1.330,-0.670
4649,-1.335,-0.675
4650,-1.335,-0.670
4651,-1.325,-0.645
4652,-1.305,-0.630
4653,-1.295,-0.635
4654,-1.290,-0.640
4655,-1.320,-0.665
4656,-1.350,-0.685
4657,-1.385,-0.665
4658,-1.370,-0.660
4659,-1.355,-0.665
4660,-1.350,-0.680
4661,-1.355,-0.675
4662,-1.355,-0.655
4663,-1.340,-0.660
4664,-1.350,-0.685
4665,-1.355,-0.705
4666,-1.365,-0.715
4667,-1.355,-0.695
4668,-1.365,-0.670
4669,-1.335,-0.670
4670,-1.340,-0.675
4671,-1.365,-0.695
4672,-1.390,-0.695
4673,-1.395,-0.680
4674,-1.385,-0.680
4675,-1.390,-0.690
4676,-1.330,-0.700
4677,-1.295,-0.680
4678,-1.290,-0.660
4679,-1.295,-0.630
4680,-1.280,-0.640
4681,-1.275,-0.655
4682,-1.275,-0.640
4683,-1.280,-0.625
4684,-1.255,-0.615
4685,-1.250,-0.615
4686,-1.225,-0.610
4687,-1.210,-0.635
4688,-1.180,-0.655
4689,-1.165,-0.695
4690,-1.155,-0.705
4691,-1.160,-0.695
4692,-1.160,-0.690
4693,-1.150,-0.660
4694,-1.165,-0.655
4695,-1.160,-0.680
4696,-1.180,-0.715
4697,-1.210,-0.740
4698,-1.250,-0.740
4699,-1.285,-0.730
4700,-1.295,-0.720
4701,-1.320,-0.715
4702,-1.335,-0.695
4703,-1.335,-0.720
4704,-1.345,-0.715
4705,-1.350,-0.715
4706,-1.355,-0.715
4707,-1.350,-0.730
4708,-1.345,-0.735
4709,-1.320,-0.730
4710,-1.310,-0.690
4711,-1.295,-0.675
4712,-1.295,-0.685
4713,-1.300,-0.700
4714,-1.305,-0.720
4715,-1.275,-0.760
4716,-1.210,-0.840
4717,-1.020,-0.915
4718,-0.725,-1.020
4719,-0.270,-1.140
4720,0.280,-1.255
4721,0.905,-1.375
4722,1.515,-1.420
4723,1.985,-1.370
4724,2.125,-1.190
4725,2.120,-1.125
4726,0.995,-0.900
4727,0.075,-0.880
4728,-0.845,-0.890
4729,-1.770,-0.860
4730,-1.850,-0.805
4731,-1.425,-0.755
4732,-1.115,-0.720
4733,-1.025,-0.720
4734,-1.075,-0.710
4735,-1.185,-0.700
4736,-1.240,-0.695
4737,-1.255,-0.675
4738,-1.245,-0.675
4739,-1.240,-0.705
4740,-1.245,-0.710
4741,-1.245,-0.720
4742,-1.235,-0.680
4743,-1.225,-0.665
4744,-1.200,-0.640
4745,-1.205,-0.660
4746,-1.215,-0.665
4747,-1.215,-0.695
4748,-1.190,-0.695
4749,-1.205,-0.685
4750,-1.210,-0.680
4751,-1.150,-0.640
4752,-1.120,-0.625
4753,-1.085,-0.640
4754,-1.090,-0.665
4755,-1.100,-0.660
4756,-1.095,-0.655
4757,-1.100,-0.675
4758,-1.100,-0.655
4759,-1.080,-0.645
4760,-1.020,-0.615
4761,-0.995,-0.590
4762,-0.975,-0.580
4763,-0.975,-0.605
4764,-0.955,-0.640
4765,-0.920,-0.640
4766,-0.885,-0.620
4767,-0.855,-0.615
4768,-0.810,-0.600
4769,-0.775,-0.565
4770,-0.755,-0.565
4771,-0.715,-0.570
4772,-0.670,-0.580
4773,-0.625,-0.595
4774,-0.585,-0.570
4775,-0.575,-0.560
4776,-0.520,-0.530
4777,-0.495,-0.520
4778,-0.480,-0.510
4779,-0.465,-0.540
4780,-0.455,-0.560
4781,-0.440,-0.570
4782,-0.435,-0.570
4783,-0.450,-0.530
4784,-0.450,-0.515
4785,-0.435,-0.505
4786,-0.435,-0.505
4787,-0.470,-0.525
4788,-0.565,-0.600
4789,-0.640,-0.620
4790,-0.735,-0.635
4791,-0.825,-0.650
4792,-0.865,-0.655
4793,-0.925,-0.665
4794,-0.975,-0.645
4795,-1.010,-0.650
4796,-1.050,-0.675
4797,-1.090,-0.695
4798,-1.115,-0.715
4799,-1.130,-0.710
4800,-1.150,-0.705
4801,-1.160,-0.675
4802,-1.170,-0.685
4803,-1.165,-0.700
4804,-1.190,-0.730
4805,-1.200,-0.740
4806,-1.205,-0.730
4807,-1.215,-0.715
4808,-1.205,-0.715
4809,-1.185,-0.715
4810,-1.165,-0.710
4811,-1.180,-0.700
4812,-1.190,-0.695
4813,-1.180,-0.695
4814,-1.170,-0.720
4815,-1.150,-0.720
4816,-1.145,-0.730
4817,-1.145,-0.700
4818,-1.140,-0.675
4819,-1.145,-0.670
4820,-1.130,-0.695
4821,-1.135,-0.720
4822,-1.130,-0.745
4823,-1.140,-0.735
4824,-1.145,-0.745
4825,-1.145,-0.740
4826,-1.135,-0.700
4827,-1.140,-0.690
4828,-1.130,-0.695
4829,-1.130,-0.685
4830,-1.150,-0.695
4831,-1.175,-0.685
4832,-1.200,-0.705
4833,-1.195,-0.725
4834,-1.180,-0.760
4835,-1.160,-0.735
4836,-1.155,-0.710
4837,-1.165,-0.695
4838,-1.170,-0.710
4839,-1.205,-0.730
4840,-1.205,-0.735
4841,-1.230,-0.735
4842,-1.230,-0.720
4843,-1.215,-0.710
4844,-1.195,-0.690
4845,-1.210,-0.715
4846,-1.225,-0.715
4847,-1.220,-0.735
4848,-1.215,-0.740
4849,-1.205,-0.720
4850,-1.215,-0.720
4851,-1.225,-0.720
4852,-1.220,-0.730
4853,-1.205,-0.730
4854,-1.200,-0.725
4855,-1.205,-0.725
4856,-1.200,-0.740
4857,-1.210,-0.745
4858,-1.230,-0.730
4859,-1.240,-0.705
4860,-1.245,-0.690
4861,-1.235,-0.680
4862,-1.245,-0.695
4863,-1.245,-0.720
4864,-1.245,-0.760
4865,-1.250,-0.755
4866,-1.265,-0.750
4867,-1.250,-0.720
4868,-1.210,-0.690
4869,-1.200,-0.655
4870,-1.180,-0.650
4871,-1.160,-0.670
4872,-1.145,-0.690
4873,-1.140,-0.695
4874,-1.150,-0.685
4875,-1.155,-0.690
4876,-1.120,-0.665
4877,-1.095,-0.655
4878,-1.080,-0.640
4879,-1.095,-0.660
4880,-1.075,-0.680
4881,-1.045,-0.720
4882,-1.030,-0.745
4883,-1.020,-0.745
4884,-1.030,-0.715
4885,-1.035,-0.680
4886,-1.035,-0.665
4887,-1.040,-0.660
4888,-1.025,-0.695
4889,-1.030,-0.710
4890,-1.070,-0.720
4891,-1.105,-0.710
4892,-1.145,-0.735
4893,-1.180,-0.725
4894,-1.195,-0.725
4895,-1.200,-0.715
4896,-1.225,-0.725
4897,-1.265,-0.750
4898,-1.300,-0.750
4899,-1.305,-0.755
4900,-1.295,-0.745
4901,-1.285,-0.705
4902,-1.270,-0.695
4903,-1.260,-0.720
4904,-1.265,-0.730
4905,-1.265,-0.735
4906,-1.280,-0.740
4907,-1.275,-0.740
4908,-1.270,-0.740
4909,-1.250,-0.770
4910,-1.185,-0.810
4911,-1.110,-0.865
4912,-0.965,-0.970
4913,-0.710,-1.100
4914,-0.305,-1.220
4915,0.190,-1.335
4916,0.785,-1.440
4917,1.395,-1.500
4918,1.940,-1.525
4919,2.290,-1.440
4920,2.385,-1.295
4921,2.130,-1.140
4922,1.400,-1.040
4923,0.480,-0.990
4924,-0.440,-0.985
4925,-0.725,-0.975
4926,-1.885,-0.835
4927,-1.470,-0.765
4928,-1.055,-0.715
4929,-0.870,-0.710
4930,-0.930,-0.745
4931,-1.075,-0.765
4932,-1.195,-0.760
4933,-1.235,-0.730
4934,-1.225,-0.710
4935,-1.200,-0.680
4936,-1.185,-0.680
4937,-1.205,-0.705
4938,-1.210,-0.715
4939,-1.220,-0.725
4940,-1.240,-0.720
4941,-1.235,-0.690
4942,-1.200,-0.675
4943,-1.180,-0.660
4944,-1.150,-0.645
4945,-1.130,-0.670
4946,-1.115,-0.690
4947,-1.140,-0.710
4948,-1.155,-0.710
4949,-1.145,-0.695
4950,-1.140,-0.690
4951,-1.090,-0.665
4952,-1.045,-0.640
4953,-1.030,-0.645
4954,-1.030,-0.675
4955,-1.045,-0.680
4956,-1.035,-0.685
4957,-1.020,-0.640
4958,-1.025,-0.645
4959,-1.005,-0.630
4960,-0.965,-0.635
4961,-0.935,-0.635
4962,-0.895,-0.640
4963,-0.860,-0.645
4964,-0.805,-0.630
4965,-0.785,-0.605
4966,-0.755,-0.570
4967,-0.735,-0.555
4968,-0.700,-0.555
4969,-0.660,-0.550
4970,-0.605,-0.555
4971,-0.565,-0.565
4972,-0.535,-0.550
4973,-0.495,-0.545
4974,-0.465,-0.555
4975,-0.455,-0.560
4976,-0.390,-0.530
4977,-0.360,-0.520
4978,-0.335,-0.510
4979,-0.335,-0.530
4980,-0.325,-0.550
4981,-0.345,-0.565
4982,-0.405,-0.565
4983,-0.435,-0.585
4984,-0.435,-0.565
4985,-0.470,-0.565
4986,-0.495,-0.580
4987,-0.580,-0.625
4988,-0.670,-0.675
4989,-0.770,-0.695
4990,-0.850,-0.705
4991,-0.910,-0.720
4992,-0.940,-0.700
4993,-0.990,-0.705
4994,-1.015,-0.690
4995,-1.040,-0.700
4996,-1.070,-0.705
4997,-1.110,-0.725
4998,-1.155,-0.740
4999,-1.165,-0.755
5000,-1.170,-0.765
5001,-1.180,-0.745
5002,-1.190,-0.730
5003,-1.180,-0.730
5004,-1.180,-0.730
5005,-1.185,-0.745
5006,-1.205,-0.765
5007,-1.210,-0.755
5008,-1.215,-0.760
5009,-1.190,-0.735
5010,-1.155,-0.720
5011,-1.125,-0.695
5012,-1.130,-0.695
5013,-1.140,-0.720
5014,-1.165,-0.730
5015,-1.150,-0.755
5016,-1.150,-0.755
5017,-1.165,-0.730
5018,-1.160,-0.695
5019,-1.155,-0.685
5020,-1.140,-0.695
5021,-1.140,-0.695
5022,-1.165,-0.700
5023,-1.165,-0.735
5024,-1.165,-0.735
5025,-1.160,-0.740
5026,-1.155,-0.735
5027,-1.150,-0.720
5028,-1.135,-0.720
5029,-1.145,-0.735
5030,-1.165,-0.745
5031,-1.180,-0.770
5032,-1.180,-0.775
5033,-1.185,-0.745
5034,-1.185,-0.730
5035,-1.220,-0.715
5036,-1.210,-0.715
5037,-1.195,-0.720
5038,-1.205,-0.730
5039,-1.225,-0.730
5040,-1.255,-0.730
5041,-1.255,-0.760
5042,-1.255,-0.750
5043,-1.230,-0.740
5044,-1.205,-0.710
5045,-1.205,-0.700
5046,-1.225,-0.715
5047,-1.255,-0.760
5048,-1.280,-0.760
5049,-1.280,-0.760
5050,-1.285,-0.755
5051,-1.240,-0.715
5052,-1.220,-0.715
5053,-1.215,-0.725
5054,-1.225,-0.725
5055,-1.230,-0.735
5056,-1.220,-0.745
5057,-1.225,-0.755
5058,-1.225,-0.745
5059,-1.245,-0.750
5060,-1.260,-0.745
5061,-1.250,-0.730
5062,-1.250,-0.705
5063,-1.230,-0.720
5064,-1.210,-0.745
5065,-1.190,-0.740
5066,-1.180,-0.720
5067,-1.155,-0.700
5068,-1.140,-0.685
5069,-1.100,-0.660
5070,-1.080,-0.650
5071,-1.080,-0.670
5072,-1.100,-0.690
5073,-1.115,-0.705
5074,-1.100,-0.715
5075,-1.090,-0.710
5076,-1.030,-0.720
5077,-1.025,-0.710
5078,-1.005,-0.710
5079,-1.025,-0.705
5080,-1.050,-0.710
5081,-1.070,-0.725
5082,-1.080,-0.750
5083,-1.100,-0.765
5084,-1.110,-0.745
5085,-1.110,-0.755
5086,-1.120,-0.745
5087,-1.140,-0.770
5088,-1.195,-0.765
5089,-1.240,-0.765
5090,-1.295,-0.765
5091,-1.320,-0.755
5092,-1.315,-0.765
5093,-1.305,-0.755
5094,-1.290,-0.740
5095,-1.265,-0.750
5096,-1.255,-0.760
5097,-1.270,-0.760
5098,-1.280,-0.745
5099,-1.285,-0.715
5100,-1.280,-0.705
5101,-1.285,-0.705
5102,-1.250,-0.770
5103,-1.165,-0.870
5104,-0.985,-1.035
5105,-0.650,-1.210
5106,-0.150,-1.365
5107,0.490,-1.475
5108,1.215,-1.550
5109,1.860,-1.560
5110,2.250,-1.445
5111,2.315,-1.245
5112,1.910,-1.075
5113,1.060,-0.985
5114,0.140,-0.985
5115,-0.780,-0.980
5116,-1.685,-0.920
5117,-1.765,-0.825
5118,-1.265,-0.750
5119,-0.910,-0.730
5120,-0.820,-0.740
5121,-0.955,-0.775
5122,-1.135,-0.780
5123,-1.265,-0.770
5124,-1.275,-0.740
5125,-1.275,-0.730
5126,-1.215,-0.680
5127,-1.215,-0.690
5128,-1.205,-0.705
5129,-1.195,-0.715
5130,-1.190,-0.700
5131,-1.170,-0.690
5132,-1.175,-0.690
5133,-1.195,-0.690
5134,-1.200,-0.695
5135,-1.200,-0.695
5136,-1.170,-0.685
5137,-1.160,-0.680
5138,-1.140,-0.690
5139,-1.130,-0.705
5140,-1.135,-0.685
5141,-1.145,-0.675
5142,-1.135,-0.665
5143,-1.095,-0.645
5144,-1.045,-0.660
5145,-1.020,-0.660
5146,-1.020,-0.670
5147,-1.020,-0.700
5148,-1.045,-0.690
5149,-1.025,-0.685
5150,-1.010,-0.670
5151,-0.970,-0.645
5152,-0.935,-0.625
5153,-0.905,-0.630
5154,-0.865,-0.635
5155,-0.815,-0.625
5156,-0.810,-0.640
5157,-0.785,-0.655
5158,-0.755,-0.615
5159,-0.700,-0.610
5160,-0.650,-0.585
5161,-0.595,-0.570
5162,-0.575,-0.585
5163,-0.560,-0.575
5164,-0.540,-0.595
5165,-0.505,-0.615
5166,-0.470,-0.615
5167,-0.430,-0.570
5168,-0.410,-0.535
5169,-0.380,-0.520
5170,-0.370,-0.530
5171,-0.390,-0.560
5172,-0.375,-0.585
5173,-0.400,-0.610
5174,-0.425,-0.605
5175,-0.435,-0.615
5176,-0.500,-0.615
5177,-0.550,-0.625
5178,-0.615,-0.635
5179,-0.665,-0.660
5180,-0.720,-0.695
5181,-0.780,-0.705
5182,-0.815,-0.725
5183,-0.880,-0.695
5184,-0.955,-0.690
5185,-1.020,-0.710
5186,-1.050,-0.725
5187,-1.090,-0.735
5188,-1.105,-0.750
5189,-1.115,-0.785
5190,-1.140,-0.775
5191,-1.185,-0.760
5192,-1.205,-0.750
5193,-1.200,-0.730
5194,-1.185,-0.705
5195,-1.165,-0.730
5196,-1.135,-0.750
5197,-1.150,-0.770
5198,-1.160,-0.775
5199,-1.175,-0.780
5200,-1.175,-0.775
5201,-1.200,-0.735
5202,-1.180,-0.705
5203,-1.170,-0.725
5204,-1.170,-0.735
5205,-1.175,-0.760
5206,-1.170,-0.780
5207,-1.180,-0.780
5208,-1.170,-0.740
5209,-1.160,-0.730
5210,-1.160,-0.715
5211,-1.145,-0.745
5212,-1.140,-0.740
5213,-1.135,-0.755
5214,-1.160,-0.765
5215,-1.190,-0.740
5216,-1.215,-0.740
5217,-1.205,-0.715
5218,-1.205,-0.705
5219,-1.190,-0.700
5220,-1.185,-0.725
5221,-1.185,-0.755
5222,-1.195,-0.765
5223,-1.210,-0.755
5224,-1.230,-0.755
5225,-1.235,-0.745
5226,-1.240,-0.740
5227,-1.230,-0.730
5228,-1.215,-0.745
5229,-1.230,-0.745
5230,-1.245,-0.760
5231,-1.255,-0.780
5232,-1.265,-0.795
5233,-1.280,-0.810
5234,-1.275,-0.800
5235,-1.270,-0.780
5236,-1.245,-0.775
5237,-1.250,-0.765
5238,-1.255,-0.780
5239,-1.285,-0.790
5240,-1.285,-0.795
5241,-1.300,-0.800
5242,-1.310,-0.785
5243,-1.300,-0.775
5244,-1.285,-0.770
5245,-1.265,-0.785
5246,-1.250,-0.790
5247,-1.260,-0.795
5248,-1.270,-0.785
5249,-1.290,-0.775
5250,-1.295,-0.765
5251,-1.330,-0.740
5252,-1.315,-0.730
5253,-1.295,-0.730
5254,-1.270,-0.755
5255,-1.250,-0.750
5256,-1.245,-0.755
5257,-1.235,-0.755
5258,-1.230,-0.735
5259,-1.220,-0.720
5260,-1.220,-0.715
5261,-1.215,-0.710
5262,-1.210,-0.710
5263,-1.185,-0.740
5264,-1.175,-0.755
5265,-1.180,-0.775
5266,-1.165,-0.775
5267,-1.140,-0.790
5268,-1.095,-0.770
5269,-1.070,-0.755
5270,-1.070,-0.745
5271,-1.105,-0.750
5272,-1.160,-0.780
5273,-1.195,-0.790
5274,-1.215,-0.795
5275,-1.205,-0.790
5276,-1.185,-0.785
5277,-1.195,-0.775
5278,-1.230,-0.780
5279,-1.280,-0.800
5280,-1.335,-0.820
5281,-1.340,-0.830
5282,-1.360,-0.805
5283,-1.325,-0.790
5284,-1.300,-0.785
5285,-1.305,-0.790
5286,-1.300,-0.780
5287,-1.310,-0.790
5288,-1.295,-0.795
5289,-1.285,-0.755
5290,-1.285,-0.740
5291,-1.325,-0.745
5292,-1.345,-0.775
5293,-1.285,-0.860
5294,-1.080,-0.980
5295,-0.715,-1.110
5296,-0.145,-1.245
5297,0.560,-1.380
5298,1.325,-1.455
5299,1.925,-1.480
5300,2.075,-1.485
5301,2.295,-1.265
5302,1.920,-1.095
5303,1.035,-1.005
5304,0.110,-0.970
5305,-0.810,-0.960
5306,-1.670,-0.900
5307,-1.635,-0.835
5308,-1.265,-0.800
5309,-1.050,-0.785
5310,-1.040,-0.760
5311,-1.150,-0.755
5312,-1.260,-0.770
5313,-1.310,-0.760
5314,-1.305,-0.775
5315,-1.305,-0.770
5316,-1.305,-0.760
5317,-1.310,-0.730
5318,-1.295,-0.705
5319,-1.265,-0.690
5320,-1.265,-0.710
5321,-1.255,-0.715
5322,-1.255,-0.740
5323,-1.255,-0.750
5324,-1.265,-0.745
5325,-1.270,-0.755
5326,-1.270,-0.725
5327,-1.240,-0.675
5328,-1.195,-0.660
5329,-1.180,-0.675
5330,-1.170,-0.705
5331,-1.195,-0.720
5332,-1.210,-0.740
5333,-1.195,-0.725
5334,-1.175,-0.720
5335,-1.140,-0.705
5336,-1.100,-0.690
5337,-1.090,-0.690
5338,-1.075,-0.695
5339,-1.055,-0.705
5340,-1.040,-0.695
5341,-1.020,-0.690
5342,-0.985,-0.675
5343,-0.935,-0.675
5344,-0.910,-0.660
5345,-0.880,-0.625
5346,-0.860,-0.605
5347,-0.830,-0.630
5348,-0.800,-0.635
5349,-0.760,-0.635
5350,-0.745,-0.630
5351,-0.695,-0.600
5352,-0.650,-0.585
5353,-0.615,-0.570
5354,-0.590,-0.590
5355,-0.575,-0.610
5356,-0.580,-0.615
5357,-0.595,-0.620
5358,-0.590,-0.605
5359,-0.610,-0.580
5360,-0.615,-0.580
5361,-0.615,-0.605
5362,-0.625,-0.630
5363,-0.665,-0.640
5364,-0.735,-0.645
5365,-0.820,-0.655
5366,-0.925,-0.670
5367,-1.000,-0.690
5368,-1.025,-0.690
5369,-1.045,-0.700
5370,-1.095,-0.700
5371,-1.140,-0.730
5372,-1.195,-0.760
5373,-1.240,-0.780
5374,-1.270,-0.795
5375,-1.290,-0.800
5376,-1.300,-0.770
5377,-1.300,-0.760
5378,-1.300,-0.775
5379,-1.315,-0.790
5380,-1.310,-0.805
5381,-1.335,-0.795
5382,-1.355,-0.770
5383,-1.375,-0.750
5384,-1.385,-0.745
5385,-1.370,-0.755
5386,-1.350,-0.755
5387,-1.340,-0.770
5388,-1.330,-0.775
5389,-1.325,-0.775
5390,-1.350,-0.775
5391,-1.360,-0.775
5392,-1.360,-0.785
5393,-1.345,-0.775
5394,-1.340,-0.760
5395,-1.315,-0.765
5396,-1.300,-0.775
5397,-1.300,-0.780
5398,-1.315,-0.790
5399,-1.350,-0.775
5400,-1.345,-0.770
5401,-1.335,-0.790
5402,-1.325,-0.800
5403,-1.295,-0.800
5404,-1.315,-0.815
5405,-1.325,-0.810
5406,-1.345,-0.805
5407,-1.355,-0.795
5408,-1.360,-0.795
5409,-1.350,-0.795
5410,-1.335,-0.795
5411,-1.310,-0.775
5412,-1.305,-0.780
5413,-1.320,-0.785
5414,-1.345,-0.815
5415,-1.375,-0.835
5416,-1.390,-0.840
5417,-1.370,-0.830
5418,-1.345,-0.820
5419,-1.330,-0.790
5420,-1.315,-0.780
5421,-1.345,-0.810
5422,-1.385,-0.840
5423,-1.385,-0.860
5424,-1.385,-0.870
5425,-1.380,-0.875
5426,-1.350,-0.825
5427,-1.340,-0.835
5428,-1.330,-0.845
5429,-1.340,-0.835
5430,-1.360,-0.845
5431,-1.360,-0.855
5432,-1.360,-0.850
5433,-1.365,-0.850
5434,-1.365,-0.850
5435,-1.335,-0.855
5436,-1.310,-0.850
5437,-1.305,-0.850
5438,-1.315,-0.845
5439,-1.325,-0.845
5440,-1.330,-0.835
5441,-1.330,-0.840
5442,-1.330,-0.845
5443,-1.325,-0.835
5444,-1.290,-0.810
5445,-1.265,-0.810
5446,-1.240,-0.795
5447,-1.250,-0.810
5448,-1.230,-0.815
5449,-1.235,-0.805
5450,-1.220,-0.805
5451,-1.190,-0.790
5452,-1.195,-0.795
5453,-1.170,-0.790
5454,-1.180,-0.800
5455,-1.160,-0.795
5456,-1.145,-0.810
5457,-1.130,-0.840
5458,-1.135,-0.845
5459,-1.135,-0.825
5460,-1.090,-0.790
5461,-1.090,-0.770
5462,-1.075,-0.790
5463,-1.080,-0.825
5464,-1.110,-0.870
5465,-1.130,-0.885
5466,-1.140,-0.870
5467,-1.180,-0.845
5468,-1.215,-0.825
5469,-1.240,-0.810
5470,-1.280,-0.820
5471,-1.285,-0.825
5472,-1.305,-0.860
5473,-1.300,-0.875
5474,-1.295,-0.875
5475,-1.305,-0.880
5476,-1.275,-0.875
5477,-1.260,-0.855
5478,-1.230,-0.835
5479,-1.235,-0.790
5480,-1.245,-0.800
5481,-1.270,-0.795
5482,-1.265,-0.805
5483,-1.270,-0.855
5484,-1.220,-0.910
5485,-1.060,-1.010
5486,-0.780,-1.120
5487,-0.370,-1.225
5488,0.160,-1.325
5489,0.715,-1.440
5490,1.265,-1.530
5491,1.775,-1.575
5492,2.100,-1.495
5493,2.220,-1.330
5494,1.935,-1.170
5495,1.175,-1.075
5496,0.255,-1.035
5497,-0.670,-1.020
5498,-1.545,-0.975
5499,-1.670,-0.890
5500,-1.565,-0.870
5501,-1.015,-0.805
5502,-0.950,-0.800
5503,-1.035,-0.805
5504,-1.160,-0.820
5505,-1.235,-0.825
5506,-1.250,-0.825
5507,-1.265,-0.810
5508,-1.255,-0.810
5509,-1.250,-0.810
5510,-1.220,-0.805
5511,-1.185,-0.800
5512,-1.165,-0.790
5513,-1.150,-0.775
5514,-1.165,-0.785
5515,-1.195,-0.795
5516,-1.215,-0.810
5517,-1.210,-0.785
5518,-1.180,-0.760
5519,-1.155,-0.750
5520,-1.140,-0.750
5521,-1.150,-0.760
5522,-1.150,-0.770
5523,-1.145,-0.785
5524,-1.135,-0.790
5525,-1.140,-0.795
5526,-1.120,-0.775
5527,-1.085,-0.745
5528,-1.020,-0.730
5529,-1.000,-0.725
5530,-0.990,-0.715
5531,-0.995,-0.740
5532,-1.000,-0.760
5533,-0.995,-0.755
5534,-0.950,-0.740
5535,-0.910,-0.700
5536,-0.845,-0.680
5537,-0.810,-0.685
5538,-0.775,-0.700
5539,-0.755,-0.720
5540,-0.710,-0.715
5541,-0.680,-0.695
5542,-0.630,-0.670
5543,-0.575,-0.645
5544,-0.545,-0.625
5545,-0.525,-0.625
5546,-0.525,-0.630
5547,-0.505,-0.645
5548,-0.505,-0.665
5549,-0.500,-0.665
5550,-0.500,-0.665
5551,-0.485,-0.640
5552,-0.480,-0.620
5553,-0.480,-0.625
5554,-0.515,-0.655
5555,-0.565,-0.680
5556,-0.625,-0.710
5557,-0.695,-0.730
5558,-0.780,-0.720
5559,-0.840,-0.725
5560,-0.855,-0.740
5561,-0.875,-0.765
5562,-0.920,-0.785
5563,-0.970,-0.810
5564,-1.035,-0.840
5565,-1.085,-0.835
5566,-1.135,-0.855
5567,-1.165,-0.840
5568,-1.190,-0.840
5569,-1.220,-0.830
5570,-1.210,-0.820
5571,-1.220,-0.805
5572,-1.215,-0.810
5573,-1.235,-0.840
5574,-1.260,-0.850
5575,-1.265,-0.845
5576,-1.245,-0.830
5577,-1.230,-0.830
5578,-1.215,-0.825
5579,-1.240,-0.830
5580,-1.245,-0.845
5581,-1.250,-0.860
5582,-1.230,-0.870
5583,-1.225,-0.850
5584,-1.205,-0.835
5585,-1.190,-0.830
5586,-1.170,-0.850
5587,-1.155,-0.860
5588,-1.165,-0.870
5589,-1.185,-0.880
5590,-1.205,-0.865
5591,-1.220,-0.875
5592,-1.210,-0.865
5593,-1.165,-0.850
5594,-1.155,-0.840
5595,-1.145,-0.830
5596,-1.165,-0.830
5597,-1.170,-0.845
5598,-1.185,-0.865
5599,-1.200,-0.880
5600,-1.210,-0.875
5601,-1.180,-0.860
5602,-1.170,-0.840
5603,-1.165,-0.830
5604,-1.190,-0.845
5605,-1.195,-0.865
5606,-1.210,-0.880
5607,-1.215,-0.885
5608,-1.225,-0.885
5609,-1.220,-0.885
5610,-1.225,-0.880
5611,-1.210,-0.860
5612,-1.195,-0.855
5613,-1.205,-0.870
5614,-1.235,-0.885
5615,-1.250,-0.910
5616,-1.265,-0.935
5617,-1.245,-0.920
5618,-1.220,-0.885
5619,-1.200,-0.865
5620,-1.200,-0.855
5621,-1.225,-0.870
5622,-1.240,-0.895
5623,-1.260,-0.895
5624,-1.280,-0.900
5625,-1.290,-0.895
5626,-1.275,-0.870
5627,-1.240,-0.865
5628,-1.215,-0.870
5629,-1.220,-0.895
5630,-1.240,-0.885
5631,-1.260,-0.900
5632,-1.280,-0.915
5633,-1.300,-0.905
5634,-1.295,-0.890
5635,-1.270,-0.870
5636,-1.235,-0.845
5637,-1.205,-0.850
5638,-1.165,-0.860
5639,-1.155,-0.870
5640,-1.145,-0.875
5641,-1.135,-0.850
5642,-1.135,-0.855
5643,-1.110,-0.830
5644,-1.110,-0.835
5645,-1.110,-0.835
5646,-1.110,-0.865
5647,-1.090,-0.890
5648,-1.075,-0.925
5649,-1.065,-0.910
5650,-1.060,-0.895
5651,-1.080,-0.890
5652,-1.075,-0.880
5653,-1.060,-0.890
5654,-1.065,-0.920
5655,-1.080,-0.955
5656,-1.115,-0.970
5657,-1.130,-0.965
5658,-1.185,-0.925
5659,-1.205,-0.915
5660,-1.230,-0.925
5661,-1.260,-0.930
5662,-1.280,-0.925
5663,-1.290,-0.940
5664,-1.270,-0.930
5665,-1.265,-0.940
5666,-1.260,-0.945
5667,-1.280,-0.955
5668,-1.275,-0.940
5669,-1.270,-0.900
5670,-1.245,-0.865
5671,-1.230,-0.855
5672,-1.240,-0.900
5673,-1.255,-0.955
5674,-1.245,-1.030
5675,-1.230,-1.060
5676,-0.895,-1.275
5677,-0.480,-1.395
5678,0.090,-1.510
5679,0.755,-1.625
5680,1.455,-1.715
5681,2.005,-1.730
5682,2.325,-1.645
5683,2.335,-1.475
5684,2.045,-1.310
5685,1.305,-1.210
5686,0.385,-1.160
5687,-0.535,-1.140
5688,-1.460,-1.110
5689,-1.755,-1.075
5690,-1.380,-1.015
5691,-1.020,-0.965
5692,-0.910,-0.965
5693,-0.985,-0.960
5694,-1.100,-0.940
5695,-1.205,-0.940
5696,-1.240,-0.940
5697,-1.230,-0.950
5698,-1.225,-0.965
5699,-1.220,-0.970
5700,-1.225,-0.965
5701,-1.195,-0.935
5702,-1.185,-0.905
5703,-1.180,-0.900
5704,-1.195,-0.910
5705,-1.195,-0.915
5706,-1.195,-0.920
5707,-1.185,-0.930
5708,-1.190,-0.915
5709,-1.180,-0.925
5710,-1.160,-0.920
5711,-1.125,-0.910
5712,-1.110,-0.905
5713,-1.090,-0.915
5714,-1.080,-0.925
5715,-1.090,-0.945
5716,-1.065,-0.950
5717,-1.070,-0.930
5718,-1.040,-0.900
5719,-1.015,-0.885
5720,-0.990,-0.895
5721,-0.980,-0.895
5722,-0.955,-0.905
5723,-0.920,-0.905
5724,-0.905,-0.935
5725,-0.890,-0.940
5726,-0.835,-0.905
5727,-0.800,-0.845
5728,-0.735,-0.825
5729,-0.700,-0.850
5730,-0.670,-0.870
5731,-0.630,-0.890
5732,-0.580,-0.880
5733,-0.540,-0.870
5734,-0.530,-0.845
5735,-0.495,-0.815
5736,-0.485,-0.795
5737,-0.465,-0.810
5738,-0.475,-0.820
5739,-0.450,-0.850
5740,-0.450,-0.855
5741,-0.460,-0.865
5742,-0.470,-0.870
5743,-0.480,-0.855
5744,-0.475,-0.865
5745,-0.510,-0.880
5746,-0.575,-0.915
5747,-0.665,-0.940
5748,-0.730,-0.960
5749,-0.805,-0.980
5750,-0.820,-0.990
5751,-0.915,-0.990
5752,-0.950,-1.010
5753,-0.975,-1.015
5754,-1.015,-1.045
5755,-1.055,-1.060
5756,-1.095,-1.080
5757,-1.115,-1.095
5758,-1.135,-1.100
5759,-1.145,-1.105
5760,-1.150,-1.085
5761,-1.150,-1.070
5762,-1.150,-1.055
5763,-1.160,-1.055
5764,-1.170,-1.080
5765,-1.205,-1.095
5766,-1.215,-1.115
5767,-1.215,-1.100
5768,-1.200,-1.085
5769,-1.185,-1.070
5770,-1.175,-1.070
5771,-1.170,-1.085
5772,-1.170,-1.110
5773,-1.165,-1.125
5774,-1.180,-1.110
5775,-1.185,-1.105
5776,-1.215,-1.095
5777,-1.190,-1.075
5778,-1.155,-1.050
5779,-1.140,-1.060
5780,-1.130,-1.085
5781,-1.145,-1.115
5782,-1.155,-1.140
5783,-1.160,-1.145
5784,-1.155,-1.130
5785,-1.150,-1.100
5786,-1.140,-1.085
5787,-1.125,-1.085
5788,-1.110,-1.095
5789,-1.125,-1.115
5790,-1.160,-1.125
5791,-1.195,-1.150
5792,-1.210,-1.130
5793,-1.210,-1.105
5794,-1.170,-1.105
5795,-1.160,-1.095
5796,-1.170,-1.120
5797,-1.205,-1.130
5798,-1.225,-1.150
5799,-1.245,-1.155
5800,-1.250,-1.160
5801,-1.230,-1.135
5802,-1.185,-1.130
5803,-1.160,-1.130
5804,-1.170,-1.140
5805,-1.195,-1.150
5806,-1.235,-1.165
5807,-1.255,-1.175
5808,-1.240,-1.155
5809,-1.245,-1.145
5810,-1.220,-1.130
5811,-1.230,-1.135
5812,-1.225,-1.145
5813,-1.220,-1.165
5814,-1.230,-1.175
5815,-1.225,-1.165
5816,-1.245,-1.170
5817,-1.265,-1.175
5818,-1.275,-1.165
5819,-1.255,-1.155
5820,-1.215,-1.145
5821,-1.210,-1.140
5822,-1.205,-1.170
5823,-1.220,-1.180
5824,-1.240,-1.185
5825,-1.245,-1.195
5826,-1.205,-1.140
5827,-1.160,-1.105
5828,-1.130,-1.105
5829,-1.120,-1.100
5830,-1.125,-1.115
5831,-1.130,-1.155
5832,-1.135,-1.160
5833,-1.150,-1.150
5834,-1.140,-1.140
5835,-1.110,-1.130
5836,-1.070,-1.145
5837,-1.040,-1.160
5838,-1.045,-1.175
5839,-1.060,-1.185
5840,-1.075,-1.190
5841,-1.105,-1.180
5842,-1.100,-1.185
5843,-1.085,-1.160
5844,-1.110,-1.165
5845,-1.120,-1.160
5846,-1.120,-1.185
5847,-1.135,-1.210
5848,-1.175,-1.235
5849,-1.200,-1.235
5850,-1.220,-1.235
5851,-1.250,-1.205
5852,-1.275,-1.200
5853,-1.270,-1.205
5854,-1.275,-1.210
5855,-1.275,-1.235
5856,-1.300,-1.245
5857,-1.325,-1.250
5858,-1.320,-1.230
5859,-1.300,-1.200
5860,-1.260,-1.185
5861,-1.240,-1.175
5862,-1.235,-1.185
5863,-1.260,-1.215
5864,-1.250,-1.270
5865,-1.175,-1.360
5866,-1.020,-1.480
5867,-0.700,-1.605
5868,-0.230,-1.715
5869,0.365,-1.830
5870,1.050,-1.940
5871,1.695,-2.010
5872,2.155,-1.975
5873,2.340,-1.835
5874,2.180,-1.670
5875,2.085,-1.620
5876,0.760,-1.475
5877,-0.160,-1.460
5878,-1.080,-1.435
5879,-1.845,-1.375
5880,-1.740,-1.300
5881,-1.300,-1.275
5882,-0.980,-1.260
5883,-0.920,-1.250
5884,-1.030,-1.255
5885,-1.155,-1.240
5886,-1.230,-1.225
5887,-1.220,-1.210
5888,-1.245,-1.210
5889,-1.240,-1.215
5890,-1.245,-1.235
5891,-1.235,-1.220
5892,-1.215,-1.200
5893,-1.210,-1.180
5894,-1.195,-1.160
5895,-1.200,-1.170
5896,-1.200,-1.190
5897,-1.215,-1.210
5898,-1.220,-1.205
5899,-1.225,-1.210
5900,-1.220,-1.220
5901,-1.175,-1.165
5902,-1.165,-1.175
5903,-1.160,-1.150
5904,-1.120,-1.145
5905,-1.105,-1.160
5906,-1.085,-1.175
5907,-1.080,-1.165
5908,-1.090,-1.150
5909,-1.090,-1.135
5910,-1.055,-1.120
5911,-1.010,-1.105
5912,-0.980,-1.110
5913,-0.960,-1.105
5914,-0.965,-1.115
5915,-0.955,-1.120
5916,-0.945,-1.120
5917,-0.930,-1.115
5918,-0.885,-1.080
5919,-0.855,-1.055
5920,-0.790,-1.055
5921,-0.745,-1.065
5922,-0.715,-1.070
5923,-0.700,-1.085
5924,-0.680,-1.080
5925,-0.675,-1.070
5926,-0.630,-1.040
5927,-0.585,-1.025
5928,-0.530,-1.010
5929,-0.485,-1.005
5930,-0.475,-1.005
5931,-0.450,-1.015
5932,-0.435,-1.015
5933,-0.430,-1.030
5934,-0.425,-1.020
5935,-0.415,-1.015
5936,-0.395,-1.005
5937,-0.395,-1.005
5938,-0.415,-1.020
5939,-0.435,-1.040
5940,-0.475,-1.055
5941,-0.545,-1.080
5942,-0.595,-1.075
5943,-0.650,-1.085
5944,-0.720,-1.105
5945,-0.770,-1.120
5946,-0.815,-1.130
5947,-0.870,-1.135
5948,-0.955,-1.155
5949,-1.010,-1.155
5950,-1.030,-1.155
5951,-1.095,-1.175
5952,-1.115,-1.160
5953,-1.120,-1.160
5954,-1.135,-1.165
5955,-1.150,-1.190
5956,-1.170,-1.215
5957,-1.175,-1.215
5958,-1.195,-1.225
5959,-1.225,-1.215
5960,-1.210,-1.195
5961,-1.205,-1.175
5962,-1.185,-1.180
5963,-1.160,-1.185
5964,-1.165,-1.185
5965,-1.170,-1.190
5966,-1.170,-1.175
5967,-1.200,-1.165
5968,-1.220,-1.180
5969,-1.210,-1.160
5970,-1.170,-1.175
5971,-1.140,-1.185
5972,-1.130,-1.205
5973,-1.130,-1.205
5974,-1.155,-1.195
5975,-1.170,-1.195
5976,-1.180,-1.170
5977,-1.155,-1.150
5978,-1.135,-1.145
5979,-1.130,-1.145
5980,-1.140,-1.150
5981,-1.150,-1.160
5982,-1.160,-1.185
5983,-1.170,-1.180
5984,-1.175,-1.175
5985,-1.165,-1.150
5986,-1.155,-1.130
5987,-1.135,-1.140
5988,-1.130,-1.155
5989,-1.150,-1.200
5990,-1.190,-1.185
5991,-1.200,-1.175
5992,-1.205,-1.155
5993,-1.200,-1.140
5994,-1.185,-1.130
5995,-1.170,-1.140
5996,-1.175,-1.145
5997,-1.170,-1.155
5998,-1.180,-1.165
5999,-1.185,-1.155
6000,-1.190,-1.150
6001,-1.225,-1.150
6002,-1.245,-1.140
6003,-1.255,-1.120
6004,-1.225,-1.110
6005,-1.195,-1.130
6006,-1.210,-1.160
6007,-1.225,-1.170
6008,-1.225,-1.145
6009,-1.220,-1.140
6010,-1.210,-1.120
6011,-1.225,-1.110
6012,-1.235,-1.120
6013,-1.255,-1.125
6014,-1.250,-1.155
6015,-1.230,-1.140
6016,-1.220,-1.140
6017,-1.225,-1.135
6018,-1.235,-1.120
6019,-1.205,-1.130
6020,-1.185,-1.095
6021,-1.190,-1.100
6022,-1.195,-1.080
6023,-1.200,-1.090
6024,-1.185,-1.095
6025,-1.190,-1.085
6026,-1.135,-1.070
6027,-1.105,-1.060
6028,-1.105,-1.035
6029,-1.095,-1.055
6030,-1.110,-1.050
6031,-1.125,-1.075
6032,-1.155,-1.105
6033,-1.130,-1.100
6034,-1.080,-1.105
6035,-1.055,-1.085
6036,-1.040,-1.070
6037,-1.030,-1.050
6038,-1.055,-1.090
6039,-1.070,-1.115
6040,-1.085,-1.125
6041,-1.090,-1.125
6042,-1.125,-1.125
6043,-1.165,-1.085
6044,-1.190,-1.070
6045,-1.205,-1.060
6046,-1.225,-1.085
6047,-1.230,-1.125
6048,-1.270,-1.140
6049,-1.285,-1.130
6050,-1.295,-1.120
6051,-1.300,-1.120
6052,-1.300,-1.110
6053,-1.280,-1.110
6054,-1.250,-1.085
6055,-1.245,-1.060
6056,-1.260,-1.030
6057,-1.295,-1.045
6058,-1.325,-1.080
6059,-1.315,-1.115
6060,-1.225,-1.175
6061,-1.045,-1.280
6062,-0.750,-1.430
6063,-0.280,-1.585
6064,0.330,-1.740
6065,1.065,-1.840
6066,1.755,-1.875
6067,2.220,-1.785
6068,2.395,-1.605
6069,2.150,-1.435
6070,1.415,-1.315
6071,0.495,-1.300
6072,-0.430,-1.290
6073,-1.345,-1.270
6074,-1.765,-1.205
6075,-1.660,-1.180
6076,-0.975,-1.120
6077,-0.835,-1.070
6078,-0.905,-1.055
6079,-1.065,-1.050
6080,-1.190,-1.055
6081,-1.255,-1.075
6082,-1.270,-1.075
6083,-1.255,-1.060
6084,-1.250,-1.055
6085,-1.225,-1.020
6086,-1.215,-1.000
6087,-1.210,-0.985
6088,-1.215,-0.975
6089,-1.230,-0.975
6090,-1.230,-0.995
6091,-1.225,-1.005
6092,-1.210,-1.010
6093,-1.185,-1.010
6094,-1.170,-0.975
6095,-1.170,-0.970
6096,-1.170,-0.970
6097,-1.160,-0.985
6098,-1.145,-1.005
6099,-1.130,-1.015
6100,-1.130,-1.010
6101,-1.145,-1.000
6102,-1.125,-0.965
6103,-1.105,-0.925
6104,-1.070,-0.900
6105,-1.050,-0.905
6106,-1.040,-0.930
6107,-1.020,-0.960
6108,-1.000,-0.940
6109,-0.980,-0.930
6110,-0.950,-0.915
6111,-0.905,-0.905
6112,-0.865,-0.900
6113,-0.810,-0.885
6114,-0.780,-0.890
6115,-0.740,-0.890
6116,-0.720,-0.890
6117,-0.695,-0.875
6118,-0.645,-0.835
6119,-0.590,-0.800
6120,-0.540,-0.770
6121,-0.520,-0.775
6122,-0.510,-0.810
6123,-0.485,-0.830
6124,-0.465,-0.830
6125,-0.460,-0.835
6126,-0.445,-0.795
6127,-0.430,-0.795
6128,-0.415,-0.795
6129,-0.415,-0.795
6130,-0.430,-0.810
6131,-0.475,-0.835
6132,-0.515,-0.835
6133,-0.585,-0.855
6134,-0.660,-0.860
6135,-0.720,-0.865
6136,-0.760,-0.875
6137,-0.805,-0.885
6138,-0.865,-0.910
6139,-0.925,-0.935
6140,-0.995,-0.950
6141,-1.045,-0.960
6142,-1.095,-0.950
6143,-1.115,-0.940
6144,-1.125,-0.940
6145,-1.130,-0.935
6146,-1.150,-0.945
6147,-1.180,-0.970
6148,-1.205,-0.965
6149,-1.225,-0.945
6150,-1.220,-0.940
6151,-1.215,-0.935
6152,-1.215,-0.935
6153,-1.215,-0.925
6154,-1.195,-0.905
6155,-1.195,-0.930
6156,-1.205,-0.940
6157,-1.200,-0.955
6158,-1.210,-0.950
6159,-1.195,-0.930
6160,-1.180,-0.920
6161,-1.170,-0.910
6162,-1.155,-0.900
6163,-1.160,-0.900
6164,-1.180,-0.900
6165,-1.200,-0.915
6166,-1.210,-0.925
6167,-1.210,-0.920
6168,-1.200,-0.890
6169,-1.185,-0.875
6170,-1.165,-0.865
6171,-1.155,-0.875
6172,-1.165,-0.890
6173,-1.190,-0.915
6174,-1.200,-0.915
6175,-1.205,-0.910
6176,-1.230,-0.895
6177,-1.215,-0.880
6178,-1.180,-0.870
6179,-1.185,-0.860
6180,-1.215,-0.870
6181,-1.245,-0.890
6182,-1.265,-0.895
6183,-1.270,-0.910
6184,-1.275,-0.900
6185,-1.265,-0.900
6186,-1.245,-0.885
6187,-1.215,-0.885
6188,-1.215,-0.875
6189,-1.205,-0.870
6190,-1.215,-0.865
6191,-1.250,-0.875
6192,-1.310,-0.870
6193,-1.320,-0.860
6194,-1.325,-0.870
6195,-1.275,-0.865
6196,-1.255,-0.870
6197,-1.265,-0.890
6198,-1.270,-0.915
6199,-1.305,-0.920
6200,-1.325,-0.915
6201,-1.325,-0.890
6202,-1.315,-0.845
6203,-1.305,-0.835
6204,-1.300,-0.850
6205,-1.300,-0.870
6206,-1.300,-0.875
6207,-1.320,-0.875
6208,-1.315,-0.860
6209,-1.325,-0.830
6210,-1.300,-0.810
6211,-1.290,-0.800
6212,-1.250,-0.805
6213,-1.210,-0.795
6214,-1.205,-0.785
6215,-1.205,-0.785
6216,-1.230,-0.785
6217,-1.225,-0.780
6218,-1.210,-0.775
6219,-1.175,-0.760
6220,-1.150,-0.760
6221,-1.135,-0.775
6222,-1.130,-0.830
6223,-1.145,-0.840
6224,-1.170,-0.835
6225,-1.175,-0.830
6226,-1.180,-0.780
6227,-1.180,-0.760
6228,-1.205,-0.770
6229,-1.185,-0.780
6230,-1.185,-0.795
6231,-1.210,-0.815
6232,-1.255,-0.825
6233,-1.290,-0.820
6234,-1.315,-0.820
6235,-1.345,-0.780
6236,-1.370,-0.770
6237,-1.370,-0.780
6238,-1.345,-0.785
6239,-1.340,-0.800
6240,-1.360,-0.805
6241,-1.365,-0.795
6242,-1.370,-0.775
6243,-1.340,-0.760
6244,-1.325,-0.750
6245,-1.310,-0.720
6246,-1.320,-0.715
6247,-1.325,-0.750
6248,-1.305,-0.825
6249,-1.205,-0.915
6250,-1.155,-0.955
6251,-0.555,-1.145
6252,-0.015,-1.235
6253,0.615,-1.320
6254,1.270,-1.405
6255,1.845,-1.440
6256,2.215,-1.385
6257,2.325,-1.240
6258,2.050,-1.085
6259,1.300,-0.960
6260,0.380,-0.920
6261,-0.540,-0.905
6262,-1.430,-0.855
6263,-1.705,-0.785
6264,-1.360,-0.740
6265,-1.085,-0.725
6266,-0.985,-0.735
6267,-1.075,-0.730
6268,-1.195,-0.725
6269,-1.265,-0.700
6270,-1.290,-0.660
6271,-1.290,-0.675
6272,-1.280,-0.670
6273,-1.300,-0.690
6274,-1.290,-0.680
6275,-1.295,-0.675
6276,-1.290,-0.650
6277,-1.270,-0.630
6278,-1.255,-0.630
6279,-1.245,-0.630
6280,-1.255,-0.645
6281,-1.250,-0.640
6282,-1.235,-0.655
6283,-1.225,-0.660
6284,-1.215,-0.645
6285,-1.200,-0.630
6286,-1.165,-0.625
6287,-1.150,-0.620
6288,-1.135,-0.605
6289,-1.155,-0.595
6290,-1.170,-0.610
6291,-1.180,-0.615
6292,-1.170,-0.615
6293,-1.120,-0.595
6294,-1.090,-0.585
6295,-1.050,-0.575
6296,-1.030,-0.565
6297,-1.010,-0.550
6298,-1.015,-0.565
6299,-1.015,-0.585
6300,-1.010,-0.580
6301,-0.980,-0.540
6302,-0.930,-0.515
6303,-0.875,-0.490
6304,-0.820,-0.495
6305,-0.755,-0.495
6306,-0.720,-0.505
6307,-0.690,-0.500
6308,-0.665,-0.485
6309,-0.625,-0.470
6310,-0.590,-0.460
6311,-0.555,-0.435
6312,-0.510,-0.410
6313,-0.505,-0.420
6314,-0.495,-0.420
6315,-0.490,-0.445
6316,-0.490,-0.475
6317,-0.525,-0.460
6318,-0.550,-0.435
6319,-0.600,-0.420
6320,-0.670,-0.430
6321,-0.725,-0.460
6322,-0.800,-0.485
6323,-0.875,-0.510
6324,-0.945,-0.510
6325,-0.975,-0.520
6326,-1.025,-0.550
6327,-1.045,-0.535
6328,-1.065,-0.525
6329,-1.105,-0.525
6330,-1.155,-0.535
6331,-1.205,-0.550
6332,-1.245,-0.590
6333,-1.270,-0.585
6334,-1.275,-0.585
6335,-1.285,-0.570
6336,-1.275,-0.555
6337,-1.265,-0.535
6338,-1.260,-0.545
6339,-1.235,-0.565
6340,-1.265,-0.570
6341,-1.270,-0.575
6342,-1.290,-0.565
6343,-1.305,-0.565
6344,-1.300,-0.540
6345,-1.280,-0.550
6346,-1.265,-0.550
6347,-1.255,-0.545
6348,-1.245,-0.555
6349,-1.255,-0.550
6350,-1.265,-0.555
6351,-1.285,-0.535
6352,-1.275,-0.525
6353,-1.250,-0.515
6354,-1.230,-0.500
6355,-1.230,-0.505
6356,-1.255,-0.530
6357,-1.285,-0.565
6358,-1.280,-0.560
6359,-1.285,-0.560
6360,-1.260,-0.505
6361,-1.230,-0.470
6362,-1.220,-0.455
6363,-1.245,-0.485
6364,-1.270,-0.500
6365,-1.290,-0.520
6366,-1.310,-0.525
6367,-1.310,-0.510
6368,-1.280,-0.500
6369,-1.270,-0.480
6370,-1.265,-0.465
6371,-1.275,-0.455
6372,-1.315,-0.470
6373,-1.355,-0.490
6374,-1.375,-0.485
6375,-1.385,-0.485
6376,-1.365,-0.465
6377,-1.360,-0.460
6378,-1.340,-0.440
6379,-1.340,-0.450
6380,-1.345,-0.480
6381,-1.365,-0.500
6382,-1.375,-0.500
6383,-1.390,-0.485
6384,-1.385,-0.475
6385,-1.380,-0.455
