'sample interval','MLII','V2'
'0.004 sec','mV','mV'
0,-0.770,-0.395
1,-0.785,-0.420
2,-0.790,-0.405
3,-0.795,-0.415
4,-0.775,-0.390
5,-0.765,-0.400
6,-0.760,-0.390
7,-0.780,-0.390
8,-0.785,-0.395
9,-0.795,-0.410
10,-0.790,-0.410
11,-0.785,-0.385
12,-0.770,-0.380
13,-0.760,-0.360
14,-0.750,-0.370
15,-0.765,-0.360
16,-0.780,-0.375
17,-0.775,-0.380
18,-0.780,-0.380
19,-0.770,-0.355
20,-0.765,-0.355
21,-0.760,-0.345
22,-0.765,-0.355
23,-0.765,-0.370
24,-0.765,-0.380
25,-0.770,-0.375
26,-0.790,-0.385
27,-0.790,-0.370
28,-0.785,-0.375
29,-0.775,-0.350
30,-0.765,-0.345
31,-0.780,-0.370
32,-0.785,-0.380
33,-0.795,-0.390
34,-0.805,-0.400
35,-0.805,-0.395
36,-0.805,-0.380
37,-0.785,-0.370
38,-0.795,-0.370
39,-0.785,-0.380
40,-0.800,-0.385
41,-0.815,-0.400
42,-0.825,-0.385
43,-0.815,-0.385
44,-0.825,-0.380
45,-0.820,-0.385
46,-0.810,-0.375
47,-0.810,-0.365
48,-0.800,-0.375
49,-0.820,-0.390
50,-0.815,-0.385
51,-0.825,-0.410
52,-0.840,-0.390
53,-0.830,-0.390
54,-0.815,-0.370
55,-0.800,-0.380
56,-0.815,-0.380
57,-0.820,-0.395
58,-0.845,-0.410
59,-0.855,-0.410
60,-0.850,-0.405
61,-0.855,-0.390
62,-0.835,-0.380
63,-0.825,-0.375
64,-0.810,-0.400
65,-0.810,-0.400
66,-0.830,-0.410
67,-0.835,-0.425
68,-0.850,-0.410
69,-0.855,-0.405
70,-0.830,-0.395
71,-0.825,-0.385
72,-0.810,-0.375
73,-0.815,-0.380
74,-0.825,-0.395
75,-0.835,-0.385
76,-0.845,-0.410
77,-0.835,-0.395
78,-0.825,-0.375
79,-0.820,-0.365
80,-0.810,-0.360
81,-0.795,-0.370
82,-0.810,-0.385
83,-0.830,-0.405
84,-0.845,-0.420
85,-0.840,-0.415
86,-0.835,-0.390
87,-0.830,-0.360
88,-0.815,-0.355
89,-0.825,-0.380
90,-0.810,-0.395
91,-0.820,-0.405
92,-0.830,-0.395
93,-0.840,-0.410
94,-0.840,-0.395
95,-0.825,-0.385
96,-0.815,-0.370
97,-0.810,-0.360
98,-0.805,-0.370
99,-0.825,-0.380
100,-0.830,-0.385
101,-0.830,-0.385
102,-0.835,-0.370
103,-0.820,-0.360
104,-0.815,-0.340
105,-0.800,-0.345
106,-0.810,-0.350
107,-0.820,-0.360
108,-0.830,-0.375
109,-0.840,-0.380
110,-0.845,-0.380
111,-0.840,-0.365
112,-0.830,-0.360
113,-0.820,-0.350
114,-0.825,-0.360
115,-0.820,-0.385
116,-0.825,-0.375
117,-0.830,-0.395
118,-0.840,-0.385
119,-0.835,-0.370
120,-0.835,-0.365
121,-0.825,-0.350
122,-0.820,-0.365
123,-0.810,-0.360
124,-0.815,-0.380
125,-0.820,-0.380
126,-0.830,-0.400
127,-0.845,-0.385
128,-0.825,-0.380
129,-0.800,-0.355
130,-0.785,-0.360
131,-0.775,-0.375
132,-0.770,-0.395
133,-0.770,-0.405
134,-0.775,-0.405
135,-0.770,-0.390
136,-0.765,-0.380
137,-0.740,-0.370
138,-0.715,-0.340
139,-0.680,-0.330
140,-0.690,-0.315
141,-0.695,-0.300
142,-0.700,-0.290
143,-0.720,-0.285
144,-0.720,-0.275
145,-0.720,-0.260
146,-0.710,-0.255
147,-0.705,-0.265
148,-0.730,-0.275
149,-0.770,-0.310
150,-0.785,-0.315
151,-0.830,-0.345
152,-0.855,-0.350
153,-0.840,-0.360
154,-0.840,-0.360
155,-0.820,-0.355
156,-0.835,-0.370
157,-0.845,-0.400
158,-0.865,-0.400
159,-0.860,-0.410
160,-0.895,-0.415
161,-0.885,-0.405
162,-0.865,-0.390
163,-0.850,-0.395
164,-0.870,-0.405
165,-0.845,-0.400
166,-0.870,-0.420
167,-0.875,-0.435
168,-0.865,-0.430
169,-0.870,-0.415
170,-0.860,-0.400
171,-0.850,-0.390
172,-0.840,-0.400
173,-0.800,-0.415
174,-0.720,-0.410
175,-0.695,-0.390
176,-0.440,-0.115
177,-0.265,0.165
178,-0.115,0.450
179,-0.070,0.720
180,-0.160,0.885
181,-0.390,0.875
182,-0.695,0.655
183,-1.020,0.260
184,-1.290,-0.220
185,-1.385,-0.560
186,-1.300,-0.645
187,-1.155,-0.530
188,-1.020,-0.390
189,-0.950,-0.300
190,-0.905,-0.320
191,-0.855,-0.370
192,-0.835,-0.385
193,-0.820,-0.385
194,-0.825,-0.385
195,-0.820,-0.365
196,-0.800,-0.360
197,-0.795,-0.360
198,-0.790,-0.380
199,-0.795,-0.385
200,-0.790,-0.395
201,-0.795,-0.380
202,-0.795,-0.385
203,-0.780,-0.370
204,-0.780,-0.365
205,-0.755,-0.360
206,-0.760,-0.380
207,-0.755,-0.390
208,-0.770,-0.390
209,-0.780,-0.390
210,-0.775,-0.390
211,-0.765,-0.360
212,-0.745,-0.360
213,-0.730,-0.345
214,-0.725,-0.345
215,-0.725,-0.335
216,-0.720,-0.350
217,-0.720,-0.355
218,-0.745,-0.335
219,-0.735,-0.320
220,-0.705,-0.285
221,-0.705,-0.280
222,-0.685,-0.265
223,-0.690,-0.270
224,-0.695,-0.265
225,-0.685,-0.265
226,-0.700,-0.270
227,-0.695,-0.265
228,-0.680,-0.230
229,-0.650,-0.215
230,-0.620,-0.195
231,-0.615,-0.195
232,-0.610,-0.195
233,-0.615,-0.195
234,-0.610,-0.200
235,-0.610,-0.175
236,-0.590,-0.155
237,-0.565,-0.115
238,-0.535,-0.090
239,-0.520,-0.095
240,-0.520,-0.085
241,-0.500,-0.080
242,-0.495,-0.065
243,-0.490,-0.030
244,-0.455,-0.015
245,-0.430,0.015
246,-0.405,0.040
247,-0.380,0.050
248,-0.380,0.065
249,-0.365,0.080
250,-0.355,0.085
251,-0.345,0.080
252,-0.340,0.100
253,-0.320,0.120
254,-0.310,0.140
255,-0.275,0.140
256,-0.290,0.135
257,-0.290,0.135
258,-0.315,0.100
259,-0.340,0.065
260,-0.385,0.050
261,-0.395,0.040
262,-0.410,0.010
263,-0.420,-0.020
264,-0.460,-0.065
265,-0.505,-0.115
266,-0.540,-0.150
267,-0.585,-0.195
268,-0.620,-0.220
269,-0.660,-0.265
270,-0.685,-0.285
271,-0.695,-0.310
272,-0.720,-0.325
273,-0.730,-0.360
274,-0.760,-0.375
275,-0.770,-0.380
276,-0.815,-0.415
277,-0.815,-0.430
278,-0.825,-0.415
279,-0.820,-0.420
280,-0.795,-0.420
281,-0.810,-0.445
282,-0.820,-0.455
283,-0.845,-0.470
284,-0.860,-0.475
285,-0.870,-0.470
286,-0.865,-0.460
287,-0.855,-0.445
288,-0.845,-0.450
289,-0.830,-0.440
290,-0.840,-0.460
291,-0.845,-0.485
292,-0.845,-0.470
293,-0.850,-0.455
294,-0.845,-0.450
295,-0.835,-0.435
296,-0.820,-0.420
297,-0.815,-0.430
298,-0.825,-0.425
299,-0.830,-0.450
300,-0.835,-0.450
301,-0.840,-0.460
302,-0.850,-0.450
303,-0.840,-0.445
304,-0.820,-0.420
305,-0.800,-0.425
306,-0.805,-0.425
307,-0.805,-0.435
308,-0.825,-0.445
309,-0.840,-0.445
310,-0.855,-0.445
311,-0.850,-0.435
312,-0.840,-0.435
313,-0.825,-0.420
314,-0.820,-0.425
315,-0.835,-0.440
316,-0.840,-0.460
317,-0.860,-0.455
318,-0.860,-0.450
319,-0.885,-0.445
320,-0.865,-0.440
321,-0.855,-0.435
322,-0.855,-0.445
323,-0.855,-0.440
324,-0.860,-0.455
325,-0.865,-0.465
326,-0.880,-0.485
327,-0.900,-0.475
328,-0.905,-0.460
329,-0.890,-0.450
330,-0.855,-0.455
331,-0.865,-0.460
332,-0.875,-0.470
333,-0.905,-0.495
334,-0.905,-0.490
335,-0.910,-0.490
336,-0.900,-0.475
337,-0.900,-0.470
338,-0.885,-0.460
339,-0.875,-0.475
340,-0.885,-0.475
341,-0.900,-0.495
342,-0.905,-0.510
343,-0.910,-0.500
344,-0.915,-0.490
345,-0.905,-0.470
346,-0.900,-0.465
347,-0.880,-0.475
348,-0.895,-0.460
349,-0.910,-0.485
350,-0.905,-0.490
351,-0.930,-0.500
352,-0.920,-0.495
353,-0.910,-0.465
354,-0.900,-0.460
355,-0.880,-0.465
356,-0.885,-0.490
357,-0.890,-0.480
358,-0.905,-0.510
359,-0.910,-0.515
360,-0.935,-0.500
361,-0.925,-0.495
362,-0.900,-0.490
363,-0.885,-0.475
364,-0.895,-0.480
365,-0.890,-0.495
366,-0.905,-0.495
367,-0.930,-0.510
368,-0.945,-0.515
369,-0.935,-0.500
370,-0.915,-0.490
371,-0.895,-0.470
372,-0.895,-0.485
373,-0.885,-0.480
374,-0.905,-0.505
375,-0.910,-0.505
376,-0.905,-0.500
377,-0.920,-0.485
378,-0.925,-0.485
379,-0.895,-0.470
380,-0.865,-0.475
381,-0.890,-0.470
382,-0.885,-0.500
383,-0.900,-0.500
384,-0.910,-0.505
385,-0.915,-0.500
386,-0.915,-0.490
387,-0.910,-0.495
388,-0.875,-0.480
389,-0.880,-0.485
390,-0.895,-0.495
391,-0.915,-0.500
392,-0.910,-0.510
393,-0.920,-0.520
394,-0.920,-0.510
395,-0.905,-0.505
396,-0.895,-0.490
397,-0.890,-0.485
398,-0.890,-0.495
399,-0.905,-0.510
400,-0.900,-0.515
401,-0.920,-0.525
402,-0.930,-0.515
403,-0.920,-0.495
404,-0.895,-0.485
405,-0.880,-0.480
406,-0.880,-0.485
407,-0.885,-0.485
408,-0.900,-0.480
409,-0.900,-0.480
410,-0.920,-0.480
411,-0.910,-0.480
412,-0.890,-0.460
413,-0.880,-0.460
414,-0.885,-0.475
415,-0.895,-0.470
416,-0.905,-0.480
417,-0.905,-0.505
418,-0.910,-0.500
419,-0.910,-0.490
420,-0.895,-0.470
421,-0.875,-0.455
422,-0.850,-0.480
423,-0.845,-0.480
424,-0.850,-0.495
425,-0.855,-0.495
426,-0.840,-0.520
427,-0.845,-0.505
428,-0.825,-0.470
429,-0.810,-0.460
430,-0.785,-0.455
431,-0.770,-0.440
432,-0.755,-0.440
433,-0.755,-0.435
434,-0.750,-0.410
435,-0.785,-0.375
436,-0.785,-0.365
437,-0.785,-0.345
438,-0.770,-0.330
439,-0.765,-0.345
440,-0.790,-0.350
441,-0.835,-0.375
442,-0.855,-0.395
443,-0.875,-0.405
444,-0.885,-0.415
445,-0.875,-0.405
446,-0.880,-0.430
447,-0.890,-0.450
448,-0.885,-0.445
449,-0.900,-0.465
450,-0.905,-0.465
451,-0.940,-0.490
452,-0.945,-0.475
453,-0.935,-0.475
454,-0.920,-0.460
455,-0.890,-0.480
456,-0.890,-0.490
457,-0.900,-0.495
458,-0.920,-0.505
459,-0.925,-0.510
460,-0.935,-0.505
461,-0.925,-0.495
462,-0.905,-0.470
463,-0.895,-0.465
464,-0.885,-0.465
465,-0.850,-0.500
466,-0.785,-0.475
467,-0.650,-0.365
468,-0.500,-0.185
469,-0.320,0.075
470,-0.150,0.345
471,-0.030,0.665
472,-0.035,0.930
473,-0.195,1.030
474,-0.470,0.895
475,-0.565,0.820
476,-1.130,0.110
477,-1.320,-0.315
478,-1.335,-0.520
479,-1.225,-0.525
480,-1.075,-0.415
481,-1.000,-0.350
482,-0.955,-0.360
483,-0.930,-0.395
484,-0.910,-0.435
485,-0.895,-0.435
486,-0.890,-0.445
487,-0.880,-0.430
488,-0.870,-0.440
489,-0.865,-0.435
490,-0.875,-0.460
491,-0.880,-0.455
492,-0.885,-0.475
493,-0.895,-0.475
494,-0.880,-0.460
495,-0.865,-0.445
496,-0.845,-0.440
497,-0.825,-0.430
498,-0.850,-0.435
499,-0.850,-0.440
500,-0.850,-0.450
501,-0.855,-0.460
502,-0.860,-0.450
503,-0.840,-0.430
504,-0.820,-0.410
505,-0.805,-0.385
506,-0.820,-0.400
507,-0.810,-0.425
508,-0.820,-0.425
509,-0.820,-0.430
510,-0.820,-0.425
511,-0.810,-0.395
512,-0.800,-0.385
513,-0.775,-0.375
514,-0.760,-0.370
515,-0.755,-0.375
516,-0.755,-0.395
517,-0.765,-0.410
518,-0.785,-0.390
519,-0.770,-0.380
520,-0.755,-0.360
521,-0.745,-0.340
522,-0.715,-0.320
523,-0.705,-0.335
524,-0.705,-0.325
525,-0.705,-0.325
526,-0.705,-0.295
527,-0.695,-0.275
528,-0.675,-0.235
529,-0.640,-0.210
530,-0.620,-0.195
531,-0.605,-0.190
532,-0.600,-0.195
533,-0.600,-0.185
534,-0.590,-0.170
535,-0.570,-0.155
536,-0.555,-0.115
537,-0.520,-0.090
538,-0.485,-0.065
539,-0.460,-0.045
540,-0.445,-0.055
541,-0.435,-0.065
542,-0.460,-0.055
543,-0.445,-0.035
544,-0.425,-0.005
545,-0.415,0.000
546,-0.390,0.025
547,-0.365,0.035
548,-0.365,0.025
549,-0.370,0.015
550,-0.380,0.005
551,-0.395,0.000
552,-0.405,-0.015
553,-0.415,-0.010
554,-0.445,-0.025
555,-0.455,-0.045
556,-0.490,-0.085
557,-0.525,-0.130
558,-0.585,-0.175
559,-0.620,-0.205
560,-0.680,-0.240
561,-0.700,-0.250
562,-0.720,-0.250
563,-0.730,-0.280
564,-0.750,-0.310
565,-0.770,-0.345
566,-0.795,-0.395
567,-0.830,-0.405
568,-0.850,-0.410
569,-0.865,-0.420
570,-0.855,-0.410
571,-0.865,-0.420
572,-0.870,-0.415
573,-0.875,-0.435
574,-0.870,-0.460
575,-0.880,-0.470
576,-0.905,-0.475
577,-0.895,-0.470
578,-0.895,-0.460
579,-0.870,-0.450
580,-0.885,-0.435
581,-0.870,-0.455
582,-0.885,-0.455
583,-0.890,-0.480
584,-0.900,-0.475
585,-0.915,-0.485
586,-0.905,-0.465
587,-0.895,-0.445
588,-0.875,-0.430
589,-0.890,-0.435
590,-0.875,-0.440
591,-0.890,-0.445
592,-0.895,-0.450
593,-0.900,-0.465
594,-0.900,-0.445
595,-0.880,-0.430
596,-0.865,-0.430
597,-0.855,-0.420
598,-0.870,-0.435
599,-0.865,-0.440
600,-0.875,-0.440
601,-0.885,-0.435
602,-0.890,-0.435
603,-0.880,-0.420
604,-0.870,-0.405
605,-0.850,-0.420
606,-0.860,-0.420
607,-0.865,-0.430
608,-0.875,-0.440
609,-0.880,-0.440
610,-0.895,-0.440
611,-0.900,-0.420
612,-0.900,-0.420
613,-0.885,-0.410
614,-0.880,-0.415
615,-0.900,-0.430
616,-0.920,-0.430
617,-0.920,-0.460
618,-0.930,-0.465
619,-0.935,-0.460
620,-0.920,-0.440
621,-0.920,-0.420
622,-0.910,-0.420
623,-0.915,-0.435
624,-0.920,-0.440
625,-0.930,-0.440
626,-0.935,-0.455
627,-0.940,-0.445
628,-0.935,-0.425
629,-0.920,-0.415
630,-0.910,-0.410
631,-0.910,-0.430
632,-0.920,-0.415
633,-0.930,-0.445
634,-0.940,-0.450
635,-0.935,-0.455
636,-0.945,-0.455
637,-0.950,-0.435
638,-0.925,-0.410
639,-0.915,-0.430
640,-0.925,-0.425
641,-0.945,-0.450
642,-0.945,-0.450
643,-0.960,-0.455
644,-0.955,-0.440
645,-0.940,-0.425
646,-0.925,-0.430
647,-0.905,-0.420
648,-0.910,-0.425
649,-0.930,-0.440
650,-0.930,-0.455
651,-0.935,-0.455
652,-0.950,-0.440
653,-0.935,-0.420
654,-0.925,-0.410
655,-0.925,-0.405
656,-0.915,-0.415
657,-0.925,-0.430
658,-0.935,-0.435
659,-0.940,-0.435
660,-0.945,-0.415
661,-0.945,-0.420
662,-0.945,-0.410
663,-0.915,-0.400
664,-0.930,-0.420
665,-0.930,-0.420
666,-0.940,-0.435
667,-0.955,-0.445
668,-0.960,-0.455
669,-0.955,-0.435
670,-0.955,-0.420
671,-0.945,-0.400
672,-0.920,-0.405
673,-0.910,-0.415
674,-0.935,-0.435
675,-0.940,-0.440
676,-0.965,-0.450
677,-0.970,-0.440
678,-0.960,-0.420
679,-0.935,-0.405
680,-0.925,-0.405
681,-0.940,-0.400
682,-0.935,-0.395
683,-0.935,-0.420
684,-0.940,-0.415
685,-0.950,-0.400
686,-0.935,-0.390
687,-0.930,-0.370
688,-0.915,-0.375
689,-0.910,-0.390
690,-0.915,-0.410
691,-0.925,-0.400
692,-0.925,-0.425
693,-0.940,-0.430
694,-0.935,-0.405
695,-0.930,-0.395
696,-0.905,-0.385
697,-0.910,-0.375
698,-0.930,-0.395
699,-0.920,-0.410
700,-0.925,-0.405
701,-0.940,-0.435
702,-0.950,-0.420
703,-0.930,-0.385
704,-0.910,-0.385
705,-0.910,-0.385
706,-0.910,-0.380
707,-0.920,-0.395
708,-0.920,-0.395
709,-0.920,-0.415
710,-0.945,-0.400
711,-0.930,-0.390
712,-0.925,-0.385
713,-0.895,-0.365
714,-0.885,-0.380
715,-0.875,-0.390
716,-0.880,-0.395
717,-0.880,-0.430
718,-0.885,-0.430
719,-0.870,-0.405
720,-0.870,-0.375
721,-0.835,-0.365
722,-0.800,-0.355
723,-0.770,-0.335
724,-0.765,-0.325
725,-0.775,-0.310
726,-0.805,-0.295
727,-0.810,-0.285
728,-0.820,-0.265
729,-0.830,-0.250
730,-0.805,-0.240
731,-0.820,-0.250
732,-0.865,-0.290
733,-0.910,-0.315
734,-0.925,-0.340
735,-0.940,-0.360
736,-0.940,-0.360
737,-0.925,-0.355
738,-0.915,-0.340
739,-0.915,-0.360
740,-0.910,-0.365
741,-0.930,-0.400
742,-0.945,-0.405
743,-0.960,-0.415
744,-0.965,-0.405
745,-0.965,-0.390
746,-0.955,-0.380
747,-0.935,-0.375
748,-0.930,-0.375
749,-0.945,-0.390
750,-0.950,-0.400
751,-0.950,-0.410
752,-0.955,-0.415
753,-0.940,-0.395
754,-0.930,-0.385
755,-0.920,-0.370
756,-0.905,-0.375
757,-0.870,-0.390
758,-0.775,-0.330
759,-0.660,-0.205
760,-0.515,0.025
761,-0.355,0.270
762,-0.290,0.545
763,-0.340,0.740
764,-0.510,0.810
765,-0.775,0.680
766,-1.075,0.360
767,-1.365,-0.110
768,-1.530,-0.525
769,-1.525,-0.755
770,-1.390,-0.725
771,-1.245,-0.560
772,-1.140,-0.410
773,-1.075,-0.355
774,-1.025,-0.365
775,-1.010,-0.375
776,-0.940,-0.385
777,-0.920,-0.375
778,-0.905,-0.340
779,-0.900,-0.335
780,-0.900,-0.330
781,-0.885,-0.360
782,-0.875,-0.370
783,-0.880,-0.380
784,-0.880,-0.385
785,-0.895,-0.370
786,-0.890,-0.350
787,-0.880,-0.345
788,-0.875,-0.340
789,-0.860,-0.335
790,-0.855,-0.325
791,-0.855,-0.335
792,-0.850,-0.335
793,-0.870,-0.345
794,-0.870,-0.350
795,-0.855,-0.330
796,-0.835,-0.300
797,-0.820,-0.290
798,-0.810,-0.295
799,-0.835,-0.305
800,-0.830,-0.305
801,-0.835,-0.300
802,-0.835,-0.270
803,-0.845,-0.255
804,-0.800,-0.245
805,-0.780,-0.215
806,-0.795,-0.230
807,-0.775,-0.240
808,-0.775,-0.225
809,-0.780,-0.235
810,-0.790,-0.225
811,-0.755,-0.190
812,-0.745,-0.175
813,-0.725,-0.160
814,-0.720,-0.145
815,-0.705,-0.155
816,-0.720,-0.145
817,-0.695,-0.145
818,-0.685,-0.120
819,-0.660,-0.095
820,-0.615,-0.065
821,-0.600,-0.040
822,-0.570,-0.020
823,-0.550,-0.015
824,-0.540,-0.015
825,-0.535,-0.015
826,-0.530,0.010
827,-0.515,0.030
828,-0.480,0.065
829,-0.450,0.105
830,-0.420,0.150
831,-0.425,0.155
832,-0.425,0.150
833,-0.435,0.165
834,-0.415,0.180
835,-0.410,0.185
836,-0.390,0.200
837,-0.390,0.205
838,-0.375,0.210
839,-0.380,0.195
840,-0.390,0.180
841,-0.405,0.160
842,-0.435,0.130
843,-0.470,0.095
844,-0.485,0.055
845,-0.505,0.025
846,-0.540,-0.015
847,-0.550,-0.050
848,-0.590,-0.110
849,-0.635,-0.170
850,-0.655,-0.185
851,-0.725,-0.260
852,-0.745,-0.295
853,-0.770,-0.300
854,-0.800,-0.320
855,-0.820,-0.340
856,-0.830,-0.365
857,-0.845,-0.395
858,-0.875,-0.425
859,-0.885,-0.445
860,-0.890,-0.465
861,-0.900,-0.455
862,-0.890,-0.435
863,-0.890,-0.425
864,-0.875,-0.425
865,-0.900,-0.445
866,-0.925,-0.470
867,-0.925,-0.465
868,-0.950,-0.470
869,-0.935,-0.430
870,-0.915,-0.445
871,-0.910,-0.440
872,-0.900,-0.430
873,-0.900,-0.440
874,-0.905,-0.460
875,-0.910,-0.465
876,-0.920,-0.470
877,-0.925,-0.470
878,-0.920,-0.455
879,-0.910,-0.440
880,-0.890,-0.430
881,-0.895,-0.445
882,-0.895,-0.445
883,-0.910,-0.460
884,-0.915,-0.460
885,-0.915,-0.455
886,-0.905,-0.445
887,-0.905,-0.430
888,-0.890,-0.415
889,-0.870,-0.430
890,-0.875,-0.435
891,-0.905,-0.435
892,-0.900,-0.445
893,-0.905,-0.460
894,-0.910,-0.435
895,-0.905,-0.415
896,-0.900,-0.410
897,-0.890,-0.415
898,-0.890,-0.415
899,-0.905,-0.435
900,-0.905,-0.460
901,-0.920,-0.460
902,-0.930,-0.460
903,-0.915,-0.445
904,-0.900,-0.445
905,-0.910,-0.430
906,-0.890,-0.450
907,-0.905,-0.455
908,-0.910,-0.475
909,-0.920,-0.490
910,-0.940,-0.470
911,-0.935,-0.480
912,-0.920,-0.450
913,-0.930,-0.450
914,-0.910,-0.455
915,-0.925,-0.470
916,-0.935,-0.470
917,-0.950,-0.485
918,-0.970,-0.490
919,-0.965,-0.475
920,-0.940,-0.465
921,-0.935,-0.445
922,-0.920,-0.450
923,-0.930,-0.460
924,-0.935,-0.470
925,-0.950,-0.475
926,-0.965,-0.490
927,-0.975,-0.480
928,-0.965,-0.470
929,-0.950,-0.460
930,-0.945,-0.440
931,-0.935,-0.455
932,-0.940,-0.475
933,-0.950,-0.495
934,-0.970,-0.495
935,-0.965,-0.505
936,-0.965,-0.490
937,-0.970,-0.475
938,-0.955,-0.465
939,-0.945,-0.485
940,-0.940,-0.490
941,-0.940,-0.505
942,-0.940,-0.515
943,-0.950,-0.500
944,-0.960,-0.500
945,-0.960,-0.485
946,-0.930,-0.470
947,-0.925,-0.480
948,-0.930,-0.485
949,-0.935,-0.495
950,-0.940,-0.500
951,-0.950,-0.515
952,-0.960,-0.510
953,-0.955,-0.495
954,-0.955,-0.465
955,-0.935,-0.465
956,-0.920,-0.455
957,-0.925,-0.480
958,-0.955,-0.480
959,-0.960,-0.500
960,-0.960,-0.515
961,-0.965,-0.505
962,-0.935,-0.500
963,-0.925,-0.480
964,-0.920,-0.480
965,-0.930,-0.510
966,-0.960,-0.515
967,-0.965,-0.525
968,-0.960,-0.530
969,-0.970,-0.520
970,-0.960,-0.495
971,-0.960,-0.480
972,-0.935,-0.475
973,-0.935,-0.485
974,-0.945,-0.500
975,-0.955,-0.510
976,-0.960,-0.515
977,-0.970,-0.510
978,-0.955,-0.485
979,-0.955,-0.470
980,-0.945,-0.465
981,-0.935,-0.480
982,-0.940,-0.495
983,-0.950,-0.505
984,-0.960,-0.505
985,-0.960,-0.500
986,-0.965,-0.490
987,-0.960,-0.480
988,-0.945,-0.465
989,-0.950,-0.460
990,-0.945,-0.475
991,-0.965,-0.495
992,-0.955,-0.495
993,-0.965,-0.500
994,-0.970,-0.490
995,-0.960,-0.485
996,-0.945,-0.475
997,-0.935,-0.475
998,-0.920,-0.495
999,-0.930,-0.490
1000,-0.935,-0.495
1001,-0.960,-0.505
1002,-0.970,-0.505
1003,-0.955,-0.500
1004,-0.940,-0.490
1005,-0.920,-0.475
1006,-0.900,-0.485
1007,-0.900,-0.505
1008,-0.900,-0.510
1009,-0.895,-0.515
1010,-0.895,-0.535
1011,-0.885,-0.515
1012,-0.875,-0.495
1013,-0.865,-0.475
1014,-0.850,-0.475
1015,-0.830,-0.460
1016,-0.800,-0.445
1017,-0.810,-0.435
1018,-0.800,-0.400
1019,-0.820,-0.400
1020,-0.835,-0.375
1021,-0.845,-0.360
1022,-0.835,-0.350
1023,-0.840,-0.380
1024,-0.845,-0.380
1025,-0.855,-0.385
1026,-0.905,-0.415
1027,-0.915,-0.425
1028,-0.920,-0.415
1029,-0.930,-0.430
1030,-0.940,-0.425
1031,-0.940,-0.465
1032,-0.945,-0.475
1033,-0.960,-0.490
1034,-0.980,-0.495
1035,-0.980,-0.495
1036,-0.990,-0.500
1037,-0.980,-0.490
1038,-0.960,-0.495
1039,-0.950,-0.485
1040,-0.965,-0.510
1041,-0.990,-0.525
1042,-0.990,-0.535
1043,-1.000,-0.540
1044,-1.005,-0.520
1045,-0.995,-0.500
1046,-0.980,-0.495
1047,-0.960,-0.490
1048,-0.945,-0.490
1049,-0.940,-0.500
1050,-0.950,-0.505
1051,-0.860,-0.505
1052,-0.765,-0.415
1053,-0.580,-0.225
1054,-0.370,0.050
1055,-0.190,0.355
1056,-0.085,0.675
1057,-0.090,0.970
1058,-0.275,1.080
1059,-0.565,0.945
1060,-0.920,0.565
1061,-1.245,0.060
1062,-1.405,-0.370
1063,-1.365,-0.555
1064,-1.225,-0.530
1065,-1.100,-0.415
1066,-1.030,-0.350
1067,-0.995,-0.380
1068,-0.965,-0.440
1069,-0.945,-0.465
1070,-0.925,-0.465
1071,-0.930,-0.480
1072,-0.915,-0.470
1073,-0.910,-0.470
1074,-0.915,-0.490
1075,-0.920,-0.500
1076,-0.920,-0.500
1077,-0.925,-0.510
1078,-0.920,-0.495
1079,-0.905,-0.465
1080,-0.885,-0.465
1081,-0.870,-0.470
1082,-0.875,-0.475
1083,-0.890,-0.500
1084,-0.895,-0.500
1085,-0.900,-0.490
1086,-0.890,-0.480
1087,-0.875,-0.455
1088,-0.855,-0.455
1089,-0.860,-0.455
1090,-0.845,-0.460
1091,-0.840,-0.465
1092,-0.850,-0.485
1093,-0.845,-0.480
1094,-0.840,-0.470
1095,-0.835,-0.450
1096,-0.820,-0.440
1097,-0.805,-0.430
1098,-0.795,-0.440
1099,-0.815,-0.430
1100,-0.810,-0.420
1101,-0.810,-0.435
1102,-0.815,-0.440
1103,-0.790,-0.405
1104,-0.785,-0.365
1105,-0.780,-0.365
1106,-0.760,-0.345
1107,-0.750,-0.355
1108,-0.745,-0.365
1109,-0.750,-0.355
1110,-0.735,-0.350
1111,-0.720,-0.320
1112,-0.695,-0.295
1113,-0.670,-0.270
1114,-0.650,-0.250
1115,-0.630,-0.250
1116,-0.625,-0.235
1117,-0.620,-0.230
1118,-0.605,-0.215
1119,-0.595,-0.190
1120,-0.565,-0.160
1121,-0.530,-0.140
1122,-0.500,-0.105
1123,-0.490,-0.095
1124,-0.470,-0.090
1125,-0.465,-0.090
1126,-0.460,-0.090
1127,-0.445,-0.055
1128,-0.420,-0.045
1129,-0.410,-0.025
1130,-0.385,-0.005
1131,-0.380,-0.015
1132,-0.380,-0.020
1133,-0.390,-0.035
1134,-0.400,-0.040
1135,-0.410,-0.080
1136,-0.425,-0.080
1137,-0.435,-0.080
1138,-0.465,-0.085
1139,-0.490,-0.130
1140,-0.505,-0.165
1141,-0.560,-0.220
1142,-0.600,-0.255
1143,-0.640,-0.300
1144,-0.675,-0.335
1145,-0.700,-0.355
1146,-0.725,-0.380
1147,-0.740,-0.400
1148,-0.765,-0.445
1149,-0.795,-0.455
1150,-0.815,-0.470
1151,-0.850,-0.510
1152,-0.880,-0.530
1153,-0.885,-0.535
1154,-0.870,-0.515
1155,-0.875,-0.525
1156,-0.870,-0.540
1157,-0.890,-0.550
1158,-0.910,-0.565
1159,-0.915,-0.570
1160,-0.930,-0.595
1161,-0.920,-0.585
1162,-0.915,-0.565
1163,-0.905,-0.570
1164,-0.910,-0.580
1165,-0.900,-0.580
1166,-0.910,-0.590
1167,-0.920,-0.615
1168,-0.930,-0.600
1169,-0.945,-0.595
1170,-0.930,-0.590
1171,-0.905,-0.570
1172,-0.905,-0.565
1173,-0.900,-0.565
1174,-0.910,-0.565
1175,-0.915,-0.580
1176,-0.915,-0.585
1177,-0.915,-0.575
1178,-0.905,-0.560
1179,-0.905,-0.545
1180,-0.890,-0.525
1181,-0.880,-0.545
1182,-0.895,-0.545
1183,-0.900,-0.560
1184,-0.915,-0.560
1185,-0.930,-0.580
1186,-0.915,-0.565
1187,-0.910,-0.550
1188,-0.895,-0.530
1189,-0.885,-0.545
1190,-0.895,-0.550
1191,-0.900,-0.550
1192,-0.910,-0.565
1193,-0.940,-0.570
1194,-0.930,-0.565
1195,-0.915,-0.555
1196,-0.915,-0.535
1197,-0.915,-0.540
1198,-0.910,-0.540
1199,-0.925,-0.565
1200,-0.925,-0.560
1201,-0.940,-0.575
1202,-0.945,-0.570
1203,-0.955,-0.555
1204,-0.935,-0.545
1205,-0.935,-0.525
1206,-0.930,-0.540
1207,-0.925,-0.560
1208,-0.950,-0.565
1209,-0.960,-0.575
1210,-0.960,-0.575
1211,-0.955,-0.580
1212,-0.950,-0.560
1213,-0.940,-0.550
1214,-0.935,-0.555
1215,-0.935,-0.565
1216,-0.955,-0.600
1217,-0.950,-0.595
1218,-0.965,-0.600
1219,-0.970,-0.600
1220,-0.970,-0.585
1221,-0.955,-0.570
1222,-0.930,-0.565
1223,-0.945,-0.565
1224,-0.950,-0.575
1225,-0.955,-0.580
1226,-0.960,-0.590
1227,-0.970,-0.595
1228,-0.970,-0.575
1229,-0.955,-0.565
1230,-0.940,-0.545
1231,-0.945,-0.565
1232,-0.950,-0.565
1233,-0.975,-0.580
1234,-0.990,-0.600
1235,-0.980,-0.595
1236,-0.980,-0.590
1237,-0.975,-0.575
1238,-0.955,-0.555
1239,-0.930,-0.555
1240,-0.960,-0.565
1241,-0.960,-0.580
1242,-0.980,-0.595
1243,-0.995,-0.605
1244,-0.995,-0.605
1245,-0.980,-0.575
1246,-0.955,-0.570
1247,-0.950,-0.575
1248,-0.960,-0.570
1249,-0.970,-0.585
1250,-0.970,-0.600
1251,-0.985,-0.595
1252,-1.000,-0.600
1253,-1.000,-0.590
1254,-0.985,-0.570
1255,-0.960,-0.560
1256,-0.940,-0.570
1257,-0.950,-0.595
1258,-0.960,-0.590
1259,-0.980,-0.590
1260,-0.980,-0.585
1261,-0.965,-0.575
1262,-0.960,-0.570
1263,-0.955,-0.550
1264,-0.955,-0.555
1265,-0.955,-0.560
1266,-0.970,-0.590
1267,-0.965,-0.600
1268,-0.975,-0.585
1269,-0.985,-0.580
1270,-0.965,-0.575
1271,-0.950,-0.550
1272,-0.940,-0.550
1273,-0.950,-0.565
1274,-0.950,-0.570
1275,-0.960,-0.585
1276,-0.970,-0.590
1277,-0.970,-0.590
1278,-0.965,-0.590
1279,-0.965,-0.570
1280,-0.950,-0.555
1281,-0.930,-0.560
1282,-0.955,-0.580
1283,-0.960,-0.585
1284,-0.960,-0.590
1285,-0.970,-0.585
1286,-0.960,-0.575
1287,-0.955,-0.565
1288,-0.945,-0.560
1289,-0.930,-0.560
1290,-0.930,-0.565
1291,-0.960,-0.585
1292,-0.950,-0.590
1293,-0.970,-0.580
1294,-0.970,-0.580
1295,-0.965,-0.550
1296,-0.945,-0.545
1297,-0.935,-0.540
1298,-0.930,-0.520
1299,-0.940,-0.555
1300,-0.940,-0.565
1301,-0.955,-0.575
1302,-0.965,-0.570
1303,-0.960,-0.570
1304,-0.955,-0.555
1305,-0.940,-0.550
1306,-0.920,-0.550
1307,-0.915,-0.555
1308,-0.925,-0.550
1309,-0.925,-0.575
1310,-0.920,-0.585
1311,-0.910,-0.600
1312,-0.895,-0.580
1313,-0.870,-0.565
1314,-0.855,-0.550
1315,-0.835,-0.540
1316,-0.830,-0.530
1317,-0.815,-0.530
1318,-0.810,-0.505
1319,-0.805,-0.495
1320,-0.795,-0.445
1321,-0.790,-0.415
1322,-0.810,-0.395
1323,-0.815,-0.405
1324,-0.825,-0.415
1325,-0.825,-0.425
1326,-0.875,-0.450
1327,-0.905,-0.455
1328,-0.915,-0.465
1329,-0.920,-0.460
1330,-0.910,-0.475
1331,-0.915,-0.500
1332,-0.930,-0.525
1333,-0.950,-0.540
1334,-0.955,-0.540
1335,-0.980,-0.560
1336,-0.980,-0.550
1337,-0.975,-0.540
1338,-0.960,-0.555
1339,-0.945,-0.550
1340,-0.940,-0.555
1341,-0.955,-0.560
1342,-0.960,-0.565
1343,-0.975,-0.580
1344,-0.970,-0.565
1345,-0.955,-0.545
1346,-0.945,-0.535
1347,-0.930,-0.550
1348,-0.920,-0.550
1349,-0.930,-0.555
1350,-0.940,-0.560
1351,-0.890,-0.580
1352,-0.815,-0.520
1353,-0.675,-0.370
1354,-0.505,-0.150
1355,-0.345,0.130
1356,-0.245,0.385
1357,-0.260,0.610
1358,-0.395,0.715
1359,-0.620,0.680
1360,-0.905,0.425
1361,-1.205,0.015
1362,-1.395,-0.430
1363,-1.435,-0.750
1364,-1.345,-0.800
1365,-1.225,-0.660
1366,-1.115,-0.540
1367,-1.045,-0.485
1368,-0.995,-0.500
1369,-0.950,-0.510
1370,-0.900,-0.510
1371,-0.890,-0.495
1372,-0.890,-0.490
1373,-0.895,-0.500
1374,-0.890,-0.510
1375,-0.895,-0.515
1376,-0.895,-0.535
1377,-0.900,-0.525
1378,-0.885,-0.520
1379,-0.885,-0.505
1380,-0.850,-0.480
1381,-0.850,-0.480
1382,-0.865,-0.475
1383,-0.885,-0.490
1384,-0.885,-0.500
1385,-0.885,-0.500
1386,-0.895,-0.485
1387,-0.865,-0.475
1388,-0.840,-0.455
1389,-0.840,-0.440
1390,-0.845,-0.445
1391,-0.845,-0.450
1392,-0.845,-0.460
1393,-0.845,-0.465
1394,-0.835,-0.460
1395,-0.825,-0.430
1396,-0.810,-0.405
1397,-0.790,-0.415
1398,-0.785,-0.405
1399,-0.785,-0.405
1400,-0.785,-0.410
1401,-0.780,-0.410
1402,-0.790,-0.390
1403,-0.780,-0.390
1404,-0.775,-0.365
1405,-0.760,-0.350
1406,-0.745,-0.335
1407,-0.730,-0.330
1408,-0.715,-0.325
1409,-0.710,-0.315
1410,-0.705,-0.285
1411,-0.695,-0.270
1412,-0.670,-0.250
1413,-0.640,-0.225
1414,-0.610,-0.195
1415,-0.595,-0.185
1416,-0.580,-0.185
1417,-0.570,-0.155
1418,-0.565,-0.140
1419,-0.550,-0.115
1420,-0.525,-0.080
1421,-0.495,-0.055
1422,-0.465,-0.025
1423,-0.430,-0.015
1424,-0.420,0.000
1425,-0.415,0.000
1426,-0.405,0.015
1427,-0.405,0.015
1428,-0.375,0.055
1429,-0.350,0.080
1430,-0.345,0.100
1431,-0.325,0.105
1432,-0.330,0.095
1433,-0.340,0.090
1434,-0.365,0.065
1435,-0.370,0.050
1436,-0.385,0.030
1437,-0.395,0.010
1438,-0.420,-0.005
1439,-0.430,-0.060
1440,-0.480,-0.090
1441,-0.525,-0.140
1442,-0.570,-0.200
1443,-0.610,-0.230
1444,-0.660,-0.275
1445,-0.675,-0.300
1446,-0.695,-0.315
1447,-0.715,-0.345
1448,-0.750,-0.385
1449,-0.775,-0.410
1450,-0.795,-0.430
1451,-0.845,-0.475
1452,-0.845,-0.490
1453,-0.860,-0.490
1454,-0.850,-0.500
1455,-0.850,-0.485
1456,-0.845,-0.520
1457,-0.840,-0.535
1458,-0.860,-0.545
1459,-0.885,-0.545
1460,-0.900,-0.560
1461,-0.905,-0.560
1462,-0.880,-0.545
1463,-0.860,-0.545
1464,-0.865,-0.555
1465,-0.870,-0.550
1466,-0.880,-0.560
1467,-0.890,-0.575
1468,-0.890,-0.585
1469,-0.905,-0.570
1470,-0.880,-0.565
1471,-0.875,-0.540
1472,-0.865,-0.530
1473,-0.860,-0.520
1474,-0.860,-0.540
1475,-0.865,-0.555
1476,-0.865,-0.570
1477,-0.875,-0.540
1478,-0.875,-0.535
1479,-0.880,-0.520
1480,-0.880,-0.515
1481,-0.855,-0.515
1482,-0.860,-0.525
1483,-0.860,-0.540
1484,-0.865,-0.555
1485,-0.880,-0.555
1486,-0.890,-0.545
1487,-0.865,-0.530
1488,-0.865,-0.520
1489,-0.855,-0.530
1490,-0.870,-0.530
1491,-0.870,-0.540
1492,-0.885,-0.550
1493,-0.895,-0.565
1494,-0.900,-0.570
1495,-0.890,-0.555
1496,-0.870,-0.545
1497,-0.880,-0.540
1498,-0.870,-0.535
1499,-0.885,-0.550
1500,-0.880,-0.555
1501,-0.905,-0.580
1502,-0.905,-0.575
1503,-0.910,-0.560
1504,-0.905,-0.545
1505,-0.890,-0.535
1506,-0.885,-0.550
1507,-0.890,-0.565
1508,-0.890,-0.570
1509,-0.900,-0.580
1510,-0.910,-0.580
1511,-0.920,-0.585
1512,-0.905,-0.565
1513,-0.890,-0.555
1514,-0.880,-0.550
1515,-0.885,-0.565
1516,-0.895,-0.585
1517,-0.905,-0.595
1518,-0.910,-0.620
1519,-0.930,-0.610
1520,-0.920,-0.595
1521,-0.910,-0.590
1522,-0.890,-0.575
1523,-0.890,-0.560
1524,-0.900,-0.575
1525,-0.900,-0.585
1526,-0.930,-0.590
1527,-0.930,-0.600
1528,-0.930,-0.580
1529,-0.930,-0.590
1530,-0.895,-0.575
1531,-0.895,-0.575
1532,-0.895,-0.575
1533,-0.905,-0.580
1534,-0.915,-0.610
1535,-0.925,-0.590
1536,-0.920,-0.580
1537,-0.920,-0.555
1538,-0.915,-0.560
1539,-0.895,-0.545
1540,-0.885,-0.560
1541,-0.895,-0.565
1542,-0.895,-0.590
1543,-0.900,-0.580
1544,-0.920,-0.580
1545,-0.910,-0.570
1546,-0.895,-0.570
1547,-0.875,-0.560
1548,-0.865,-0.560
1549,-0.890,-0.580
1550,-0.895,-0.580
1551,-0.905,-0.595
1552,-0.910,-0.595
1553,-0.905,-0.585
1554,-0.890,-0.565
1555,-0.875,-0.570
1556,-0.865,-0.560
1557,-0.875,-0.570
1558,-0.905,-0.580
1559,-0.915,-0.595
1560,-0.910,-0.580
1561,-0.925,-0.575
1562,-0.910,-0.565
1563,-0.910,-0.555
1564,-0.890,-0.555
1565,-0.900,-0.560
1566,-0.910,-0.570
1567,-0.910,-0.580
1568,-0.920,-0.575
1569,-0.935,-0.585
1570,-0.925,-0.575
1571,-0.905,-0.550
1572,-0.900,-0.540
1573,-0.885,-0.550
1574,-0.890,-0.565
1575,-0.890,-0.575
1576,-0.910,-0.585
1577,-0.915,-0.595
1578,-0.925,-0.580
1579,-0.910,-0.570
1580,-0.895,-0.560
1581,-0.895,-0.560
1582,-0.890,-0.565
1583,-0.905,-0.585
1584,-0.910,-0.590
1585,-0.910,-0.600
1586,-0.915,-0.585
1587,-0.900,-0.575
1588,-0.905,-0.560
1589,-0.885,-0.560
1590,-0.880,-0.570
1591,-0.880,-0.570
1592,-0.890,-0.585
1593,-0.900,-0.595
1594,-0.880,-0.585
1595,-0.875,-0.575
1596,-0.855,-0.560
1597,-0.835,-0.570
1598,-0.815,-0.580
1599,-0.815,-0.585
1600,-0.820,-0.575
1601,-0.835,-0.585
1602,-0.810,-0.575
1603,-0.780,-0.545
1604,-0.750,-0.505
1605,-0.725,-0.475
1606,-0.735,-0.460
1607,-0.755,-0.455
1608,-0.775,-0.465
1609,-0.790,-0.490
1610,-0.800,-0.480
1611,-0.820,-0.475
1612,-0.815,-0.460
1613,-0.830,-0.470
1614,-0.830,-0.480
1615,-0.845,-0.495
1616,-0.860,-0.535
1617,-0.885,-0.545
1618,-0.900,-0.580
1619,-0.915,-0.570
1620,-0.910,-0.565
1621,-0.890,-0.565
1622,-0.885,-0.560
1623,-0.885,-0.590
1624,-0.900,-0.585
1625,-0.905,-0.580
1626,-0.925,-0.600
1627,-0.935,-0.615
1628,-0.930,-0.590
1629,-0.925,-0.575
1630,-0.905,-0.570
1631,-0.895,-0.575
1632,-0.910,-0.570
1633,-0.910,-0.590
1634,-0.910,-0.605
1635,-0.930,-0.610
1636,-0.920,-0.610
1637,-0.910,-0.590
1638,-0.845,-0.595
1639,-0.740,-0.545
1640,-0.600,-0.425
1641,-0.440,-0.225
1642,-0.275,0.035
1643,-0.130,0.315
1644,-0.095,0.625
1645,-0.145,0.860
1646,-0.330,0.925
1647,-0.590,0.745
1648,-0.910,0.395
1649,-1.210,-0.080
1650,-1.290,-0.230
1651,-1.365,-0.720
1652,-1.235,-0.685
1653,-1.120,-0.560
1654,-1.030,-0.490
1655,-0.990,-0.455
1656,-0.950,-0.480
1657,-0.920,-0.525
1658,-0.900,-0.555
1659,-0.895,-0.570
1660,-0.895,-0.580
1661,-0.900,-0.575
1662,-0.895,-0.550
1663,-0.885,-0.545
1664,-0.865,-0.540
1665,-0.855,-0.560
1666,-0.855,-0.580
1667,-0.850,-0.580
1668,-0.865,-0.570
1669,-0.865,-0.580
1670,-0.860,-0.570
1671,-0.850,-0.565
1672,-0.825,-0.570
1673,-0.825,-0.560
1674,-0.825,-0.565
1675,-0.820,-0.555
1676,-0.850,-0.570
1677,-0.860,-0.575
1678,-0.845,-0.570
1679,-0.825,-0.540
1680,-0.810,-0.530
1681,-0.790,-0.525
1682,-0.795,-0.530
1683,-0.800,-0.540
1684,-0.815,-0.550
1685,-0.800,-0.540
1686,-0.805,-0.535
1687,-0.785,-0.505
1688,-0.780,-0.490
1689,-0.745,-0.460
1690,-0.750,-0.460
1691,-0.740,-0.475
1692,-0.745,-0.475
1693,-0.750,-0.465
1694,-0.745,-0.445
1695,-0.745,-0.420
1696,-0.735,-0.410
1697,-0.695,-0.380
1698,-0.690,-0.390
1699,-0.675,-0.395
1700,-0.675,-0.390
1701,-0.670,-0.395
1702,-0.665,-0.380
1703,-0.635,-0.340
1704,-0.615,-0.320
1705,-0.590,-0.290
1706,-0.550,-0.270
1707,-0.545,-0.270
1708,-0.520,-0.260
1709,-0.515,-0.250
1710,-0.500,-0.230
1711,-0.485,-0.205
1712,-0.460,-0.170
1713,-0.420,-0.145
1714,-0.410,-0.115
1715,-0.395,-0.115
1716,-0.380,-0.120
1717,-0.385,-0.110
1718,-0.375,-0.105
1719,-0.395,-0.100
1720,-0.370,-0.080
1721,-0.350,-0.065
1722,-0.345,-0.055
1723,-0.345,-0.070
1724,-0.360,-0.100
1725,-0.360,-0.115
1726,-0.425,-0.190
1727,-0.465,-0.205
1728,-0.505,-0.235
1729,-0.530,-0.270
1730,-0.535,-0.310
1731,-0.565,-0.350
1732,-0.615,-0.375
1733,-0.665,-0.440
1734,-0.705,-0.485
1735,-0.750,-0.510
1736,-0.780,-0.540
1737,-0.790,-0.540
1738,-0.800,-0.550
1739,-0.800,-0.575
1740,-0.820,-0.585
1741,-0.845,-0.625
1742,-0.865,-0.640
1743,-0.875,-0.650
1744,-0.895,-0.655
1745,-0.890,-0.630
1746,-0.890,-0.635
1747,-0.870,-0.630
1748,-0.905,-0.630
1749,-0.895,-0.655
1750,-0.895,-0.670
1751,-0.905,-0.680
1752,-0.915,-0.670
1753,-0.910,-0.660
1754,-0.900,-0.645
1755,-0.880,-0.640
1756,-0.870,-0.640
1757,-0.885,-0.660
1758,-0.890,-0.670
1759,-0.885,-0.680
1760,-0.900,-0.675
1761,-0.895,-0.675
1762,-0.885,-0.655
1763,-0.875,-0.645
1764,-0.860,-0.640
1765,-0.860,-0.650
1766,-0.865,-0.665
1767,-0.870,-0.660
1768,-0.875,-0.675
1769,-0.880,-0.675
1770,-0.885,-0.660
1771,-0.875,-0.650
1772,-0.875,-0.630
1773,-0.860,-0.640
1774,-0.850,-0.655
1775,-0.850,-0.660
1776,-0.880,-0.660
1777,-0.895,-0.665
1778,-0.910,-0.640
1779,-0.895,-0.640
1780,-0.880,-0.625
1781,-0.870,-0.630
1782,-0.885,-0.645
1783,-0.890,-0.645
1784,-0.900,-0.665
1785,-0.920,-0.675
1786,-0.920,-0.675
1787,-0.905,-0.660
1788,-0.900,-0.645
1789,-0.890,-0.650
1790,-0.905,-0.660
1791,-0.905,-0.675
1792,-0.925,-0.680
1793,-0.930,-0.690
1794,-0.935,-0.685
1795,-0.940,-0.670
1796,-0.930,-0.655
1797,-0.905,-0.670
1798,-0.910,-0.660
1799,-0.905,-0.665
1800,-0.900,-0.675
1801,-0.920,-0.710
1802,-0.940,-0.705
1803,-0.935,-0.690
1804,-0.925,-0.675
1805,-0.915,-0.655
1806,-0.900,-0.660
1807,-0.915,-0.665
1808,-0.915,-0.685
1809,-0.935,-0.675
1810,-0.940,-0.695
1811,-0.940,-0.690
1812,-0.930,-0.675
1813,-0.910,-0.660
1814,-0.895,-0.655
1815,-0.900,-0.660
1816,-0.905,-0.685
1817,-0.915,-0.690
1818,-0.925,-0.705
1819,-0.930,-0.695
1820,-0.930,-0.675
1821,-0.915,-0.680
1822,-0.910,-0.675
1823,-0.905,-0.665
1824,-0.910,-0.690
1825,-0.905,-0.705
1826,-0.915,-0.705
1827,-0.930,-0.715
1828,-0.940,-0.685
1829,-0.930,-0.675
1830,-0.915,-0.665
1831,-0.895,-0.680
1832,-0.925,-0.675
1833,-0.920,-0.695
1834,-0.935,-0.700
1835,-0.925,-0.710
1836,-0.945,-0.710
1837,-0.935,-0.675
1838,-0.910,-0.670
1839,-0.900,-0.675
1840,-0.895,-0.675
1841,-0.895,-0.690
1842,-0.900,-0.700
1843,-0.930,-0.700
1844,-0.930,-0.700
1845,-0.935,-0.690
1846,-0.925,-0.670
1847,-0.905,-0.670
1848,-0.910,-0.675
1849,-0.920,-0.675
1850,-0.915,-0.685
1851,-0.925,-0.700
1852,-0.940,-0.705
1853,-0.930,-0.700
1854,-0.925,-0.690
1855,-0.905,-0.685
1856,-0.890,-0.675
1857,-0.895,-0.670
1858,-0.895,-0.705
1859,-0.910,-0.715
1860,-0.920,-0.710
1861,-0.930,-0.710
1862,-0.915,-0.695
1863,-0.900,-0.680
1864,-0.905,-0.685
1865,-0.900,-0.685
1866,-0.905,-0.715
1867,-0.905,-0.720
1868,-0.910,-0.720
1869,-0.925,-0.715
1870,-0.915,-0.705
1871,-0.915,-0.680
1872,-0.895,-0.675
1873,-0.920,-0.680
1874,-0.920,-0.685
1875,-0.910,-0.700
1876,-0.920,-0.710
1877,-0.920,-0.715
1878,-0.920,-0.695
1879,-0.910,-0.690
1880,-0.900,-0.675
1881,-0.880,-0.680
1882,-0.890,-0.680
1883,-0.900,-0.690
1884,-0.905,-0.710
1885,-0.910,-0.725
1886,-0.925,-0.710
1887,-0.910,-0.690
1888,-0.885,-0.670
1889,-0.855,-0.680
1890,-0.840,-0.700
1891,-0.840,-0.705
1892,-0.845,-0.720
1893,-0.845,-0.730
1894,-0.840,-0.715
1895,-0.845,-0.690
1896,-0.800,-0.675
1897,-0.770,-0.655
1898,-0.745,-0.635
1899,-0.745,-0.635
1900,-0.755,-0.630
1901,-0.760,-0.610
1902,-0.780,-0.600
1903,-0.805,-0.585
1904,-0.795,-0.560
1905,-0.785,-0.550
1906,-0.785,-0.550
1907,-0.810,-0.565
1908,-0.820,-0.580
1909,-0.845,-0.595
1910,-0.875,-0.595
1911,-0.890,-0.625
1912,-0.905,-0.625
1913,-0.900,-0.645
1914,-0.895,-0.660
1915,-0.895,-0.670
1916,-0.930,-0.680
1917,-0.930,-0.700
1918,-0.930,-0.720
1919,-0.935,-0.700
1920,-0.930,-0.705
1921,-0.935,-0.700
1922,-0.905,-0.700
1923,-0.905,-0.710
1924,-0.900,-0.725
1925,-0.905,-0.730
1926,-0.930,-0.740
1927,-0.960,-0.745
1928,-0.960,-0.725
1929,-0.940,-0.715
1930,-0.925,-0.685
1931,-0.900,-0.700
1932,-0.890,-0.705
1933,-0.865,-0.730
1934,-0.805,-0.725
1935,-0.710,-0.625
1936,-0.560,-0.440
1937,-0.375,-0.175
1938,-0.175,0.120
1939,-0.075,0.405
1940,-0.095,0.675
1941,-0.245,0.805
1942,-0.535,0.675
1943,-0.860,0.360
1944,-1.165,-0.100
1945,-1.345,-0.525
1946,-1.350,-0.755
1947,-1.235,-0.750
1948,-1.105,-0.640
1949,-1.020,-0.575
1950,-1.005,-0.565
1951,-0.950,-0.610
1952,-0.935,-0.650
1953,-0.900,-0.645
1954,-0.890,-0.640
1955,-0.890,-0.645
1956,-0.885,-0.650
1957,-0.870,-0.660
1958,-0.875,-0.670
1959,-0.885,-0.685
1960,-0.890,-0.695
1961,-0.900,-0.675
1962,-0.875,-0.660
1963,-0.865,-0.655
1964,-0.840,-0.660
1965,-0.835,-0.640
1966,-0.855,-0.635
1967,-0.865,-0.660
1968,-0.870,-0.660
1969,-0.880,-0.670
1970,-0.855,-0.640
1971,-0.830,-0.625
1972,-0.820,-0.615
1973,-0.815,-0.605
1974,-0.820,-0.610
1975,-0.825,-0.605
1976,-0.830,-0.630
1977,-0.825,-0.625
1978,-0.830,-0.620
1979,-0.815,-0.595
1980,-0.795,-0.580
1981,-0.770,-0.575
1982,-0.770,-0.565
1983,-0.765,-0.585
1984,-0.770,-0.575
1985,-0.790,-0.570
1986,-0.780,-0.560
1987,-0.765,-0.535
1988,-0.740,-0.505
1989,-0.735,-0.510
1990,-0.710,-0.490
1991,-0.710,-0.490
1992,-0.715,-0.500
1993,-0.720,-0.485
1994,-0.710,-0.470
1995,-0.685,-0.445
1996,-0.665,-0.420
1997,-0.630,-0.395
1998,-0.615,-0.395
1999,-0.600,-0.365
2000,-0.590,-0.360
2001,-0.585,-0.350
2002,-0.580,-0.335
2003,-0.560,-0.300
2004,-0.530,-0.285
2005,-0.495,-0.235
2006,-0.470,-0.235
2007,-0.460,-0.220
2008,-0.450,-0.225
2009,-0.450,-0.215
2010,-0.450,-0.200
2011,-0.430,-0.185
2012,-0.410,-0.155
2013,-0.385,-0.130
2014,-0.360,-0.120
2015,-0.350,-0.105
2016,-0.355,-0.125
2017,-0.385,-0.140
2018,-0.395,-0.150
2019,-0.415,-0.160
2020,-0.405,-0.150
2021,-0.425,-0.175
2022,-0.450,-0.195
2023,-0.470,-0.215
2024,-0.500,-0.265
2025,-0.515,-0.280
2026,-0.580,-0.340
2027,-0.625,-0.380
2028,-0.640,-0.425
2029,-0.675,-0.425
2030,-0.690,-0.450
2031,-0.705,-0.470
2032,-0.745,-0.520
2033,-0.785,-0.555
2034,-0.815,-0.600
2035,-0.850,-0.615
2036,-0.855,-0.625
2037,-0.855,-0.635
2038,-0.850,-0.620
2039,-0.850,-0.605
2040,-0.860,-0.630
2041,-0.875,-0.655
2042,-0.870,-0.665
2043,-0.890,-0.675
2044,-0.905,-0.680
2045,-0.915,-0.670
2046,-0.900,-0.655
2047,-0.885,-0.640
2048,-0.890,-0.645
2049,-0.880,-0.660
2050,-0.870,-0.665
2051,-0.875,-0.675
2052,-0.900,-0.680
2053,-0.900,-0.675
2054,-0.885,-0.645
2055,-0.865,-0.655
2056,-0.855,-0.645
2057,-0.860,-0.640
2058,-0.865,-0.650
2059,-0.880,-0.665
2060,-0.890,-0.660
2061,-0.890,-0.670
2062,-0.875,-0.665
2063,-0.875,-0.660
2064,-0.875,-0.640
2065,-0.885,-0.660
2066,-0.865,-0.660
2067,-0.880,-0.675
2068,-0.880,-0.685
2069,-0.895,-0.675
2070,-0.890,-0.670
2071,-0.885,-0.640
2072,-0.870,-0.625
2073,-0.870,-0.650
2074,-0.855,-0.640
2075,-0.860,-0.655
2076,-0.890,-0.665
2077,-0.900,-0.680
2078,-0.895,-0.680
2079,-0.900,-0.655
2080,-0.885,-0.645
2081,-0.885,-0.655
2082,-0.890,-0.660
2083,-0.895,-0.675
2084,-0.900,-0.685
2085,-0.910,-0.685
2086,-0.920,-0.680
2087,-0.915,-0.675
2088,-0.900,-0.655
2089,-0.890,-0.660
2090,-0.905,-0.665
2091,-0.905,-0.685
2092,-0.905,-0.695
2093,-0.910,-0.705
2094,-0.920,-0.710
2095,-0.930,-0.705
2096,-0.915,-0.695
2097,-0.920,-0.695
2098,-0.925,-0.675
2099,-0.935,-0.675
2100,-0.930,-0.680
2101,-0.950,-0.700
2102,-0.940,-0.705
2103,-0.945,-0.705
2104,-0.925,-0.700
2105,-0.910,-0.680
2106,-0.905,-0.670
2107,-0.910,-0.680
2108,-0.910,-0.685
2109,-0.925,-0.710
2110,-0.930,-0.720
2111,-0.935,-0.715
2112,-0.925,-0.690
2113,-0.925,-0.680
2114,-0.920,-0.670
2115,-0.910,-0.665
2116,-0.935,-0.685
2117,-0.940,-0.705
2118,-0.935,-0.715
2119,-0.945,-0.705
2120,-0.960,-0.710
2121,-0.940,-0.690
2122,-0.930,-0.705
2123,-0.910,-0.705
2124,-0.920,-0.700
2125,-0.915,-0.690
2126,-0.925,-0.735
2127,-0.930,-0.730
2128,-0.950,-0.710
2129,-0.930,-0.715
2130,-0.920,-0.705
2131,-0.910,-0.695
2132,-0.910,-0.710
2133,-0.920,-0.710
2134,-0.925,-0.710
2135,-0.935,-0.730
2136,-0.925,-0.700
2137,-0.935,-0.705
2138,-0.925,-0.685
2139,-0.915,-0.675
2140,-0.915,-0.685
2141,-0.910,-0.695
2142,-0.915,-0.700
2143,-0.920,-0.720
2144,-0.945,-0.710
2145,-0.935,-0.695
2146,-0.925,-0.675
2147,-0.905,-0.675
2148,-0.885,-0.695
2149,-0.895,-0.695
2150,-0.895,-0.710
2151,-0.920,-0.715
2152,-0.930,-0.725
2153,-0.925,-0.710
2154,-0.920,-0.690
2155,-0.885,-0.690
2156,-0.890,-0.680
2157,-0.890,-0.705
2158,-0.895,-0.710
2159,-0.925,-0.720
2160,-0.930,-0.725
2161,-0.935,-0.720
2162,-0.925,-0.690
2163,-0.910,-0.685
2164,-0.905,-0.670
2165,-0.890,-0.690
2166,-0.895,-0.705
2167,-0.910,-0.710
2168,-0.920,-0.725
2169,-0.920,-0.710
2170,-0.905,-0.715
2171,-0.885,-0.680
2172,-0.880,-0.675
2173,-0.880,-0.680
2174,-0.885,-0.695
2175,-0.885,-0.700
2176,-0.895,-0.715
2177,-0.885,-0.715
2178,-0.880,-0.710
2179,-0.855,-0.700
2180,-0.850,-0.705
2181,-0.855,-0.700
2182,-0.830,-0.700
2183,-0.825,-0.710
2184,-0.815,-0.700
2185,-0.800,-0.700
2186,-0.790,-0.675
2187,-0.755,-0.640
2188,-0.740,-0.605
2189,-0.745,-0.575
2190,-0.750,-0.570
2191,-0.780,-0.580
2192,-0.800,-0.600
2193,-0.815,-0.605
2194,-0.840,-0.590
2195,-0.860,-0.595
2196,-0.870,-0.610
2197,-0.890,-0.600
2198,-0.895,-0.625
2199,-0.880,-0.650
2200,-0.880,-0.660
2201,-0.915,-0.690
2202,-0.925,-0.700
2203,-0.920,-0.705
2204,-0.910,-0.685
2205,-0.920,-0.680
2206,-0.910,-0.680
2207,-0.905,-0.685
2208,-0.910,-0.695
2209,-0.930,-0.720
2210,-0.945,-0.735
2211,-0.940,-0.730
2212,-0.925,-0.725
2213,-0.915,-0.710
2214,-0.910,-0.705
2215,-0.925,-0.715
2216,-0.915,-0.715
2217,-0.910,-0.740
2218,-0.925,-0.730
2219,-0.935,-0.735
2220,-0.915,-0.730
2221,-0.880,-0.725
2222,-0.790,-0.690
2223,-0.675,-0.600
2224,-0.540,-0.425
2225,-0.485,-0.365
2226,-0.320,0.045
2227,-0.285,0.250
2228,-0.365,0.425
2229,-0.530,0.490
2230,-0.765,0.375
2231,-1.015,0.085
2232,-1.275,-0.350
2233,-1.445,-0.795
2234,-1.450,-1.085
2235,-1.340,-1.055
2236,-1.225,-0.900
2237,-1.125,-0.755
2238,-1.055,-0.705
2239,-0.985,-0.685
2240,-0.920,-0.700
2241,-0.875,-0.715
2242,-0.880,-0.730
2243,-0.895,-0.740
2244,-0.915,-0.750
2245,-0.895,-0.735
2246,-0.885,-0.725
2247,-0.865,-0.720
2248,-0.845,-0.715
2249,-0.850,-0.720
2250,-0.855,-0.715
2251,-0.865,-0.745
2252,-0.860,-0.750
2253,-0.865,-0.750
2254,-0.855,-0.725
2255,-0.845,-0.705
2256,-0.830,-0.705
2257,-0.825,-0.715
2258,-0.835,-0.710
2259,-0.840,-0.725
2260,-0.850,-0.745
2261,-0.845,-0.720
2262,-0.845,-0.710
2263,-0.820,-0.680
2264,-0.815,-0.665
2265,-0.795,-0.680
2266,-0.790,-0.685
2267,-0.795,-0.685
2268,-0.810,-0.690
2269,-0.805,-0.680
2270,-0.790,-0.655
2271,-0.790,-0.640
2272,-0.775,-0.630
2273,-0.765,-0.630
2274,-0.760,-0.625
2275,-0.755,-0.625
2276,-0.755,-0.625
2277,-0.765,-0.630
2278,-0.755,-0.610
2279,-0.730,-0.580
2280,-0.700,-0.570
2281,-0.685,-0.560
2282,-0.670,-0.550
2283,-0.670,-0.540
2284,-0.660,-0.530
2285,-0.655,-0.525
2286,-0.635,-0.500
2287,-0.620,-0.475
2288,-0.580,-0.445
2289,-0.555,-0.420
2290,-0.530,-0.410
2291,-0.510,-0.385
2292,-0.500,-0.375
2293,-0.500,-0.360
2294,-0.490,-0.330
2295,-0.465,-0.295
2296,-0.450,-0.275
2297,-0.415,-0.235
2298,-0.395,-0.225
2299,-0.390,-0.230
2300,-0.390,-0.230
2301,-0.380,-0.225
2302,-0.390,-0.220
2303,-0.395,-0.215
2304,-0.385,-0.200
2305,-0.375,-0.190
2306,-0.355,-0.205
2307,-0.370,-0.210
2308,-0.380,-0.255
2309,-0.405,-0.300
2310,-0.450,-0.320
2311,-0.465,-0.365
2312,-0.495,-0.395
2313,-0.520,-0.410
2314,-0.530,-0.435
2315,-0.575,-0.495
2316,-0.605,-0.545
2317,-0.650,-0.600
2318,-0.685,-0.635
2319,-0.725,-0.665
2320,-0.745,-0.680
2321,-0.750,-0.690
2322,-0.770,-0.700
2323,-0.820,-0.735
2324,-0.820,-0.745
2325,-0.825,-0.740
2326,-0.845,-0.780
2327,-0.845,-0.800
2328,-0.855,-0.785
2329,-0.865,-0.785
2330,-0.850,-0.775
2331,-0.840,-0.785
2332,-0.835,-0.795
2333,-0.850,-0.810
2334,-0.870,-0.835
2335,-0.875,-0.850
2336,-0.895,-0.840
2337,-0.885,-0.835
2338,-0.865,-0.825
2339,-0.855,-0.810
2340,-0.845,-0.810
2341,-0.850,-0.830
2342,-0.855,-0.840
2343,-0.870,-0.835
2344,-0.880,-0.840
2345,-0.875,-0.825
2346,-0.855,-0.810
2347,-0.850,-0.800
2348,-0.835,-0.815
2349,-0.845,-0.820
2350,-0.850,-0.825
2351,-0.855,-0.830
2352,-0.865,-0.840
2353,-0.880,-0.830
2354,-0.860,-0.805
2355,-0.845,-0.790
2356,-0.840,-0.785
2357,-0.825,-0.805
2358,-0.840,-0.810
2359,-0.855,-0.820
2360,-0.865,-0.830
2361,-0.875,-0.825
2362,-0.870,-0.825
2363,-0.855,-0.805
2364,-0.870,-0.810
2365,-0.860,-0.805
2366,-0.865,-0.825
2367,-0.890,-0.830
2368,-0.885,-0.840
2369,-0.885,-0.860
2370,-0.895,-0.835
2371,-0.890,-0.815
2372,-0.885,-0.805
2373,-0.870,-0.810
2374,-0.875,-0.835
2375,-0.880,-0.840
2376,-0.900,-0.850
2377,-0.920,-0.860
2378,-0.930,-0.850
2379,-0.900,-0.845
2380,-0.890,-0.820
2381,-0.885,-0.830
2382,-0.870,-0.845
2383,-0.905,-0.840
2384,-0.910,-0.865
2385,-0.930,-0.860
2386,-0.935,-0.860
2387,-0.920,-0.840
2388,-0.920,-0.840
2389,-0.925,-0.835
2390,-0.915,-0.850
2391,-0.900,-0.865
2392,-0.910,-0.870
2393,-0.930,-0.880
2394,-0.930,-0.870
2395,-0.915,-0.860
2396,-0.910,-0.850
2397,-0.900,-0.850
2398,-0.895,-0.845
2399,-0.900,-0.855
2400,-0.915,-0.860
2401,-0.920,-0.875
2402,-0.910,-0.870
2403,-0.915,-0.880
2404,-0.915,-0.860
2405,-0.905,-0.845
2406,-0.895,-0.835
2407,-0.895,-0.845
2408,-0.900,-0.865
2409,-0.915,-0.870
2410,-0.920,-0.875
2411,-0.925,-0.860
2412,-0.920,-0.855
2413,-0.925,-0.835
2414,-0.895,-0.835
2415,-0.895,-0.845
2416,-0.900,-0.865
2417,-0.915,-0.875
2418,-0.910,-0.865
2419,-0.915,-0.865
2420,-0.920,-0.870
2421,-0.905,-0.835
2422,-0.890,-0.845
2423,-0.890,-0.840
2424,-0.885,-0.865
2425,-0.885,-0.875
2426,-0.900,-0.885
2427,-0.915,-0.890
2428,-0.925,-0.865
2429,-0.910,-0.850
2430,-0.895,-0.850
2431,-0.885,-0.835
2432,-0.890,-0.840
2433,-0.905,-0.865
2434,-0.900,-0.870
2435,-0.935,-0.880
2436,-0.915,-0.875
2437,-0.905,-0.860
2438,-0.900,-0.840
2439,-0.885,-0.835
2440,-0.880,-0.835
2441,-0.890,-0.830
2442,-0.905,-0.865
2443,-0.910,-0.870
2444,-0.920,-0.875
2445,-0.920,-0.865
2446,-0.910,-0.835
2447,-0.895,-0.835
2448,-0.890,-0.850
2449,-0.900,-0.855
2450,-0.910,-0.860
2451,-0.915,-0.865
2452,-0.940,-0.880
2453,-0.925,-0.870
2454,-0.915,-0.855
2455,-0.895,-0.850
2456,-0.890,-0.840
2457,-0.890,-0.840
2458,-0.895,-0.860
2459,-0.905,-0.875
2460,-0.895,-0.880
2461,-0.905,-0.870
2462,-0.900,-0.860
2463,-0.890,-0.845
2464,-0.880,-0.840
2465,-0.870,-0.840
2466,-0.880,-0.855
2467,-0.890,-0.865
2468,-0.900,-0.865
2469,-0.900,-0.860
2470,-0.900,-0.850
2471,-0.885,-0.835
2472,-0.865,-0.825
2473,-0.855,-0.820
2474,-0.835,-0.835
2475,-0.835,-0.840
2476,-0.835,-0.860
2477,-0.840,-0.875
2478,-0.835,-0.870
2479,-0.825,-0.845
2480,-0.805,-0.835
2481,-0.775,-0.805
2482,-0.750,-0.815
2483,-0.755,-0.785
2484,-0.750,-0.775
2485,-0.770,-0.770
2486,-0.790,-0.745
2487,-0.795,-0.725
2488,-0.800,-0.715
2489,-0.790,-0.695
2490,-0.810,-0.720
2491,-0.820,-0.730
2492,-0.840,-0.745
2493,-0.875,-0.765
2494,-0.890,-0.785
2495,-0.880,-0.790
2496,-0.885,-0.800
2497,-0.895,-0.790
2498,-0.890,-0.810
2499,-0.890,-0.800
2500,-0.895,-0.810
2501,-0.920,-0.850
2502,-0.935,-0.850
2503,-0.950,-0.855
2504,-0.935,-0.835
2505,-0.910,-0.825
2506,-0.905,-0.820
2507,-0.910,-0.830
2508,-0.915,-0.850
2509,-0.925,-0.855
2510,-0.940,-0.860
2511,-0.950,-0.860
2512,-0.935,-0.850
2513,-0.915,-0.830
2514,-0.885,-0.825
2515,-0.885,-0.825
2516,-0.875,-0.840
2517,-0.830,-0.865
2518,-0.740,-0.825
2519,-0.605,-0.690
2520,-0.425,-0.465
2521,-0.245,-0.190
2522,-0.075,0.130
2523,0.000,0.455
2524,-0.090,0.675
2525,-0.145,0.725
2526,-0.615,0.500
2527,-0.970,0.095
2528,-1.255,-0.370
2529,-1.365,-0.755
2530,-1.315,-0.905
2531,-1.175,-0.845
2532,-1.060,-0.755
2533,-1.020,-0.710
2534,-0.975,-0.720
2535,-0.955,-0.750
2536,-0.915,-0.785
2537,-0.890,-0.800
2538,-0.875,-0.780
2539,-0.855,-0.775
2540,-0.880,-0.805
2541,-0.880,-0.825
2542,-0.885,-0.835
2543,-0.885,-0.845
2544,-0.885,-0.850
2545,-0.880,-0.835
2546,-0.880,-0.825
2547,-0.860,-0.805
2548,-0.860,-0.815
2549,-0.845,-0.820
2550,-0.840,-0.825
2551,-0.860,-0.835
2552,-0.860,-0.845
2553,-0.860,-0.835
2554,-0.845,-0.820
2555,-0.830,-0.790
2556,-0.815,-0.770
2557,-0.805,-0.770
2558,-0.810,-0.775
2559,-0.820,-0.770
2560,-0.820,-0.780
2561,-0.825,-0.780
2562,-0.825,-0.760
2563,-0.810,-0.730
2564,-0.790,-0.715
2565,-0.800,-0.720
2566,-0.780,-0.725
2567,-0.785,-0.740
2568,-0.795,-0.730
2569,-0.800,-0.725
2570,-0.805,-0.715
2571,-0.785,-0.700
2572,-0.765,-0.670
2573,-0.745,-0.670
2574,-0.740,-0.675
2575,-0.735,-0.675
2576,-0.740,-0.675
2577,-0.745,-0.660
2578,-0.720,-0.655
2579,-0.690,-0.620
2580,-0.670,-0.595
2581,-0.650,-0.580
2582,-0.630,-0.560
2583,-0.620,-0.570
2584,-0.630,-0.560
2585,-0.630,-0.535
2586,-0.600,-0.510
2587,-0.575,-0.480
2588,-0.540,-0.460
2589,-0.500,-0.410
2590,-0.470,-0.400
2591,-0.455,-0.375
2592,-0.445,-0.365
2593,-0.440,-0.360
2594,-0.445,-0.355
2595,-0.435,-0.330
2596,-0.405,-0.305
2597,-0.385,-0.290
2598,-0.375,-0.285
2599,-0.375,-0.285
2600,-0.370,-0.290
2601,-0.390,-0.310
2602,-0.390,-0.300
2603,-0.390,-0.320
2604,-0.390,-0.315
2605,-0.395,-0.320
2606,-0.415,-0.345
2607,-0.455,-0.385
2608,-0.500,-0.445
2609,-0.520,-0.485
2610,-0.580,-0.525
2611,-0.620,-0.560
2612,-0.645,-0.590
2613,-0.660,-0.605
2614,-0.680,-0.615
2615,-0.705,-0.655
2616,-0.730,-0.690
2617,-0.770,-0.715
2618,-0.810,-0.730
2619,-0.820,-0.785
2620,-0.835,-0.775
2621,-0.850,-0.760
2622,-0.840,-0.760
2623,-0.850,-0.750
2624,-0.850,-0.770
2625,-0.860,-0.780
2626,-0.865,-0.800
2627,-0.885,-0.820
2628,-0.895,-0.820
2629,-0.880,-0.795
2630,-0.870,-0.795
2631,-0.880,-0.790
2632,-0.875,-0.805
2633,-0.875,-0.820
2634,-0.880,-0.830
2635,-0.895,-0.840
2636,-0.885,-0.825
2637,-0.880,-0.805
2638,-0.875,-0.795
2639,-0.875,-0.780
2640,-0.855,-0.780
2641,-0.845,-0.795
2642,-0.860,-0.805
2643,-0.870,-0.815
2644,-0.875,-0.815
2645,-0.875,-0.810
2646,-0.855,-0.795
2647,-0.855,-0.775
2648,-0.860,-0.780
2649,-0.855,-0.785
2650,-0.855,-0.775
2651,-0.865,-0.790
2652,-0.885,-0.800
2653,-0.890,-0.795
2654,-0.900,-0.780
2655,-0.885,-0.765
2656,-0.870,-0.770
2657,-0.855,-0.760
2658,-0.865,-0.775
2659,-0.875,-0.785
2660,-0.890,-0.795
2661,-0.895,-0.800
2662,-0.885,-0.785
2663,-0.880,-0.780
2664,-0.885,-0.760
2665,-0.865,-0.775
2666,-0.875,-0.770
2667,-0.880,-0.795
2668,-0.890,-0.795
2669,-0.915,-0.810
2670,-0.915,-0.800
2671,-0.905,-0.805
2672,-0.905,-0.775
2673,-0.895,-0.795
2674,-0.890,-0.800
2675,-0.905,-0.810
2676,-0.905,-0.830
2677,-0.930,-0.840
2678,-0.925,-0.810
2679,-0.920,-0.795
2680,-0.910,-0.780
2681,-0.890,-0.775
2682,-0.895,-0.800
2683,-0.900,-0.795
2684,-0.915,-0.805
2685,-0.930,-0.810
2686,-0.940,-0.815
2687,-0.935,-0.815
2688,-0.925,-0.790
2689,-0.915,-0.765
2690,-0.895,-0.780
2691,-0.910,-0.790
2692,-0.935,-0.800
2693,-0.950,-0.810
2694,-0.950,-0.800
2695,-0.940,-0.800
2696,-0.925,-0.785
2697,-0.920,-0.765
2698,-0.900,-0.775
2699,-0.905,-0.785
2700,-0.905,-0.785
2701,-0.920,-0.805
2702,-0.935,-0.820
2703,-0.940,-0.800
2704,-0.930,-0.815
2705,-0.910,-0.780
2706,-0.900,-0.780
2707,-0.905,-0.775
2708,-0.900,-0.790
2709,-0.910,-0.800
2710,-0.920,-0.775
2711,-0.935,-0.780
2712,-0.915,-0.765
2713,-0.900,-0.750
2714,-0.885,-0.735
2715,-0.895,-0.750
2716,-0.900,-0.780
2717,-0.905,-0.785
2718,-0.920,-0.790
2719,-0.930,-0.805
2720,-0.920,-0.785
2721,-0.905,-0.770
2722,-0.910,-0.760
2723,-0.890,-0.755
2724,-0.895,-0.765
2725,-0.900,-0.785
2726,-0.910,-0.785
2727,-0.920,-0.795
2728,-0.915,-0.780
2729,-0.915,-0.760
2730,-0.900,-0.740
2731,-0.880,-0.750
2732,-0.900,-0.765
2733,-0.920,-0.770
2734,-0.930,-0.775
2735,-0.925,-0.770
2736,-0.935,-0.780
2737,-0.920,-0.760
2738,-0.915,-0.740
2739,-0.900,-0.725
2740,-0.900,-0.745
2741,-0.915,-0.755
2742,-0.905,-0.760
2743,-0.910,-0.770
2744,-0.915,-0.780
2745,-0.910,-0.775
2746,-0.905,-0.760
2747,-0.895,-0.735
2748,-0.890,-0.750
2749,-0.915,-0.755
2750,-0.910,-0.760
2751,-0.925,-0.770
2752,-0.930,-0.780
2753,-0.910,-0.775
2754,-0.925,-0.765
2755,-0.905,-0.755
2756,-0.895,-0.760
2757,-0.885,-0.770
2758,-0.900,-0.795
2759,-0.895,-0.800
2760,-0.915,-0.805
2761,-0.920,-0.795
2762,-0.915,-0.785
2763,-0.905,-0.780
2764,-0.890,-0.765
2765,-0.890,-0.760
2766,-0.890,-0.780
2767,-0.895,-0.775
2768,-0.910,-0.785
2769,-0.915,-0.790
2770,-0.905,-0.780
2771,-0.895,-0.750
2772,-0.870,-0.740
2773,-0.855,-0.765
2774,-0.855,-0.750
2775,-0.855,-0.755
2776,-0.865,-0.785
2777,-0.850,-0.755
2778,-0.845,-0.760
2779,-0.805,-0.735
2780,-0.785,-0.705
2781,-0.750,-0.690
2782,-0.725,-0.670
2783,-0.745,-0.655
2784,-0.775,-0.660
2785,-0.795,-0.655
2786,-0.820,-0.655
2787,-0.825,-0.655
2788,-0.825,-0.645
2789,-0.840,-0.650
2790,-0.850,-0.670
2791,-0.875,-0.690
2792,-0.890,-0.720
2793,-0.900,-0.740
2794,-0.920,-0.760
2795,-0.930,-0.750
2796,-0.915,-0.740
2797,-0.915,-0.735
2798,-0.910,-0.725
2799,-0.920,-0.755
2800,-0.925,-0.765
2801,-0.935,-0.790
2802,-0.955,-0.795
2803,-0.950,-0.800
2804,-0.925,-0.775
2805,-0.925,-0.775
2806,-0.910,-0.750
2807,-0.910,-0.765
2808,-0.915,-0.780
2809,-0.925,-0.790
2810,-0.940,-0.805
2811,-0.935,-0.800
2812,-0.930,-0.775
2813,-0.910,-0.765
2814,-0.860,-0.775
2815,-0.765,-0.735
2816,-0.640,-0.640
2817,-0.505,-0.450
2818,-0.385,-0.215
2819,-0.285,0.040
2820,-0.245,0.290
2821,-0.295,0.470
2822,-0.450,0.535
2823,-0.670,0.440
2824,-0.975,0.115
2825,-1.075,-0.005
2826,-1.415,-0.770
2827,-1.435,-1.030
2828,-1.330,-1.025
2829,-1.200,-0.870
2830,-1.105,-0.735
2831,-1.045,-0.700
2832,-0.995,-0.710
2833,-0.940,-0.735
2834,-0.930,-0.765
2835,-0.910,-0.775
2836,-0.910,-0.790
2837,-0.910,-0.770
2838,-0.895,-0.765
2839,-0.885,-0.750
2840,-0.865,-0.760
2841,-0.875,-0.780
2842,-0.875,-0.785
2843,-0.875,-0.800
2844,-0.880,-0.805
2845,-0.875,-0.775
2846,-0.865,-0.780
2847,-0.860,-0.760
2848,-0.865,-0.745
2849,-0.840,-0.765
2850,-0.840,-0.770
2851,-0.845,-0.785
2852,-0.850,-0.785
2853,-0.860,-0.780
2854,-0.845,-0.750
2855,-0.825,-0.740
2856,-0.830,-0.720
2857,-0.820,-0.735
2858,-0.820,-0.725
2859,-0.825,-0.735
2860,-0.820,-0.735
2861,-0.830,-0.735
2862,-0.825,-0.715
2863,-0.810,-0.700
2864,-0.785,-0.705
2865,-0.775,-0.685
2866,-0.775,-0.670
2867,-0.785,-0.685
2868,-0.790,-0.695
2869,-0.795,-0.680
2870,-0.780,-0.655
2871,-0.750,-0.630
2872,-0.735,-0.610
2873,-0.715,-0.605
2874,-0.700,-0.595
2875,-0.705,-0.590
2876,-0.690,-0.590
2877,-0.695,-0.585
2878,-0.685,-0.560
2879,-0.640,-0.520
2880,-0.615,-0.490
2881,-0.590,-0.470
2882,-0.570,-0.460
2883,-0.570,-0.445
2884,-0.565,-0.430
2885,-0.555,-0.425
2886,-0.535,-0.395
2887,-0.505,-0.370
2888,-0.470,-0.330
2889,-0.450,-0.315
2890,-0.435,-0.300
2891,-0.415,-0.305
2892,-0.420,-0.310
2893,-0.420,-0.305
2894,-0.415,-0.305
2895,-0.415,-0.295
2896,-0.405,-0.280
2897,-0.405,-0.300
2898,-0.410,-0.295
2899,-0.415,-0.325
2900,-0.425,-0.340
2901,-0.490,-0.400
2902,-0.515,-0.460
2903,-0.560,-0.480
2904,-0.585,-0.510
2905,-0.610,-0.540
2906,-0.630,-0.575
2907,-0.655,-0.610
2908,-0.705,-0.675
2909,-0.755,-0.705
2910,-0.805,-0.745
2911,-0.825,-0.760
2912,-0.850,-0.790
2913,-0.840,-0.785
2914,-0.835,-0.790
2915,-0.840,-0.805
2916,-0.855,-0.825
2917,-0.885,-0.845
2918,-0.905,-0.870
2919,-0.925,-0.895
2920,-0.935,-0.890
2921,-0.935,-0.885
2922,-0.925,-0.890
2923,-0.925,-0.885
2924,-0.920,-0.890
2925,-0.930,-0.895
2926,-0.945,-0.930
2927,-0.955,-0.940
2928,-0.960,-0.925
2929,-0.950,-0.930
2930,-0.930,-0.900
2931,-0.925,-0.900
2932,-0.915,-0.895
2933,-0.935,-0.900
2934,-0.950,-0.910
2935,-0.965,-0.920
2936,-0.950,-0.915
2937,-0.945,-0.925
2938,-0.935,-0.895
2939,-0.920,-0.875
2940,-0.910,-0.880
2941,-0.920,-0.890
2942,-0.925,-0.910
2943,-0.925,-0.915
2944,-0.950,-0.900
2945,-0.940,-0.910
2946,-0.915,-0.885
2947,-0.925,-0.880
2948,-0.900,-0.875
2949,-0.905,-0.875
2950,-0.905,-0.870
2951,-0.930,-0.900
2952,-0.935,-0.910
2953,-0.950,-0.905
2954,-0.940,-0.900
2955,-0.940,-0.895
2956,-0.930,-0.885
2957,-0.920,-0.875
2958,-0.930,-0.905
2959,-0.940,-0.910
2960,-0.965,-0.935
2961,-0.970,-0.930
2962,-0.965,-0.920
2963,-0.965,-0.910
2964,-0.960,-0.900
2965,-0.965,-0.905
2966,-0.965,-0.925
2967,-0.970,-0.925
2968,-0.980,-0.945
2969,-1.000,-0.950
2970,-1.015,-0.935
2971,-0.995,-0.930
2972,-0.985,-0.925
2973,-0.975,-0.910
2974,-0.980,-0.930
2975,-0.975,-0.935
2976,-0.985,-0.955
2977,-0.985,-0.950
2978,-1.000,-0.950
2979,-0.995,-0.945
2980,-0.980,-0.930
2981,-0.985,-0.915
2982,-0.980,-0.935
2983,-0.980,-0.940
2984,-0.990,-0.950
2985,-1.005,-0.975
2986,-1.015,-0.970
2987,-1.020,-0.955
2988,-1.000,-0.950
2989,-0.995,-0.940
2990,-0.995,-0.945
2991,-0.995,-0.955
2992,-0.995,-0.960
2993,-1.000,-0.980
2994,-1.015,-0.960
2995,-1.015,-0.960
2996,-1.010,-0.945
2997,-1.000,-0.935
2998,-0.980,-0.925
2999,-0.985,-0.945
3000,-0.990,-0.945
3001,-1.010,-0.970
3002,-1.025,-0.970
3003,-1.025,-0.960
3004,-1.015,-0.955
3005,-1.010,-0.930
3006,-0.990,-0.940
3007,-0.985,-0.935
3008,-0.990,-0.955
3009,-1.000,-0.960
3010,-1.015,-0.970
3011,-1.020,-0.970
3012,-1.005,-0.955
3013,-1.005,-0.955
3014,-0.985,-0.945
3015,-0.985,-0.940
3016,-0.990,-0.960
3017,-0.990,-0.975
3018,-1.010,-0.990
3019,-1.020,-1.000
3020,-1.015,-0.985
3021,-1.005,-0.955
3022,-0.985,-0.955
3023,-0.970,-0.935
3024,-0.985,-0.945
3025,-0.995,-0.950
3026,-1.015,-0.980
3027,-1.020,-0.975
3028,-1.035,-0.970
3029,-1.020,-0.955
3030,-0.990,-0.930
3031,-0.985,-0.945
3032,-0.985,-0.935
3033,-0.985,-0.940
3034,-0.995,-0.945
3035,-1.005,-0.960
3036,-1.015,-0.960
3037,-1.005,-0.950
3038,-1.000,-0.925
3039,-0.995,-0.925
3040,-0.985,-0.925
3041,-0.990,-0.935
3042,-1.005,-0.935
3043,-1.015,-0.960
3044,-1.030,-0.965
3045,-1.040,-0.955
3046,-1.020,-0.945
3047,-1.000,-0.930
3048,-0.985,-0.925
3049,-0.980,-0.940
3050,-0.975,-0.950
3051,-1.010,-0.955
3052,-1.020,-0.960
3053,-1.025,-0.965
3054,-1.005,-0.945
3055,-0.995,-0.935
3056,-0.975,-0.925
3057,-0.980,-0.945
3058,-0.985,-0.930
3059,-1.000,-0.955
3060,-1.005,-0.960
3061,-1.015,-0.960
3062,-1.020,-0.940
3063,-1.010,-0.925
3064,-1.000,-0.905
3065,-0.990,-0.925
3066,-0.990,-0.930
3067,-0.985,-0.940
3068,-0.985,-0.950
3069,-0.980,-0.955
3070,-0.980,-0.945
3071,-0.955,-0.950
3072,-0.935,-0.935
3073,-0.920,-0.915
3074,-0.915,-0.930
3075,-0.915,-0.930
3076,-0.895,-0.935
3077,-0.890,-0.915
3078,-0.875,-0.895
3079,-0.850,-0.860
3080,-0.845,-0.820
3081,-0.855,-0.800
3082,-0.880,-0.800
3083,-0.885,-0.810
3084,-0.900,-0.820
3085,-0.915,-0.830
3086,-0.940,-0.840
3087,-0.955,-0.825
3088,-0.955,-0.830
3089,-0.955,-0.825
3090,-0.955,-0.850
3091,-0.980,-0.885
3092,-0.985,-0.900
3093,-1.000,-0.915
3094,-1.020,-0.925
3095,-1.035,-0.925
3096,-1.030,-0.905
3097,-1.015,-0.905
3098,-1.005,-0.880
3099,-1.005,-0.925
3100,-1.010,-0.935
3101,-1.025,-0.930
3102,-1.045,-0.955
3103,-1.050,-0.955
3104,-1.030,-0.930
3105,-1.020,-0.925
3106,-1.005,-0.910
3107,-1.000,-0.920
3108,-1.000,-0.920
3109,-1.005,-0.930
3110,-0.995,-0.955
3111,-0.955,-0.945
3112,-0.820,-0.860
3113,-0.650,-0.685
3114,-0.455,-0.440
3115,-0.265,-0.150
3116,-0.140,0.150
3117,-0.150,0.440
3118,-0.295,0.615
3119,-0.560,0.560
3120,-0.880,0.285
3121,-1.205,-0.140
3122,-1.420,-0.590
3123,-1.440,-0.905
3124,-1.350,-0.965
3125,-1.305,-0.950
3126,-1.145,-0.800
3127,-1.090,-0.780
3128,-1.050,-0.805
3129,-1.020,-0.845
3130,-0.985,-0.840
3131,-0.970,-0.860
3132,-0.995,-0.870
3133,-0.985,-0.885
3134,-0.990,-0.895
3135,-1.000,-0.910
3136,-1.000,-0.920
3137,-1.005,-0.905
3138,-0.985,-0.885
3139,-0.970,-0.860
3140,-0.945,-0.875
3141,-0.955,-0.875
3142,-0.955,-0.885
3143,-0.960,-0.895
3144,-0.980,-0.880
3145,-0.980,-0.855
3146,-0.945,-0.850
3147,-0.935,-0.840
3148,-0.930,-0.835
3149,-0.930,-0.825
3150,-0.925,-0.830
3151,-0.940,-0.840
3152,-0.945,-0.850
3153,-0.935,-0.840
3154,-0.940,-0.820
3155,-0.935,-0.815
3156,-0.905,-0.790
3157,-0.895,-0.795
3158,-0.890,-0.795
3159,-0.900,-0.815
3160,-0.905,-0.815
3161,-0.900,-0.810
3162,-0.900,-0.785
3163,-0.875,-0.770
3164,-0.850,-0.740
3165,-0.840,-0.735
3166,-0.845,-0.720
3167,-0.845,-0.730
3168,-0.840,-0.745
3169,-0.845,-0.735
3170,-0.840,-0.725
3171,-0.810,-0.685
3172,-0.790,-0.665
3173,-0.770,-0.635
3174,-0.755,-0.630
3175,-0.750,-0.615
3176,-0.735,-0.630
3177,-0.725,-0.590
3178,-0.735,-0.575
3179,-0.705,-0.560
3180,-0.665,-0.515
3181,-0.630,-0.480
3182,-0.600,-0.450
3183,-0.605,-0.465
3184,-0.595,-0.450
3185,-0.585,-0.450
3186,-0.575,-0.430
3187,-0.560,-0.405
3188,-0.530,-0.365
3189,-0.505,-0.335
3190,-0.480,-0.335
3191,-0.470,-0.335
3192,-0.470,-0.345
3193,-0.480,-0.350
3194,-0.480,-0.345
3195,-0.505,-0.345
3196,-0.495,-0.345
3197,-0.515,-0.370
3198,-0.510,-0.380
3199,-0.560,-0.420
3200,-0.580,-0.440
3201,-0.650,-0.525
3202,-0.690,-0.575
3203,-0.715,-0.590
3204,-0.750,-0.605
3205,-0.775,-0.640
3206,-0.780,-0.665
3207,-0.810,-0.705
3208,-0.850,-0.725
3209,-0.890,-0.760
3210,-0.910,-0.795
3211,-0.945,-0.800
3212,-0.960,-0.800
3213,-0.955,-0.805
3214,-0.960,-0.795
3215,-0.965,-0.810
3216,-0.980,-0.825
3217,-0.985,-0.825
3218,-1.015,-0.845
3219,-1.015,-0.875
3220,-1.020,-0.855
3221,-1.000,-0.850
3222,-0.995,-0.840
3223,-0.980,-0.845
3224,-0.985,-0.845
3225,-0.980,-0.840
3226,-1.015,-0.875
3227,-1.010,-0.875
3228,-1.010,-0.880
3229,-1.000,-0.855
3230,-0.995,-0.840
3231,-0.985,-0.845
3232,-0.970,-0.830
3233,-0.980,-0.855
3234,-0.980,-0.860
3235,-0.990,-0.870
3236,-1.000,-0.870
3237,-0.995,-0.855
3238,-1.000,-0.840
3239,-0.980,-0.810
3240,-0.960,-0.820
3241,-0.965,-0.825
3242,-0.970,-0.845
3243,-0.985,-0.835
3244,-0.990,-0.840
3245,-0.980,-0.840
3246,-0.990,-0.840
3247,-0.965,-0.820
3248,-0.955,-0.825
3249,-0.975,-0.835
3250,-0.990,-0.840
3251,-0.990,-0.865
3252,-1.005,-0.875
3253,-1.015,-0.865
3254,-1.010,-0.850
3255,-1.000,-0.835
3256,-0.980,-0.830
3257,-0.975,-0.840
3258,-1.000,-0.850
3259,-1.015,-0.860
3260,-1.010,-0.865
3261,-1.020,-0.870
3262,-1.035,-0.850
3263,-1.020,-0.830
3264,-1.010,-0.815
3265,-0.990,-0.840
3266,-1.010,-0.845
3267,-1.005,-0.855
3268,-1.030,-0.855
3269,-1.040,-0.860
3270,-1.040,-0.845
3271,-1.025,-0.830
3272,-1.020,-0.820
3273,-1.000,-0.810
3274,-1.015,-0.810
3275,-1.015,-0.805
3276,-1.015,-0.835
3277,-1.030,-0.845
3278,-1.045,-0.845
3279,-1.040,-0.835
3280,-1.035,-0.830
3281,-1.035,-0.820
3282,-1.015,-0.830
3283,-1.025,-0.825
3284,-1.030,-0.825
3285,-1.035,-0.840
3286,-1.045,-0.845
3287,-1.035,-0.825
3288,-1.025,-0.815
3289,-1.015,-0.810
3290,-1.000,-0.800
3291,-1.005,-0.800
3292,-1.010,-0.825
3293,-1.030,-0.830
3294,-1.040,-0.835
3295,-1.040,-0.825
3296,-1.040,-0.815
3297,-1.020,-0.800
3298,-1.005,-0.790
3299,-1.010,-0.805
3300,-1.020,-0.805
3301,-1.015,-0.830
3302,-1.020,-0.820
3303,-1.040,-0.805
3304,-1.035,-0.800
3305,-1.030,-0.795
3306,-1.020,-0.790
3307,-1.020,-0.795
3308,-1.000,-0.810
3309,-1.010,-0.810
3310,-1.025,-0.825
3311,-1.040,-0.835
3312,-1.035,-0.820
3313,-1.015,-0.810
3314,-1.010,-0.795
3315,-1.000,-0.780
3316,-0.985,-0.790
3317,-1.005,-0.795
3318,-1.025,-0.815
3319,-1.025,-0.825
3320,-1.030,-0.810
3321,-1.025,-0.810
3322,-1.020,-0.785
3323,-1.000,-0.770
3324,-0.995,-0.775
3325,-1.005,-0.780
3326,-1.025,-0.775
3327,-1.040,-0.790
3328,-1.025,-0.795
3329,-1.030,-0.770
3330,-1.015,-0.760
3331,-1.005,-0.755
3332,-1.005,-0.770
3333,-1.010,-0.765
3334,-1.035,-0.770
3335,-1.035,-0.800
3336,-1.045,-0.800
3337,-1.025,-0.805
3338,-1.015,-0.780
3339,-1.015,-0.755
3340,-0.995,-0.750
3341,-0.995,-0.750
3342,-1.005,-0.770
3343,-1.005,-0.780
3344,-1.015,-0.780
3345,-1.015,-0.780
3346,-1.005,-0.770
3347,-1.010,-0.765
3348,-0.985,-0.755
3349,-0.990,-0.760
3350,-0.995,-0.770
3351,-1.020,-0.785
3352,-1.015,-0.775
3353,-1.015,-0.765
3354,-1.015,-0.750
3355,-1.010,-0.740
3356,-0.990,-0.725
3357,-0.980,-0.735
3358,-0.980,-0.725
3359,-0.980,-0.740
3360,-0.990,-0.755
3361,-0.975,-0.765
3362,-0.965,-0.760
3363,-0.940,-0.745
3364,-0.930,-0.725
3365,-0.900,-0.730
3366,-0.895,-0.735
3367,-0.885,-0.730
3368,-0.880,-0.715
3369,-0.855,-0.705
3370,-0.860,-0.675
3371,-0.865,-0.635
3372,-0.865,-0.605
3373,-0.865,-0.620
3374,-0.880,-0.605
3375,-0.890,-0.610
3376,-0.900,-0.615
3377,-0.935,-0.655
3378,-0.955,-0.640
3379,-0.965,-0.635
3380,-0.970,-0.640
3381,-0.965,-0.650
3382,-0.965,-0.665
3383,-0.980,-0.700
3384,-0.985,-0.710
3385,-0.985,-0.725
3386,-1.015,-0.735
3387,-1.020,-0.735
3388,-1.025,-0.710
3389,-1.005,-0.700
3390,-0.995,-0.710
3391,-0.995,-0.720
3392,-1.000,-0.730
3393,-1.005,-0.750
3394,-1.020,-0.765
3395,-1.030,-0.770
3396,-1.015,-0.750
3397,-0.995,-0.720
3398,-0.975,-0.720
3399,-0.980,-0.720
3400,-0.980,-0.725
3401,-0.985,-0.740
3402,-0.995,-0.760
3403,-0.915,-0.735
3404,-0.800,-0.635
3405,-0.645,-0.455
3406,-0.475,-0.205
3407,-0.355,0.055
3408,-0.335,0.290
3409,-0.450,0.455
3410,-0.675,0.435
3411,-0.965,0.260
3412,-1.255,-0.070
3413,-1.480,-0.485
3414,-1.590,-0.875
3415,-1.540,-1.080
3416,-1.420,-1.060
3417,-1.315,-0.895
3418,-1.255,-0.780
3419,-1.195,-0.740
3420,-1.145,-0.730
3421,-1.085,-0.710
3422,-1.000,-0.695
3423,-0.950,-0.685
3424,-0.940,-0.695
3425,-0.935,-0.700
3426,-0.965,-0.720
3427,-0.975,-0.730
3428,-0.980,-0.720
3429,-0.965,-0.705
3430,-0.960,-0.705
3431,-0.935,-0.700
3432,-0.925,-0.685
3433,-0.915,-0.695
3434,-0.925,-0.705
3435,-0.925,-0.710
3436,-0.930,-0.700
3437,-0.930,-0.700
3438,-0.920,-0.680
3439,-0.895,-0.665
3440,-0.895,-0.665
3441,-0.880,-0.655
3442,-0.875,-0.670
3443,-0.885,-0.680
3444,-0.900,-0.680
3445,-0.910,-0.650
3446,-0.890,-0.635
3447,-0.875,-0.620
3448,-0.855,-0.620
3449,-0.860,-0.620
3450,-0.860,-0.615
3451,-0.855,-0.625
3452,-0.860,-0.635
3453,-0.865,-0.615
3454,-0.860,-0.610
3455,-0.830,-0.590
3456,-0.810,-0.570
3457,-0.795,-0.565
3458,-0.785,-0.565
3459,-0.790,-0.570
3460,-0.785,-0.565
3461,-0.790,-0.545
3462,-0.775,-0.515
3463,-0.775,-0.495
3464,-0.740,-0.470
3465,-0.710,-0.460
3466,-0.680,-0.455
3467,-0.685,-0.445
3468,-0.680,-0.440
3469,-0.670,-0.425
3470,-0.650,-0.395
3471,-0.615,-0.360
3472,-0.580,-0.320
3473,-0.560,-0.295
3474,-0.540,-0.270
3475,-0.525,-0.265
3476,-0.520,-0.255
3477,-0.515,-0.240
3478,-0.500,-0.235
3479,-0.480,-0.220
3480,-0.450,-0.200
3481,-0.430,-0.175
3482,-0.425,-0.180
3483,-0.420,-0.180
3484,-0.425,-0.185
3485,-0.435,-0.200
3486,-0.445,-0.205
3487,-0.465,-0.195
3488,-0.470,-0.210
3489,-0.485,-0.215
3490,-0.485,-0.250
3491,-0.510,-0.285
3492,-0.545,-0.335
3493,-0.575,-0.390
3494,-0.630,-0.430
3495,-0.665,-0.460
3496,-0.690,-0.495
3497,-0.715,-0.525
3498,-0.745,-0.555
3499,-0.765,-0.610
3500,-0.780,-0.620
3501,-0.835,-0.680
3502,-0.870,-0.705
3503,-0.915,-0.725
3504,-0.915,-0.725
3505,-0.920,-0.725
3506,-0.910,-0.725
3507,-0.910,-0.745
3508,-0.935,-0.755
3509,-0.940,-0.765
3510,-0.955,-0.780
3511,-0.960,-0.795
3512,-0.965,-0.795
3513,-0.955,-0.775
3514,-0.955,-0.775
3515,-0.945,-0.770
3516,-0.950,-0.785
3517,-0.955,-0.795
3518,-0.965,-0.815
3519,-0.980,-0.805
3520,-0.985,-0.815
3521,-0.960,-0.790
3522,-0.945,-0.775
3523,-0.940,-0.790
3524,-0.940,-0.780
3525,-0.930,-0.775
3526,-0.945,-0.790
3527,-0.950,-0.805
3528,-0.950,-0.805
3529,-0.960,-0.780
3530,-0.935,-0.760
3531,-0.930,-0.765
3532,-0.920,-0.745
3533,-0.930,-0.760
3534,-0.935,-0.775
3535,-0.945,-0.795
3536,-0.955,-0.785
3537,-0.950,-0.770
3538,-0.950,-0.765
3539,-0.940,-0.745
3540,-0.945,-0.750
3541,-0.950,-0.770
3542,-0.955,-0.785
3543,-0.960,-0.795
3544,-0.980,-0.790
3545,-0.995,-0.780
3546,-0.990,-0.775
3547,-0.975,-0.770
3548,-0.965,-0.765
3549,-0.960,-0.780
3550,-0.960,-0.785
3551,-0.975,-0.790
3552,-1.000,-0.800
3553,-1.005,-0.800
3554,-1.010,-0.790
3555,-1.000,-0.780
3556,-0.990,-0.770
3557,-0.980,-0.770
3558,-0.980,-0.780
3559,-0.995,-0.800
3560,-1.015,-0.800
3561,-1.020,-0.805
3562,-1.035,-0.805
3563,-1.035,-0.780
3564,-1.000,-0.775
3565,-0.995,-0.770
3566,-0.985,-0.790
3567,-0.990,-0.795
3568,-1.005,-0.815
3569,-1.025,-0.820
3570,-1.030,-0.820
3571,-1.025,-0.810
3572,-1.020,-0.790
3573,-1.005,-0.800
3574,-1.010,-0.795
3575,-1.015,-0.810
3576,-1.015,-0.815
3577,-1.020,-0.805
3578,-1.040,-0.820
3579,-1.045,-0.810
3580,-1.020,-0.795
3581,-1.020,-0.790
3582,-1.015,-0.790
3583,-1.025,-0.805
3584,-1.035,-0.815
3585,-1.050,-0.830
3586,-1.045,-0.845
3587,-1.035,-0.830
3588,-1.040,-0.825
3589,-1.025,-0.810
3590,-1.020,-0.795
3591,-1.015,-0.800
3592,-1.025,-0.795
3593,-1.030,-0.810
3594,-1.040,-0.820
3595,-1.035,-0.820
3596,-1.030,-0.800
3597,-1.025,-0.795
3598,-1.010,-0.780
3599,-1.005,-0.790
3600,-1.005,-0.790
3601,-1.035,-0.825
3602,-1.045,-0.825
3603,-1.050,-0.840
3604,-1.050,-0.835
3605,-1.030,-0.800
3606,-1.020,-0.795
3607,-1.015,-0.800
3608,-1.010,-0.795
3609,-1.005,-0.805
3610,-1.015,-0.820
3611,-1.035,-0.830
3612,-1.035,-0.820
3613,-1.025,-0.795
3614,-1.010,-0.780
3615,-0.995,-0.785
3616,-0.995,-0.790
3617,-1.005,-0.805
3618,-1.015,-0.820
3619,-1.025,-0.820
3620,-1.020,-0.810
3621,-1.025,-0.785
3622,-1.010,-0.785
3623,-1.000,-0.785
3624,-0.995,-0.785
3625,-1.005,-0.780
3626,-1.020,-0.800
3627,-1.030,-0.810
3628,-1.045,-0.805
3629,-1.035,-0.790
3630,-1.020,-0.790
3631,-1.015,-0.785
3632,-1.005,-0.785
3633,-1.015,-0.800
3634,-1.020,-0.815
3635,-1.040,-0.825
3636,-1.040,-0.830
3637,-1.030,-0.810
3638,-1.020,-0.800
3639,-1.015,-0.795
3640,-1.015,-0.780
3641,-1.010,-0.800
3642,-1.025,-0.805
3643,-1.020,-0.820
3644,-1.030,-0.815
3645,-1.030,-0.815
3646,-1.025,-0.810
3647,-1.015,-0.775
3648,-0.995,-0.780
3649,-0.990,-0.780
3650,-0.995,-0.770
3651,-1.015,-0.800
3652,-1.025,-0.815
3653,-1.030,-0.805
3654,-1.040,-0.795
3655,-1.015,-0.800
3656,-0.995,-0.765
3657,-0.985,-0.770
3658,-0.975,-0.775
3659,-0.975,-0.775
3660,-0.970,-0.790
3661,-0.960,-0.800
3662,-0.965,-0.805
3663,-0.955,-0.790
3664,-0.945,-0.775
3665,-0.900,-0.765
3666,-0.875,-0.740
3667,-0.875,-0.740
3668,-0.865,-0.725
3669,-0.885,-0.715
3670,-0.895,-0.695
3671,-0.875,-0.655
3672,-0.890,-0.640
3673,-0.885,-0.625
3674,-0.895,-0.630
3675,-0.900,-0.635
3676,-0.925,-0.650
3677,-0.965,-0.665
3678,-0.970,-0.665
3679,-0.985,-0.665
3680,-0.990,-0.675
3681,-0.990,-0.685
3682,-0.990,-0.690
3683,-0.990,-0.710
3684,-0.995,-0.735
3685,-1.015,-0.750
3686,-1.040,-0.760
3687,-1.030,-0.750
3688,-1.025,-0.755
3689,-1.015,-0.755
3690,-1.000,-0.755
3691,-0.995,-0.755
3692,-1.010,-0.785
3693,-1.015,-0.795
3694,-1.035,-0.795
3695,-1.040,-0.775
3696,-1.025,-0.775
3697,-1.005,-0.765
3698,-1.010,-0.740
3699,-0.990,-0.750
3700,-0.985,-0.745
3701,-0.960,-0.775
3702,-0.895,-0.760
3703,-0.750,-0.635
3704,-0.555,-0.400
3705,-0.330,-0.095
3706,-0.135,0.255
3707,-0.075,0.605
3708,-0.180,0.815
3709,-0.430,0.835
3710,-0.780,0.555
3711,-1.150,0.135
3712,-1.415,-0.360
3713,-1.475,-0.690
3714,-1.385,-0.775
3715,-1.235,-0.680
3716,-1.130,-0.605
3717,-1.080,-0.580
3718,-1.055,-0.635
3719,-1.040,-0.675
3720,-1.015,-0.700
3721,-0.995,-0.705
3722,-0.975,-0.700
3723,-0.980,-0.690
3724,-0.975,-0.705
3725,-0.970,-0.710
3726,-0.970,-0.740
3727,-0.970,-0.745
3728,-0.990,-0.745
3729,-0.980,-0.725
3730,-0.970,-0.710
3731,-0.960,-0.705
3732,-0.940,-0.710
3733,-0.940,-0.710
3734,-0.945,-0.715
3735,-0.970,-0.715
3736,-0.980,-0.715
3737,-0.980,-0.725
3738,-0.940,-0.695
3739,-0.920,-0.680
3740,-0.905,-0.670
3741,-0.895,-0.660
3742,-0.925,-0.670
3743,-0.925,-0.695
3744,-0.930,-0.655
3745,-0.925,-0.660
3746,-0.925,-0.650
3747,-0.905,-0.630
3748,-0.880,-0.610
3749,-0.870,-0.615
3750,-0.865,-0.605
3751,-0.895,-0.630
3752,-0.895,-0.635
3753,-0.880,-0.630
3754,-0.875,-0.610
3755,-0.865,-0.580
3756,-0.850,-0.575
3757,-0.815,-0.560
3758,-0.825,-0.565
3759,-0.805,-0.560
3760,-0.805,-0.545
3761,-0.805,-0.555
3762,-0.800,-0.540
3763,-0.775,-0.495
3764,-0.750,-0.455
3765,-0.715,-0.450
3766,-0.695,-0.445
3767,-0.690,-0.425
3768,-0.675,-0.435
3769,-0.665,-0.410
3770,-0.650,-0.385
3771,-0.630,-0.345
3772,-0.605,-0.320
3773,-0.570,-0.290
3774,-0.545,-0.285
3775,-0.550,-0.275
3776,-0.520,-0.295
3777,-0.525,-0.270
3778,-0.520,-0.270
3779,-0.500,-0.245
3780,-0.475,-0.225
3781,-0.465,-0.200
3782,-0.455,-0.200
3783,-0.460,-0.215
3784,-0.460,-0.225
3785,-0.470,-0.250
3786,-0.475,-0.255
3787,-0.510,-0.260
3788,-0.520,-0.265
3789,-0.535,-0.295
3790,-0.555,-0.300
3791,-0.595,-0.330
3792,-0.625,-0.390
3793,-0.660,-0.435
3794,-0.710,-0.470
3795,-0.750,-0.495
3796,-0.780,-0.520
3797,-0.805,-0.540
3798,-0.810,-0.560
3799,-0.845,-0.590
3800,-0.860,-0.605
3801,-0.900,-0.645
3802,-0.920,-0.675
3803,-0.955,-0.685
3804,-0.965,-0.695
3805,-0.975,-0.690
3806,-0.960,-0.685
3807,-0.965,-0.700
3808,-0.965,-0.705
3809,-0.985,-0.720
3810,-0.985,-0.740
3811,-1.010,-0.740
3812,-1.005,-0.720
3813,-0.995,-0.715
3814,-0.995,-0.700
3815,-0.975,-0.720
3816,-0.975,-0.725
3817,-0.980,-0.745
3818,-0.990,-0.755
3819,-1.020,-0.755
3820,-1.010,-0.750
3821,-1.010,-0.735
3822,-0.985,-0.725
3823,-0.975,-0.710
3824,-0.965,-0.715
3825,-0.955,-0.725
3826,-0.980,-0.715
3827,-0.990,-0.730
3828,-0.995,-0.735
3829,-1.005,-0.725
3830,-1.005,-0.710
3831,-0.980,-0.700
3832,-0.955,-0.690
3833,-0.960,-0.720
3834,-0.970,-0.720
3835,-0.980,-0.725
3836,-0.990,-0.730
3837,-0.990,-0.720
3838,-0.975,-0.695
3839,-0.970,-0.670
3840,-0.950,-0.690
3841,-0.960,-0.695
3842,-0.975,-0.705
3843,-0.985,-0.715
3844,-0.985,-0.725
3845,-0.995,-0.715
3846,-1.000,-0.700
3847,-0.985,-0.680
3848,-0.990,-0.665
3849,-0.980,-0.695
3850,-0.985,-0.700
3851,-1.005,-0.715
3852,-1.025,-0.720
3853,-1.030,-0.715
3854,-1.030,-0.710
3855,-1.020,-0.680
3856,-1.005,-0.670
3857,-0.980,-0.675
3858,-0.995,-0.695
3859,-1.000,-0.715
3860,-1.025,-0.730
3861,-1.020,-0.730
3862,-1.020,-0.730
3863,-1.020,-0.710
3864,-1.020,-0.700
3865,-1.005,-0.690
3866,-0.995,-0.695
3867,-1.000,-0.715
3868,-1.015,-0.730
3869,-1.030,-0.740
3870,-1.035,-0.735
3871,-1.030,-0.715
3872,-1.025,-0.710
3873,-1.020,-0.700
3874,-1.015,-0.705
3875,-1.020,-0.705
3876,-1.030,-0.735
3877,-1.045,-0.735
3878,-1.035,-0.735
3879,-1.035,-0.720
3880,-1.020,-0.705
3881,-1.015,-0.690
3882,-1.000,-0.700
3883,-1.005,-0.705
3884,-1.030,-0.700
3885,-1.030,-0.705
3886,-1.040,-0.720
3887,-1.030,-0.710
3888,-1.035,-0.680
3889,-1.005,-0.680
3890,-1.000,-0.670
3891,-1.000,-0.690
3892,-1.005,-0.680
3893,-1.015,-0.690
3894,-1.050,-0.695
3895,-1.050,-0.705
3896,-1.045,-0.695
3897,-1.025,-0.685
3898,-1.000,-0.680
3899,-1.000,-0.690
3900,-1.000,-0.695
3901,-1.015,-0.700
3902,-1.025,-0.705
3903,-1.035,-0.710
3904,-1.025,-0.685
3905,-1.015,-0.670
3906,-1.000,-0.665
3907,-1.010,-0.650
3908,-1.005,-0.665
3909,-1.005,-0.675
3910,-1.005,-0.675
3911,-1.020,-0.685
3912,-1.030,-0.675
3913,-1.020,-0.660
3914,-1.010,-0.650
3915,-0.990,-0.635
3916,-1.010,-0.650
3917,-0.995,-0.665
3918,-1.015,-0.665
3919,-1.020,-0.675
3920,-1.015,-0.665
3921,-1.005,-0.665
3922,-1.010,-0.650
3923,-0.985,-0.640
3924,-0.980,-0.650
3925,-0.975,-0.665
3926,-1.005,-0.655
3927,-1.000,-0.670
3928,-1.010,-0.675
3929,-1.005,-0.675
3930,-0.985,-0.655
3931,-0.980,-0.635
3932,-0.960,-0.640
3933,-0.975,-0.630
3934,-0.995,-0.650
3935,-1.015,-0.660
3936,-1.020,-0.675
3937,-1.010,-0.670
3938,-0.995,-0.650
3939,-0.985,-0.645
3940,-0.975,-0.625
3941,-0.975,-0.635
3942,-0.975,-0.660
3943,-0.995,-0.670
3944,-1.005,-0.670
3945,-0.995,-0.670
3946,-0.995,-0.640
3947,-0.985,-0.615
3948,-0.970,-0.615
3949,-0.980,-0.610
3950,-0.975,-0.620
3951,-0.980,-0.650
3952,-0.995,-0.665
3953,-0.990,-0.660
3954,-0.990,-0.660
3955,-0.970,-0.635
3956,-0.965,-0.625
3957,-0.960,-0.645
3958,-0.950,-0.640
3959,-0.955,-0.650
3960,-0.970,-0.650
3961,-0.975,-0.655
3962,-0.980,-0.645
3963,-0.945,-0.630
3964,-0.935,-0.630
3965,-0.905,-0.615
3966,-0.890,-0.650
3967,-0.890,-0.635
3968,-0.890,-0.640
3969,-0.890,-0.635
3970,-0.880,-0.625
3971,-0.850,-0.585
3972,-0.825,-0.555
3973,-0.795,-0.520
3974,-0.805,-0.520
3975,-0.815,-0.515
3976,-0.830,-0.490
3977,-0.845,-0.495
3978,-0.865,-0.490
3979,-0.860,-0.485
3980,-0.860,-0.480
3981,-0.870,-0.460
3982,-0.895,-0.480
3983,-0.905,-0.510
3984,-0.920,-0.545
3985,-0.940,-0.570
3986,-0.955,-0.590
3987,-0.970,-0.585
3988,-0.960,-0.590
3989,-0.960,-0.565
3990,-0.960,-0.575
3991,-0.955,-0.580
3992,-0.965,-0.580
3993,-0.965,-0.595
3994,-0.990,-0.605
3995,-1.000,-0.620
3996,-0.990,-0.610
3997,-0.980,-0.610
3998,-0.975,-0.590
3999,-0.950,-0.585
4000,-0.955,-0.590
4001,-0.965,-0.610
4002,-0.980,-0.605
4003,-0.985,-0.605
4004,-0.975,-0.595
4005,-0.980,-0.580
4006,-0.930,-0.570
4007,-0.850,-0.555
4008,-0.735,-0.485
4009,-0.575,-0.310
4010,-0.425,-0.065
4011,-0.310,0.215
4012,-0.265,0.480
4013,-0.355,0.675
4014,-0.550,0.700
4015,-0.850,0.475
4016,-1.135,0.080
4017,-1.385,-0.395
4018,-1.485,-0.775
4019,-1.415,-0.860
4020,-1.290,-0.745
4021,-1.170,-0.590
4022,-1.080,-0.505
4023,-1.030,-0.495
4024,-0.975,-0.525
4025,-0.970,-0.535
4026,-0.920,-0.545
4027,-0.915,-0.545
4028,-0.935,-0.555
4029,-0.935,-0.550
4030,-0.935,-0.540
4031,-0.915,-0.530
4032,-0.900,-0.505
4033,-0.885,-0.515
4034,-0.895,-0.540
4035,-0.900,-0.540
4036,-0.910,-0.540
4037,-0.895,-0.520
4038,-0.890,-0.510
4039,-0.875,-0.495
4040,-0.860,-0.470
4041,-0.850,-0.495
4042,-0.850,-0.495
4043,-0.860,-0.510
4044,-0.870,-0.510
4045,-0.865,-0.505
4046,-0.840,-0.485
4047,-0.840,-0.465
4048,-0.815,-0.455
4049,-0.820,-0.455
4050,-0.815,-0.455
4051,-0.830,-0.465
4052,-0.835,-0.475
4053,-0.840,-0.480
4054,-0.825,-0.445
4055,-0.810,-0.425
4056,-0.780,-0.405
4057,-0.770,-0.395
4058,-0.770,-0.395
4059,-0.775,-0.400
4060,-0.780,-0.390
4061,-0.785,-0.395
4062,-0.760,-0.370
4063,-0.755,-0.355
4064,-0.730,-0.320
4065,-0.700,-0.300
4066,-0.685,-0.295
4067,-0.680,-0.280
4068,-0.675,-0.265
4069,-0.675,-0.270
4070,-0.655,-0.260
4071,-0.640,-0.225
4072,-0.600,-0.180
4073,-0.560,-0.175
4074,-0.535,-0.155
4075,-0.530,-0.150
4076,-0.510,-0.135
4077,-0.505,-0.120
4078,-0.490,-0.095
4079,-0.465,-0.060
4080,-0.440,-0.015
4081,-0.405,0.020
4082,-0.385,0.025
4083,-0.380,0.035
4084,-0.375,0.035
4085,-0.365,0.025
4086,-0.375,0.030
4087,-0.370,0.045
4088,-0.360,0.065
4089,-0.345,0.075
4090,-0.350,0.070
4091,-0.345,0.055
4092,-0.365,0.045
4093,-0.400,0.005
4094,-0.440,-0.035
4095,-0.450,-0.055
4096,-0.465,-0.075
4097,-0.485,-0.090
4098,-0.510,-0.135
4099,-0.540,-0.175
4100,-0.555,-0.195
4101,-0.625,-0.270
4102,-0.675,-0.325
4103,-0.725,-0.365
4104,-0.760,-0.400
4105,-0.775,-0.415
4106,-0.795,-0.430
4107,-0.810,-0.455
4108,-0.825,-0.470
4109,-0.835,-0.510
4110,-0.865,-0.525
4111,-0.895,-0.535
4112,-0.890,-0.555
4113,-0.880,-0.555
4114,-0.885,-0.535
4115,-0.885,-0.545
4116,-0.870,-0.560
4117,-0.895,-0.555
4118,-0.905,-0.575
4119,-0.900,-0.585
4120,-0.910,-0.585
4121,-0.895,-0.570
4122,-0.890,-0.550
4123,-0.885,-0.535
4124,-0.885,-0.530
4125,-0.890,-0.535
4126,-0.910,-0.545
4127,-0.905,-0.560
4128,-0.915,-0.550
4129,-0.910,-0.555
4130,-0.890,-0.555
4131,-0.895,-0.530
4132,-0.880,-0.515
4133,-0.875,-0.540
4134,-0.885,-0.550
4135,-0.890,-0.560
4136,-0.900,-0.555
4137,-0.890,-0.560
4138,-0.875,-0.535
4139,-0.875,-0.525
4140,-0.865,-0.510
4141,-0.860,-0.510
4142,-0.865,-0.530
4143,-0.880,-0.535
4144,-0.895,-0.550
4145,-0.895,-0.545
4146,-0.900,-0.535
4147,-0.895,-0.515
4148,-0.890,-0.520
4149,-0.870,-0.515
4150,-0.870,-0.510
4151,-0.895,-0.540
4152,-0.905,-0.545
4153,-0.915,-0.545
4154,-0.905,-0.535
4155,-0.900,-0.525
4156,-0.900,-0.515
4157,-0.905,-0.520
4158,-0.895,-0.530
4159,-0.905,-0.540
4160,-0.920,-0.560
4161,-0.925,-0.570
4162,-0.920,-0.565
4163,-0.925,-0.555
4164,-0.915,-0.540
4165,-0.915,-0.545
4166,-0.925,-0.545
4167,-0.915,-0.575
4168,-0.925,-0.585
4169,-0.935,-0.580
4170,-0.940,-0.585
4171,-0.930,-0.585
4172,-0.925,-0.570
4173,-0.905,-0.555
4174,-0.900,-0.550
4175,-0.905,-0.560
4176,-0.905,-0.580
4177,-0.930,-0.585
4178,-0.940,-0.590
4179,-0.925,-0.575
4180,-0.920,-0.565
4181,-0.910,-0.550
4182,-0.910,-0.555
4183,-0.910,-0.565
4184,-0.910,-0.570
4185,-0.935,-0.575
4186,-0.940,-0.590
4187,-0.950,-0.600
4188,-0.945,-0.565
4189,-0.925,-0.585
4190,-0.920,-0.560
4191,-0.915,-0.585
4192,-0.915,-0.595
4193,-0.925,-0.610
4194,-0.955,-0.620
4195,-0.945,-0.615
4196,-0.945,-0.605
4197,-0.935,-0.585
4198,-0.930,-0.565
4199,-0.925,-0.575
4200,-0.940,-0.570
4201,-0.930,-0.605
4202,-0.950,-0.615
4203,-0.945,-0.615
4204,-0.945,-0.615
4205,-0.930,-0.595
4206,-0.925,-0.580
4207,-0.920,-0.575
4208,-0.920,-0.585
4209,-0.940,-0.605
4210,-0.940,-0.595
4211,-0.965,-0.600
4212,-0.950,-0.610
4213,-0.950,-0.585
4214,-0.940,-0.585
4215,-0.920,-0.560
4216,-0.905,-0.575
4217,-0.915,-0.590
4218,-0.935,-0.600
4219,-0.955,-0.610
4220,-0.965,-0.620
4221,-0.950,-0.605
4222,-0.940,-0.605
4223,-0.925,-0.570
4224,-0.920,-0.585
4225,-0.910,-0.600
4226,-0.935,-0.610
4227,-0.945,-0.620
4228,-0.950,-0.630
4229,-0.950,-0.605
4230,-0.945,-0.605
4231,-0.930,-0.595
4232,-0.935,-0.585
4233,-0.925,-0.600
4234,-0.930,-0.600
4235,-0.935,-0.630
4236,-0.940,-0.630
4237,-0.945,-0.625
4238,-0.950,-0.600
4239,-0.925,-0.590
4240,-0.920,-0.580
4241,-0.920,-0.585
4242,-0.905,-0.600
4243,-0.930,-0.605
4244,-0.930,-0.615
4245,-0.940,-0.620
4246,-0.930,-0.600
4247,-0.940,-0.585
4248,-0.915,-0.570
4249,-0.910,-0.590
4250,-0.905,-0.585
4251,-0.910,-0.615
4252,-0.900,-0.625
4253,-0.900,-0.645
4254,-0.885,-0.630
4255,-0.865,-0.625
4256,-0.840,-0.595
4257,-0.810,-0.590
4258,-0.790,-0.580
4259,-0.775,-0.580
4260,-0.780,-0.565
4261,-0.780,-0.535
4262,-0.790,-0.540
4263,-0.795,-0.500
4264,-0.815,-0.485
4265,-0.810,-0.475
4266,-0.825,-0.460
4267,-0.845,-0.475
4268,-0.860,-0.500
4269,-0.890,-0.520
4270,-0.910,-0.555
4271,-0.910,-0.540
4272,-0.920,-0.550
4273,-0.910,-0.560
4274,-0.915,-0.570
4275,-0.915,-0.580
4276,-0.945,-0.600
4277,-0.975,-0.615
4278,-0.990,-0.620
4279,-0.980,-0.630
4280,-0.960,-0.600
4281,-0.945,-0.600
4282,-0.940,-0.610
4283,-0.935,-0.615
4284,-0.945,-0.625
4285,-0.970,-0.640
4286,-0.975,-0.635
4287,-0.980,-0.630
4288,-0.960,-0.615
4289,-0.945,-0.590
4290,-0.935,-0.590
4291,-0.935,-0.585
4292,-0.920,-0.620
4293,-0.865,-0.640
4294,-0.765,-0.575
4295,-0.640,-0.425
4296,-0.450,-0.175
4297,-0.255,0.100
4298,-0.110,0.415
4299,-0.100,0.695
4300,-0.125,0.770
4301,-0.485,0.835
4302,-0.815,0.580
4303,-1.175,0.095
4304,-1.420,-0.395
4305,-1.460,-0.695
4306,-1.345,-0.710
4307,-1.190,-0.595
4308,-1.070,-0.505
4309,-1.000,-0.490
4310,-0.975,-0.535
4311,-0.965,-0.580
4312,-0.945,-0.600
4313,-0.930,-0.600
4314,-0.915,-0.605
4315,-0.915,-0.585
4316,-0.910,-0.600
4317,-0.910,-0.605
4318,-0.915,-0.620
4319,-0.910,-0.615
4320,-0.915,-0.610
4321,-0.915,-0.585
4322,-0.900,-0.565
4323,-0.880,-0.555
4324,-0.885,-0.565
4325,-0.890,-0.575
4326,-0.880,-0.580
4327,-0.880,-0.580
4328,-0.890,-0.580
4329,-0.890,-0.565
4330,-0.870,-0.555
4331,-0.860,-0.535
4332,-0.835,-0.540
4333,-0.830,-0.545
4334,-0.835,-0.550
4335,-0.840,-0.560
4336,-0.845,-0.565
4337,-0.835,-0.545
4338,-0.840,-0.530
4339,-0.820,-0.510
4340,-0.805,-0.500
4341,-0.800,-0.510
4342,-0.785,-0.520
4343,-0.790,-0.505
4344,-0.795,-0.515
4345,-0.795,-0.495
4346,-0.805,-0.485
4347,-0.785,-0.455
4348,-0.760,-0.420
4349,-0.740,-0.430
4350,-0.740,-0.425
4351,-0.735,-0.420
4352,-0.740,-0.425
4353,-0.730,-0.410
4354,-0.730,-0.380
4355,-0.690,-0.355
4356,-0.655,-0.325
4357,-0.620,-0.315
4358,-0.610,-0.295
4359,-0.605,-0.285
4360,-0.590,-0.280
4361,-0.570,-0.270
4362,-0.570,-0.240
4363,-0.545,-0.220
4364,-0.505,-0.190
4365,-0.465,-0.170
4366,-0.440,-0.150
4367,-0.430,-0.135
4368,-0.430,-0.130
4369,-0.420,-0.140
4370,-0.415,-0.130
4371,-0.415,-0.115
4372,-0.405,-0.095
4373,-0.385,-0.080
4374,-0.370,-0.090
4375,-0.365,-0.105
4376,-0.410,-0.125
4377,-0.440,-0.170
4378,-0.485,-0.210
4379,-0.515,-0.220
4380,-0.550,-0.255
4381,-0.565,-0.270
4382,-0.595,-0.290
4383,-0.635,-0.355
4384,-0.680,-0.390
4385,-0.725,-0.445
4386,-0.780,-0.480
4387,-0.815,-0.500
4388,-0.830,-0.515
4389,-0.855,-0.530
4390,-0.850,-0.540
4391,-0.860,-0.575
4392,-0.885,-0.590
4393,-0.895,-0.615
4394,-0.915,-0.630
4395,-0.935,-0.640
4396,-0.945,-0.630
4397,-0.940,-0.620
4398,-0.920,-0.625
4399,-0.920,-0.630
4400,-0.915,-0.635
4401,-0.940,-0.650
4402,-0.940,-0.655
4403,-0.955,-0.665
4404,-0.970,-0.650
4405,-0.960,-0.635
4406,-0.935,-0.630
4407,-0.925,-0.625
4408,-0.930,-0.635
4409,-0.925,-0.650
4410,-0.935,-0.665
4411,-0.965,-0.655
4412,-0.955,-0.640
4413,-0.955,-0.640
4414,-0.950,-0.625
4415,-0.920,-0.615
4416,-0.925,-0.625
4417,-0.920,-0.635
4418,-0.925,-0.645
4419,-0.940,-0.640
4420,-0.950,-0.655
4421,-0.950,-0.650
4422,-0.945,-0.630
4423,-0.935,-0.645
4424,-0.925,-0.620
4425,-0.930,-0.635
4426,-0.935,-0.630
4427,-0.940,-0.640
4428,-0.935,-0.665
4429,-0.950,-0.645
4430,-0.940,-0.620
4431,-0.930,-0.620
4432,-0.915,-0.625
4433,-0.910,-0.635
4434,-0.935,-0.640
4435,-0.950,-0.655
4436,-0.980,-0.655
4437,-0.980,-0.650
4438,-0.980,-0.640
4439,-0.960,-0.625
4440,-0.960,-0.615
4441,-0.965,-0.630
4442,-0.965,-0.630
4443,-0.975,-0.650
4444,-1.000,-0.655
4445,-1.015,-0.645
4446,-1.005,-0.650
4447,-0.985,-0.645
4448,-0.970,-0.625
4449,-0.970,-0.625
4450,-0.975,-0.625
4451,-0.990,-0.650
4452,-0.995,-0.670
4453,-1.010,-0.670
4454,-1.010,-0.660
4455,-0.995,-0.645
4456,-0.985,-0.650
4457,-0.970,-0.650
4458,-0.980,-0.650
4459,-0.985,-0.650
4460,-1.000,-0.675
4461,-1.010,-0.680
4462,-1.020,-0.680
4463,-1.000,-0.655
4464,-0.995,-0.650
4465,-1.000,-0.635
4466,-1.000,-0.635
4467,-0.995,-0.650
4468,-0.995,-0.655
4469,-1.000,-0.675
4470,-1.005,-0.665
4471,-1.020,-0.660
4472,-1.000,-0.635
4473,-0.995,-0.630
4474,-0.990,-0.625
4475,-1.000,-0.625
4476,-1.000,-0.645
4477,-1.010,-0.660
4478,-1.010,-0.655
4479,-1.020,-0.645
4480,-1.005,-0.640
4481,-0.990,-0.645
4482,-0.985,-0.625
4483,-0.980,-0.635
4484,-0.995,-0.650
4485,-1.000,-0.660
4486,-1.010,-0.665
4487,-1.020,-0.665
4488,-1.000,-0.655
4489,-1.000,-0.635
4490,-0.990,-0.635
4491,-0.985,-0.650
4492,-1.000,-0.655
4493,-1.000,-0.665
4494,-0.990,-0.670
4495,-1.005,-0.670
4496,-1.015,-0.650
4497,-1.010,-0.645
4498,-0.995,-0.620
4499,-0.985,-0.640
4500,-0.990,-0.645
4501,-0.995,-0.640
4502,-1.025,-0.630
4503,-1.025,-0.650
4504,-1.035,-0.645
4505,-1.035,-0.640
4506,-1.000,-0.630
4507,-0.980,-0.635
4508,-0.975,-0.620
4509,-0.980,-0.640
4510,-0.990,-0.645
4511,-1.005,-0.660
4512,-1.030,-0.660
4513,-1.020,-0.635
4514,-1.010,-0.615
4515,-0.995,-0.610
4516,-0.975,-0.630
4517,-0.965,-0.620
4518,-0.980,-0.640
4519,-0.985,-0.645
4520,-0.995,-0.655
4521,-1.000,-0.640
4522,-1.000,-0.635
4523,-0.975,-0.615
4524,-0.985,-0.625
4525,-0.995,-0.630
4526,-0.975,-0.655
4527,-0.990,-0.670
4528,-0.995,-0.680
4529,-1.010,-0.655
4530,-1.000,-0.640
4531,-0.995,-0.635
4532,-0.970,-0.615
4533,-0.980,-0.630
4534,-0.980,-0.635
4535,-0.985,-0.645
4536,-0.995,-0.655
4537,-1.000,-0.650
4538,-0.995,-0.625
4539,-0.985,-0.620
4540,-0.980,-0.615
4541,-0.980,-0.615
4542,-0.990,-0.625
4543,-0.990,-0.630
4544,-1.005,-0.640
4545,-1.005,-0.635
4546,-0.995,-0.615
4547,-0.960,-0.610
4548,-0.940,-0.610
4549,-0.915,-0.630
4550,-0.910,-0.635
4551,-0.915,-0.630
4552,-0.935,-0.635
4553,-0.920,-0.640
4554,-0.905,-0.625
4555,-0.865,-0.595
4556,-0.835,-0.570
4557,-0.825,-0.535
4558,-0.820,-0.525
4559,-0.830,-0.495
4560,-0.860,-0.505
4561,-0.880,-0.515
4562,-0.895,-0.500
4563,-0.890,-0.490
4564,-0.890,-0.480
4565,-0.895,-0.480
4566,-0.920,-0.485
4567,-0.935,-0.510
4568,-0.960,-0.540
4569,-0.975,-0.570
4570,-1.000,-0.590
4571,-1.010,-0.590
4572,-0.990,-0.570
4573,-0.985,-0.575
4574,-0.975,-0.585
4575,-0.975,-0.590
4576,-1.000,-0.610
4577,-1.010,-0.600
4578,-1.030,-0.620
4579,-1.025,-0.615
4580,-1.025,-0.600
4581,-1.010,-0.580
4582,-0.990,-0.580
4583,-0.995,-0.585
4584,-1.000,-0.590
4585,-1.010,-0.610
4586,-1.010,-0.605
4587,-1.005,-0.590
4588,-1.010,-0.590
4589,-1.005,-0.585
4590,-0.955,-0.580
4591,-0.860,-0.550
4592,-0.740,-0.450
4593,-0.570,-0.280
4594,-0.395,-0.045
4595,-0.240,0.235
4596,-0.175,0.530
4597,-0.205,0.760
4598,-0.345,0.880
4599,-0.605,0.755
4600,-0.700,0.680
4601,-1.220,0.000
4602,-1.430,-0.420
4603,-1.460,-0.690
4604,-1.360,-0.690
4605,-1.240,-0.580
4606,-1.135,-0.470
4607,-1.070,-0.450
4608,-1.035,-0.480
4609,-1.005,-0.515
4610,-0.980,-0.535
4611,-0.975,-0.550
4612,-0.985,-0.555
4613,-0.965,-0.550
4614,-0.955,-0.535
4615,-0.950,-0.520
4616,-0.925,-0.530
4617,-0.925,-0.535
4618,-0.940,-0.550
4619,-0.945,-0.560
4620,-0.965,-0.555
4621,-0.940,-0.535
4622,-0.930,-0.515
4623,-0.900,-0.490
4624,-0.895,-0.505
4625,-0.900,-0.520
4626,-0.915,-0.505
4627,-0.920,-0.515
4628,-0.920,-0.520
4629,-0.925,-0.520
4630,-0.915,-0.500
4631,-0.895,-0.480
4632,-0.880,-0.470
4633,-0.880,-0.485
4634,-0.880,-0.495
4635,-0.870,-0.495
4636,-0.885,-0.490
4637,-0.900,-0.480
4638,-0.875,-0.460
4639,-0.845,-0.445
4640,-0.835,-0.435
4641,-0.820,-0.415
4642,-0.840,-0.430
4643,-0.845,-0.440
4644,-0.835,-0.435
4645,-0.840,-0.420
4646,-0.835,-0.400
4647,-0.805,-0.375
4648,-0.795,-0.355
4649,-0.765,-0.345
4650,-0.775,-0.340
4651,-0.770,-0.345
4652,-0.760,-0.335
4653,-0.735,-0.320
4654,-0.725,-0.305
4655,-0.705,-0.260
4656,-0.685,-0.235
4657,-0.645,-0.215
4658,-0.630,-0.210
4659,-0.625,-0.210
4660,-0.615,-0.195
4661,-0.585,-0.190
4662,-0.580,-0.160
4663,-0.550,-0.125
4664,-0.525,-0.100
4665,-0.490,-0.060
4666,-0.475,-0.055
4667,-0.465,-0.050
4668,-0.470,-0.050
4669,-0.465,-0.035
4670,-0.455,-0.025
4671,-0.455,0.010
4672,-0.425,0.020
4673,-0.430,0.010
4674,-0.400,0.025
4675,-0.400,0.015
4676,-0.415,-0.005
4677,-0.450,-0.030
4678,-0.480,-0.055
4679,-0.510,-0.065
4680,-0.530,-0.105
4681,-0.550,-0.135
4682,-0.580,-0.175
4683,-0.620,-0.230
4684,-0.655,-0.270
4685,-0.690,-0.320
4686,-0.735,-0.345
4687,-0.770,-0.360
4688,-0.795,-0.380
4689,-0.810,-0.375
4690,-0.830,-0.410
4691,-0.860,-0.420
4692,-0.885,-0.455
4693,-0.905,-0.485
4694,-0.925,-0.495
4695,-0.935,-0.520
4696,-0.945,-0.495
4697,-0.935,-0.500
4698,-0.930,-0.500
4699,-0.930,-0.495
4700,-0.940,-0.505
4701,-0.930,-0.520
4702,-0.940,-0.530
4703,-0.960,-0.530
4704,-0.965,-0.530
4705,-0.955,-0.515
4706,-0.940,-0.495
4707,-0.915,-0.490
4708,-0.930,-0.510
4709,-0.930,-0.515
4710,-0.945,-0.520
4711,-0.940,-0.530
4712,-0.950,-0.525
4713,-0.940,-0.510
4714,-0.915,-0.490
4715,-0.900,-0.485
4716,-0.905,-0.485
4717,-0.915,-0.495
4718,-0.915,-0.505
4719,-0.915,-0.500
4720,-0.930,-0.510
4721,-0.935,-0.515
4722,-0.925,-0.500
4723,-0.925,-0.480
4724,-0.915,-0.485
4725,-0.905,-0.485
4726,-0.920,-0.500
4727,-0.925,-0.520
4728,-0.935,-0.510
4729,-0.955,-0.515
4730,-0.945,-0.495
4731,-0.935,-0.475
4732,-0.905,-0.475
4733,-0.915,-0.470
4734,-0.915,-0.480
4735,-0.935,-0.490
4736,-0.950,-0.500
4737,-0.955,-0.490
4738,-0.965,-0.475
4739,-0.950,-0.485
4740,-0.930,-0.455
4741,-0.935,-0.475
4742,-0.935,-0.475
4743,-0.970,-0.500
4744,-0.960,-0.510
4745,-0.970,-0.520
4746,-0.970,-0.505
4747,-0.970,-0.495
4748,-0.965,-0.485
4749,-0.950,-0.485
4750,-0.955,-0.485
4751,-0.955,-0.500
4752,-0.955,-0.505
4753,-0.975,-0.515
4754,-0.985,-0.515
4755,-0.985,-0.500
4756,-0.980,-0.490
4757,-0.950,-0.475
4758,-0.960,-0.495
4759,-0.965,-0.520
4760,-1.000,-0.515
4761,-0.995,-0.520
4762,-0.995,-0.505
4763,-0.990,-0.490
4764,-0.985,-0.475
4765,-0.965,-0.465
4766,-0.960,-0.465
4767,-0.980,-0.485
4768,-0.990,-0.495
4769,-0.975,-0.495
4770,-0.980,-0.510
4771,-0.990,-0.500
4772,-0.965,-0.480
4773,-0.960,-0.470
4774,-0.960,-0.470
4775,-0.965,-0.470
4776,-0.955,-0.490
4777,-0.980,-0.500
4778,-0.970,-0.505
4779,-0.980,-0.495
4780,-0.965,-0.485
4781,-0.960,-0.470
4782,-0.960,-0.465
4783,-0.960,-0.470
4784,-0.960,-0.485
4785,-0.980,-0.510
4786,-0.975,-0.505
4787,-0.990,-0.520
4788,-0.980,-0.505
4789,-0.960,-0.485
4790,-0.940,-0.470
4791,-0.965,-0.465
4792,-0.965,-0.485
4793,-0.960,-0.490
4794,-0.985,-0.495
4795,-0.985,-0.485
4796,-0.960,-0.480
4797,-0.965,-0.465
4798,-0.955,-0.455
4799,-0.950,-0.450
4800,-0.950,-0.455
4801,-0.960,-0.465
4802,-0.975,-0.480
4803,-0.990,-0.495
4804,-1.000,-0.480
4805,-0.965,-0.475
4806,-0.965,-0.465
4807,-0.955,-0.470
4808,-0.960,-0.470
4809,-0.965,-0.480
4810,-0.970,-0.485
4811,-0.975,-0.500
4812,-0.980,-0.500
4813,-0.970,-0.475
4814,-0.950,-0.465
4815,-0.940,-0.440
4816,-0.925,-0.445
4817,-0.930,-0.465
4818,-0.955,-0.485
4819,-0.955,-0.495
4820,-0.965,-0.485
4821,-0.975,-0.475
4822,-0.965,-0.455
4823,-0.960,-0.450
4824,-0.945,-0.445
4825,-0.945,-0.440
4826,-0.955,-0.460
4827,-0.960,-0.470
4828,-0.970,-0.480
4829,-0.975,-0.475
4830,-0.960,-0.450
4831,-0.950,-0.445
4832,-0.935,-0.445
4833,-0.930,-0.445
4834,-0.920,-0.450
4835,-0.925,-0.470
4836,-0.915,-0.475
4837,-0.925,-0.475
4838,-0.900,-0.475
4839,-0.920,-0.470
4840,-0.880,-0.455
4841,-0.875,-0.455
4842,-0.870,-0.460
4843,-0.850,-0.460
4844,-0.835,-0.445
4845,-0.830,-0.435
4846,-0.820,-0.405
4847,-0.805,-0.365
4848,-0.800,-0.345
4849,-0.810,-0.335
4850,-0.820,-0.335
4851,-0.835,-0.350
4852,-0.845,-0.355
4853,-0.855,-0.360
4854,-0.890,-0.360
4855,-0.925,-0.360
4856,-0.915,-0.355
4857,-0.935,-0.365
4858,-0.925,-0.395
4859,-0.940,-0.425
4860,-0.960,-0.445
4861,-0.965,-0.460
4862,-0.980,-0.460
4863,-0.990,-0.460
4864,-0.990,-0.450
4865,-0.970,-0.450
4866,-0.970,-0.455
4867,-0.965,-0.480
4868,-0.965,-0.495
4869,-0.985,-0.505
4870,-0.990,-0.500
4871,-0.985,-0.475
4872,-0.980,-0.475
4873,-0.960,-0.470
4874,-0.945,-0.470
4875,-0.955,-0.465
4876,-0.955,-0.480
4877,-0.965,-0.490
4878,-0.935,-0.500
4879,-0.865,-0.460
4880,-0.730,-0.340
4881,-0.580,-0.125
4882,-0.405,0.130
4883,-0.280,0.395
4884,-0.275,0.635
4885,-0.425,0.740
4886,-0.645,0.710
4887,-0.925,0.500
4888,-1.215,0.120
4889,-1.430,-0.315
4890,-1.500,-0.665
4891,-1.425,-0.790
4892,-1.285,-0.670
4893,-1.190,-0.535
4894,-1.135,-0.470
4895,-1.080,-0.455
4896,-1.050,-0.455
4897,-0.985,-0.445
4898,-0.945,-0.425
4899,-0.920,-0.430
4900,-0.920,-0.435
4901,-0.930,-0.455
4902,-0.950,-0.480
4903,-0.965,-0.490
4904,-0.945,-0.460
4905,-0.925,-0.455
4906,-0.915,-0.440
4907,-0.885,-0.435
4908,-0.885,-0.445
4909,-0.880,-0.435
4910,-0.890,-0.455
4911,-0.890,-0.445
4912,-0.900,-0.430
4913,-0.885,-0.435
4914,-0.865,-0.390
4915,-0.845,-0.390
4916,-0.855,-0.400
4917,-0.840,-0.415
4918,-0.855,-0.425
4919,-0.860,-0.430
4920,-0.875,-0.440
4921,-0.860,-0.405
4922,-0.860,-0.400
4923,-0.840,-0.370
4924,-0.835,-0.365
4925,-0.825,-0.355
4926,-0.820,-0.370
4927,-0.820,-0.380
4928,-0.820,-0.380
4929,-0.820,-0.355
4930,-0.805,-0.355
4931,-0.785,-0.320
4932,-0.770,-0.310
4933,-0.755,-0.305
4934,-0.745,-0.295
4935,-0.750,-0.305
4936,-0.755,-0.295
4937,-0.760,-0.285
4938,-0.735,-0.245
4939,-0.720,-0.240
4940,-0.695,-0.205
4941,-0.675,-0.195
4942,-0.645,-0.180
4943,-0.650,-0.190
4944,-0.635,-0.170
4945,-0.630,-0.150
4946,-0.600,-0.120
4947,-0.560,-0.095
4948,-0.540,-0.060
4949,-0.510,-0.050
4950,-0.500,-0.050
4951,-0.490,-0.030
4952,-0.495,-0.030
4953,-0.490,-0.015
4954,-0.470,-0.005
4955,-0.435,0.015
4956,-0.420,0.050
4957,-0.395,0.060
4958,-0.405,0.055
4959,-0.390,0.055
4960,-0.415,0.055
4961,-0.425,0.040
4962,-0.430,0.040
4963,-0.430,0.040
4964,-0.430,0.055
4965,-0.430,0.030
4966,-0.445,-0.005
4967,-0.470,-0.040
4968,-0.520,-0.085
4969,-0.565,-0.140
4970,-0.600,-0.170
4971,-0.640,-0.195
4972,-0.665,-0.225
4973,-0.665,-0.255
4974,-0.700,-0.280
4975,-0.715,-0.300
4976,-0.770,-0.365
4977,-0.810,-0.405
4978,-0.855,-0.425
4979,-0.870,-0.450
4980,-0.875,-0.445
4981,-0.880,-0.455
4982,-0.875,-0.455
4983,-0.905,-0.475
4984,-0.910,-0.495
4985,-0.910,-0.500
4986,-0.945,-0.535
4987,-0.955,-0.535
4988,-0.940,-0.520
4989,-0.935,-0.525
4990,-0.940,-0.500
4991,-0.925,-0.505
4992,-0.925,-0.520
4993,-0.920,-0.530
4994,-0.955,-0.540
4995,-0.965,-0.545
4996,-0.960,-0.535
4997,-0.940,-0.510
4998,-0.950,-0.485
4999,-0.930,-0.495
5000,-0.935,-0.505
5001,-0.930,-0.515
5002,-0.945,-0.525
5003,-0.960,-0.520
5004,-0.965,-0.515
5005,-0.940,-0.520
5006,-0.940,-0.495
5007,-0.910,-0.490
5008,-0.910,-0.495
5009,-0.925,-0.500
5010,-0.940,-0.515
5011,-0.950,-0.525
5012,-0.950,-0.525
5013,-0.945,-0.505
5014,-0.925,-0.500
5015,-0.940,-0.480
5016,-0.920,-0.490
5017,-0.925,-0.500
5018,-0.935,-0.515
5019,-0.960,-0.515
5020,-0.975,-0.520
5021,-0.975,-0.505
5022,-0.955,-0.505
5023,-0.945,-0.500
5024,-0.940,-0.485
5025,-0.945,-0.485
5026,-0.950,-0.515
5027,-0.980,-0.535
5028,-0.990,-0.520
5029,-0.995,-0.530
5030,-0.985,-0.505
5031,-0.960,-0.500
5032,-0.940,-0.485
5033,-0.970,-0.505
5034,-0.975,-0.510
5035,-0.990,-0.530
5036,-0.980,-0.540
5037,-0.990,-0.535
5038,-0.985,-0.535
5039,-0.985,-0.535
5040,-0.985,-0.530
5041,-0.980,-0.530
5042,-0.970,-0.520
5043,-0.980,-0.545
5044,-0.990,-0.550
5045,-1.005,-0.560
5046,-1.000,-0.545
5047,-1.000,-0.525
5048,-0.980,-0.525
5049,-0.965,-0.515
5050,-0.970,-0.520
5051,-0.985,-0.545
5052,-0.985,-0.555
5053,-1.000,-0.575
5054,-1.010,-0.550
5055,-0.995,-0.550
5056,-0.995,-0.540
5057,-0.985,-0.520
5058,-0.975,-0.525
5059,-0.970,-0.530
5060,-0.975,-0.540
5061,-0.980,-0.550
5062,-0.995,-0.550
5063,-0.990,-0.550
5064,-0.990,-0.540
5065,-0.975,-0.510
5066,-0.960,-0.525
5067,-0.965,-0.525
5068,-0.985,-0.540
5069,-0.990,-0.555
5070,-0.985,-0.565
5071,-0.995,-0.555
5072,-0.995,-0.535
5073,-0.970,-0.535
5074,-0.965,-0.520
5075,-0.960,-0.525
5076,-0.975,-0.540
5077,-0.990,-0.550
5078,-0.990,-0.555
5079,-0.990,-0.540
5080,-1.000,-0.535
5081,-0.985,-0.515
5082,-0.990,-0.525
5083,-0.975,-0.525
5084,-0.975,-0.530
5085,-0.990,-0.540
5086,-1.000,-0.540
5087,-1.010,-0.540
5088,-0.995,-0.535
5089,-0.990,-0.505
5090,-0.980,-0.510
5091,-0.960,-0.505
5092,-0.975,-0.515
5093,-0.985,-0.515
5094,-0.990,-0.535
5095,-0.995,-0.530
5096,-1.005,-0.540
5097,-0.995,-0.520
5098,-0.990,-0.505
5099,-0.970,-0.495
5100,-0.965,-0.500
5101,-0.985,-0.540
5102,-0.985,-0.535
5103,-1.005,-0.545
5104,-1.005,-0.540
5105,-1.005,-0.530
5106,-1.000,-0.515
5107,-0.975,-0.495
5108,-0.970,-0.505
5109,-0.980,-0.510
5110,-0.985,-0.525
5111,-0.990,-0.535
5112,-0.990,-0.535
5113,-0.990,-0.515
5114,-0.990,-0.505
5115,-0.990,-0.495
5116,-0.965,-0.510
5117,-0.960,-0.500
5118,-0.975,-0.515
5119,-0.980,-0.530
5120,-0.990,-0.520
5121,-0.990,-0.515
5122,-0.985,-0.515
5123,-0.985,-0.505
5124,-0.965,-0.485
5125,-0.955,-0.490
5126,-0.965,-0.510
5127,-0.985,-0.510
5128,-0.985,-0.520
5129,-0.970,-0.520
5130,-0.945,-0.520
5131,-0.920,-0.500
5132,-0.905,-0.495
5133,-0.890,-0.510
5134,-0.890,-0.505
5135,-0.890,-0.510
5136,-0.890,-0.515
5137,-0.875,-0.510
5138,-0.850,-0.480
5139,-0.830,-0.435
5140,-0.815,-0.405
5141,-0.810,-0.385
5142,-0.825,-0.385
5143,-0.850,-0.385
5144,-0.870,-0.390
5145,-0.880,-0.405
5146,-0.885,-0.385
5147,-0.895,-0.375
5148,-0.900,-0.370
5149,-0.910,-0.375
5150,-0.915,-0.385
5151,-0.925,-0.420
5152,-0.940,-0.455
5153,-0.970,-0.460
5154,-0.980,-0.475
5155,-0.980,-0.485
5156,-0.980,-0.475
5157,-0.990,-0.460
5158,-0.985,-0.475
5159,-0.980,-0.490
5160,-0.990,-0.510
5161,-1.005,-0.515
5162,-1.000,-0.520
5163,-1.010,-0.515
5164,-1.000,-0.505
5165,-0.995,-0.505
5166,-0.990,-0.500
5167,-0.980,-0.510
5168,-0.975,-0.505
5169,-0.980,-0.525
5170,-0.990,-0.525
5171,-0.995,-0.510
5172,-0.965,-0.510
5173,-0.935,-0.505
5174,-0.845,-0.485
5175,-0.805,-0.475
5176,-0.550,-0.255
5177,-0.380,-0.020
5178,-0.220,0.275
5179,-0.110,0.595
5180,-0.100,0.910
5181,-0.250,1.065
5182,-0.520,0.975
5183,-0.870,0.605
5184,-1.225,0.105
5185,-1.415,-0.365
5186,-1.420,-0.610
5187,-1.300,-0.580
5188,-1.170,-0.440
5189,-1.085,-0.355
5190,-1.030,-0.350
5191,-0.975,-0.395
5192,-0.960,-0.425
5193,-0.950,-0.460
5194,-0.955,-0.475
5195,-0.960,-0.485
5196,-0.965,-0.495
5197,-0.950,-0.470
5198,-0.940,-0.460
5199,-0.925,-0.455
5200,-0.915,-0.460
5201,-0.930,-0.470
5202,-0.925,-0.490
5203,-0.935,-0.495
5204,-0.935,-0.485
5205,-0.930,-0.470
5206,-0.915,-0.445
5207,-0.895,-0.440
5208,-0.890,-0.450
5209,-0.880,-0.450
5210,-0.900,-0.460
5211,-0.890,-0.475
5212,-0.900,-0.475
5213,-0.900,-0.455
5214,-0.895,-0.435
5215,-0.880,-0.425
5216,-0.890,-0.425
5217,-0.875,-0.435
5218,-0.860,-0.455
5219,-0.865,-0.450
5220,-0.875,-0.450
5221,-0.880,-0.450
5222,-0.875,-0.420
5223,-0.850,-0.400
5224,-0.845,-0.395
5225,-0.840,-0.380
5226,-0.835,-0.400
5227,-0.840,-0.405
5228,-0.860,-0.410
5229,-0.840,-0.390
5230,-0.805,-0.385
5231,-0.790,-0.355
5232,-0.765,-0.350
5233,-0.755,-0.335
5234,-0.755,-0.335
5235,-0.750,-0.335
5236,-0.750,-0.330
5237,-0.745,-0.310
5238,-0.730,-0.285
5239,-0.715,-0.255
5240,-0.670,-0.230
5241,-0.665,-0.220
5242,-0.640,-0.220
5243,-0.630,-0.220
5244,-0.620,-0.200
5245,-0.615,-0.190
5246,-0.595,-0.165
5247,-0.570,-0.140
5248,-0.540,-0.120
5249,-0.510,-0.095
5250,-0.500,-0.095
5251,-0.470,-0.085
5252,-0.470,-0.090
5253,-0.470,-0.075
5254,-0.455,-0.070
5255,-0.445,-0.040
5256,-0.430,-0.025
5257,-0.395,-0.005
5258,-0.390,0.000
5259,-0.395,-0.005
5260,-0.405,-0.015
5261,-0.415,-0.025
5262,-0.440,-0.060
5263,-0.450,-0.060
5264,-0.465,-0.075
5265,-0.480,-0.075
5266,-0.485,-0.115
5267,-0.540,-0.165
5268,-0.605,-0.205
5269,-0.645,-0.255
5270,-0.700,-0.285
5271,-0.735,-0.310
5272,-0.745,-0.325
5273,-0.760,-0.355
5274,-0.785,-0.365
5275,-0.790,-0.375
5276,-0.840,-0.450
5277,-0.865,-0.475
5278,-0.890,-0.495
5279,-0.930,-0.505
5280,-0.925,-0.500
5281,-0.925,-0.505
5282,-0.930,-0.505
5283,-0.930,-0.505
5284,-0.945,-0.510
5285,-0.950,-0.545
5286,-0.975,-0.555
5287,-0.970,-0.565
5288,-0.980,-0.550
5289,-0.970,-0.525
5290,-0.960,-0.505
5291,-0.950,-0.515
5292,-0.940,-0.535
5293,-0.950,-0.530
5294,-0.960,-0.540
5295,-0.965,-0.535
5296,-0.955,-0.545
5297,-0.955,-0.520
5298,-0.950,-0.505
5299,-0.940,-0.505
5300,-0.940,-0.500
5301,-0.930,-0.525
5302,-0.955,-0.535
5303,-0.955,-0.540
5304,-0.965,-0.550
5305,-0.955,-0.535
5306,-0.940,-0.520
5307,-0.930,-0.500
5308,-0.930,-0.510
5309,-0.935,-0.510
5310,-0.955,-0.520
5311,-0.945,-0.530
5312,-0.965,-0.530
5313,-0.965,-0.520
5314,-0.930,-0.510
5315,-0.945,-0.500
5316,-0.945,-0.500
5317,-0.940,-0.510
5318,-0.945,-0.515
5319,-0.965,-0.530
5320,-0.975,-0.540
5321,-0.975,-0.545
5322,-0.980,-0.530
5323,-0.960,-0.500
5324,-0.960,-0.500
5325,-0.965,-0.500
5326,-0.975,-0.505
5327,-0.975,-0.515
5328,-0.995,-0.535
5329,-0.995,-0.535
5330,-0.990,-0.535
5331,-0.980,-0.520
5332,-0.975,-0.515
5333,-0.960,-0.530
5334,-0.965,-0.525
5335,-0.980,-0.535
5336,-1.005,-0.565
5337,-1.010,-0.550
5338,-1.010,-0.550
5339,-0.995,-0.545
5340,-0.975,-0.535
5341,-0.975,-0.530
5342,-0.985,-0.555
5343,-0.995,-0.565
5344,-1.010,-0.575
5345,-1.010,-0.570
5346,-1.025,-0.565
5347,-1.020,-0.550
5348,-1.000,-0.530
5349,-0.995,-0.530
5350,-0.990,-0.540
5351,-1.005,-0.555
5352,-1.000,-0.545
5353,-1.015,-0.540
5354,-1.015,-0.535
5355,-1.010,-0.525
5356,-1.005,-0.515
5357,-0.995,-0.505
5358,-0.985,-0.510
5359,-0.990,-0.520
5360,-1.000,-0.530
5361,-1.005,-0.540
5362,-1.025,-0.535
5363,-1.015,-0.535
5364,-0.990,-0.525
5365,-0.985,-0.515
5366,-0.985,-0.525
5367,-0.990,-0.535
5368,-0.995,-0.545
5369,-1.005,-0.550
5370,-1.020,-0.555
5371,-1.015,-0.540
5372,-0.995,-0.530
5373,-0.975,-0.530
5374,-0.975,-0.530
5375,-0.965,-0.525
5376,-0.970,-0.520
5377,-0.990,-0.540
5378,-1.010,-0.545
5379,-1.025,-0.550
5380,-1.025,-0.535
5381,-0.995,-0.510
5382,-0.975,-0.495
5383,-0.970,-0.490
5384,-0.970,-0.500
5385,-0.980,-0.510
5386,-0.995,-0.530
5387,-1.005,-0.525
5388,-0.995,-0.520
5389,-0.980,-0.500
5390,-0.980,-0.480
5391,-0.975,-0.505
5392,-0.975,-0.500
5393,-0.980,-0.515
5394,-0.990,-0.515
5395,-1.000,-0.535
5396,-1.000,-0.525
5397,-0.995,-0.500
5398,-0.980,-0.495
5399,-0.965,-0.485
5400,-0.955,-0.485
5401,-0.950,-0.510
5402,-0.965,-0.525
5403,-0.980,-0.515
5404,-0.995,-0.515
5405,-0.990,-0.505
5406,-0.980,-0.495
5407,-0.960,-0.485
5408,-0.955,-0.480
5409,-0.960,-0.480
5410,-0.965,-0.510
5411,-0.970,-0.500
5412,-0.975,-0.495
5413,-0.990,-0.490
5414,-0.970,-0.465
5415,-0.950,-0.465
5416,-0.945,-0.475
5417,-0.940,-0.480
5418,-0.955,-0.465
5419,-0.960,-0.485
5420,-0.970,-0.495
5421,-0.970,-0.495
5422,-0.960,-0.485
5423,-0.935,-0.470
5424,-0.925,-0.475
5425,-0.915,-0.485
5426,-0.900,-0.510
5427,-0.905,-0.535
5428,-0.915,-0.530
5429,-0.900,-0.505
5430,-0.890,-0.475
5431,-0.845,-0.445
5432,-0.810,-0.430
5433,-0.790,-0.410
5434,-0.785,-0.395
5435,-0.810,-0.380
5436,-0.835,-0.370
5437,-0.855,-0.365
5438,-0.870,-0.350
5439,-0.860,-0.335
5440,-0.860,-0.340
5441,-0.885,-0.340
5442,-0.895,-0.360
5443,-0.920,-0.395
5444,-0.950,-0.420
5445,-0.965,-0.455
5446,-0.970,-0.460
5447,-0.940,-0.455
5448,-0.945,-0.460
5449,-0.950,-0.465
5450,-0.950,-0.475
5451,-0.965,-0.495
5452,-0.975,-0.505
5453,-0.985,-0.520
5454,-1.000,-0.505
5455,-0.980,-0.490
5456,-0.965,-0.475
5457,-0.955,-0.475
5458,-0.955,-0.470
5459,-0.960,-0.480
5460,-0.975,-0.505
5461,-0.975,-0.520
5462,-0.985,-0.525
5463,-0.965,-0.490
5464,-0.970,-0.480
5465,-0.920,-0.460
5466,-0.845,-0.445
5467,-0.730,-0.370
5468,-0.600,-0.230
5469,-0.455,-0.015
5470,-0.330,0.265
5471,-0.285,0.515
5472,-0.375,0.710
5473,-0.565,0.750
5474,-0.835,0.570
5475,-0.925,0.490
5476,-1.395,-0.260
5477,-1.525,-0.680
5478,-1.495,-0.845
5479,-1.370,-0.755
5480,-1.250,-0.570
5481,-1.170,-0.450
5482,-1.100,-0.400
5483,-1.020,-0.415
5484,-0.960,-0.440
5485,-0.925,-0.470
5486,-0.915,-0.465
5487,-0.915,-0.480
5488,-0.915,-0.470
5489,-0.920,-0.455
5490,-0.905,-0.445
5491,-0.890,-0.450
5492,-0.890,-0.440
5493,-0.880,-0.450
5494,-0.875,-0.445
5495,-0.880,-0.455
5496,-0.885,-0.450
5497,-0.865,-0.415
5498,-0.850,-0.395
5499,-0.840,-0.385
5500,-0.845,-0.385
5501,-0.835,-0.395
5502,-0.840,-0.415
5503,-0.845,-0.415
5504,-0.855,-0.415
5505,-0.855,-0.410
5506,-0.830,-0.385
5507,-0.820,-0.375
5508,-0.805,-0.370
5509,-0.800,-0.380
5510,-0.815,-0.385
5511,-0.820,-0.370
5512,-0.835,-0.370
5513,-0.820,-0.345
5514,-0.795,-0.330
5515,-0.790,-0.320
5516,-0.765,-0.315
5517,-0.745,-0.325
5518,-0.750,-0.315
5519,-0.755,-0.320
5520,-0.755,-0.315
5521,-0.755,-0.285
5522,-0.730,-0.255
5523,-0.720,-0.245
5524,-0.690,-0.200
5525,-0.685,-0.195
5526,-0.670,-0.185
5527,-0.665,-0.160
5528,-0.665,-0.150
5529,-0.655,-0.135
5530,-0.625,-0.110
5531,-0.590,-0.065
5532,-0.545,-0.025
5533,-0.515,-0.015
5534,-0.510,-0.010
5535,-0.490,0.005
5536,-0.470,0.010
5537,-0.455,0.030
5538,-0.440,0.060
5539,-0.405,0.105
5540,-0.380,0.135
5541,-0.355,0.155
5542,-0.345,0.155
5543,-0.335,0.145
5544,-0.345,0.150
5545,-0.345,0.150
5546,-0.340,0.150
5547,-0.330,0.170
5548,-0.315,0.190
5549,-0.325,0.170
5550,-0.335,0.165
5551,-0.365,0.120
5552,-0.385,0.080
5553,-0.430,0.040
5554,-0.470,0.005
5555,-0.500,-0.025
5556,-0.520,-0.055
5557,-0.535,-0.105
5558,-0.575,-0.140
5559,-0.605,-0.180
5560,-0.650,-0.240
5561,-0.695,-0.280
5562,-0.730,-0.320
5563,-0.755,-0.340
5564,-0.785,-0.355
5565,-0.780,-0.380
5566,-0.790,-0.390
5567,-0.800,-0.415
5568,-0.815,-0.425
5569,-0.850,-0.445
5570,-0.860,-0.470
5571,-0.865,-0.465
5572,-0.865,-0.465
5573,-0.855,-0.455
5574,-0.835,-0.455
5575,-0.835,-0.465
5576,-0.855,-0.485
5577,-0.865,-0.495
5578,-0.870,-0.495
5579,-0.875,-0.500
5580,-0.880,-0.495
5581,-0.870,-0.465
5582,-0.870,-0.450
5583,-0.840,-0.455
5584,-0.850,-0.465
5585,-0.870,-0.480
5586,-0.885,-0.485
5587,-0.900,-0.495
5588,-0.880,-0.485
5589,-0.885,-0.475
5590,-0.875,-0.450
5591,-0.850,-0.470
5592,-0.850,-0.465
5593,-0.850,-0.485
5594,-0.865,-0.500
5595,-0.865,-0.495
5596,-0.870,-0.480
5597,-0.865,-0.470
5598,-0.840,-0.455
5599,-0.845,-0.465
5600,-0.845,-0.465
5601,-0.860,-0.485
5602,-0.875,-0.495
5603,-0.905,-0.500
5604,-0.900,-0.495
5605,-0.900,-0.490
5606,-0.880,-0.480
5607,-0.870,-0.475
5608,-0.865,-0.485
5609,-0.875,-0.485
5610,-0.895,-0.495
5611,-0.915,-0.510
5612,-0.920,-0.510
5613,-0.925,-0.490
5614,-0.915,-0.490
5615,-0.900,-0.470
5616,-0.880,-0.470
5617,-0.880,-0.495
5618,-0.905,-0.485
5619,-0.910,-0.510
5620,-0.935,-0.515
5621,-0.935,-0.515
5622,-0.910,-0.505
5623,-0.900,-0.520
5624,-0.890,-0.500
5625,-0.890,-0.505
5626,-0.895,-0.520
5627,-0.905,-0.530
5628,-0.925,-0.525
5629,-0.935,-0.535
5630,-0.925,-0.525
5631,-0.920,-0.520
5632,-0.900,-0.505
5633,-0.910,-0.510
5634,-0.915,-0.515
5635,-0.915,-0.530
5636,-0.925,-0.540
5637,-0.940,-0.545
5638,-0.940,-0.535
5639,-0.935,-0.520
5640,-0.910,-0.510
5641,-0.890,-0.490
5642,-0.890,-0.520
5643,-0.900,-0.525
5644,-0.905,-0.540
5645,-0.925,-0.540
5646,-0.925,-0.525
5647,-0.920,-0.530
5648,-0.915,-0.505
5649,-0.910,-0.515
5650,-0.905,-0.515
5651,-0.900,-0.535
5652,-0.910,-0.550
5653,-0.920,-0.545
5654,-0.935,-0.555
5655,-0.955,-0.530
5656,-0.920,-0.530
5657,-0.900,-0.515
5658,-0.905,-0.520
5659,-0.915,-0.525
5660,-0.900,-0.545
5661,-0.905,-0.550
5662,-0.930,-0.545
5663,-0.915,-0.550
5664,-0.900,-0.530
5665,-0.905,-0.515
5666,-0.900,-0.525
5667,-0.900,-0.535
5668,-0.910,-0.550
5669,-0.925,-0.550
5670,-0.930,-0.545
5671,-0.930,-0.540
5672,-0.925,-0.525
5673,-0.900,-0.510
5674,-0.890,-0.510
5675,-0.885,-0.515
5676,-0.885,-0.545
5677,-0.895,-0.545
5678,-0.915,-0.555
5679,-0.920,-0.550
5680,-0.930,-0.530
5681,-0.905,-0.515
5682,-0.920,-0.515
5683,-0.900,-0.525
5684,-0.900,-0.530
5685,-0.910,-0.545
5686,-0.910,-0.555
5687,-0.930,-0.550
5688,-0.920,-0.540
5689,-0.925,-0.540
5690,-0.915,-0.530
5691,-0.905,-0.515
5692,-0.910,-0.530
5693,-0.910,-0.540
5694,-0.910,-0.550
5695,-0.920,-0.560
5696,-0.930,-0.560
5697,-0.925,-0.545
5698,-0.905,-0.525
5699,-0.895,-0.525
5700,-0.890,-0.520
5701,-0.900,-0.535
5702,-0.905,-0.545
5703,-0.935,-0.545
5704,-0.935,-0.560
5705,-0.920,-0.555
5706,-0.910,-0.535
5707,-0.880,-0.535
5708,-0.865,-0.535
5709,-0.880,-0.545
5710,-0.850,-0.565
5711,-0.865,-0.570
5712,-0.875,-0.570
5713,-0.860,-0.565
5714,-0.845,-0.555
5715,-0.810,-0.530
5716,-0.770,-0.530
5717,-0.755,-0.500
5718,-0.755,-0.500
5719,-0.765,-0.475
5720,-0.770,-0.470
5721,-0.785,-0.440
5722,-0.800,-0.425
5723,-0.805,-0.420
5724,-0.800,-0.415
5725,-0.790,-0.410
5726,-0.810,-0.425
5727,-0.840,-0.435
5728,-0.875,-0.460
5729,-0.895,-0.465
5730,-0.910,-0.485
5731,-0.900,-0.470
5732,-0.895,-0.480
5733,-0.890,-0.500
5734,-0.905,-0.505
5735,-0.910,-0.530
5736,-0.925,-0.535
5737,-0.945,-0.560
5738,-0.955,-0.545
5739,-0.950,-0.530
5740,-0.930,-0.525
5741,-0.915,-0.530
5742,-0.920,-0.535
5743,-0.915,-0.555
5744,-0.925,-0.565
5745,-0.940,-0.565
5746,-0.955,-0.565
5747,-0.930,-0.550
5748,-0.920,-0.550
5749,-0.915,-0.530
5750,-0.920,-0.530
5751,-0.910,-0.555
5752,-0.865,-0.570
5753,-0.785,-0.550
5754,-0.635,-0.425
5755,-0.465,-0.220
5756,-0.260,0.055
5757,-0.070,0.345
5758,0.035,0.645
5759,0.000,0.905
5760,-0.205,1.010
5761,-0.495,0.895
5762,-0.835,0.570
5763,-1.170,0.145
5764,-1.375,-0.285
5765,-1.380,-0.560
5766,-1.275,-0.595
5767,-1.145,-0.490
5768,-1.055,-0.405
5769,-1.005,-0.415
5770,-0.950,-0.445
5771,-0.935,-0.485
5772,-0.895,-0.490
5773,-0.875,-0.485
5774,-0.860,-0.490
5775,-0.850,-0.495
5776,-0.870,-0.525
5777,-0.875,-0.530
5778,-0.890,-0.550
5779,-0.880,-0.540
5780,-0.865,-0.520
5781,-0.860,-0.520
5782,-0.835,-0.505
5783,-0.835,-0.510
5784,-0.835,-0.520
5785,-0.835,-0.515
5786,-0.855,-0.525
5787,-0.855,-0.525
5788,-0.835,-0.525
5789,-0.835,-0.490
5790,-0.810,-0.490
5791,-0.790,-0.490
5792,-0.795,-0.490
5793,-0.805,-0.480
5794,-0.815,-0.500
5795,-0.825,-0.495
5796,-0.820,-0.485
5797,-0.795,-0.470
5798,-0.795,-0.455
5799,-0.770,-0.455
5800,-0.780,-0.450
5801,-0.765,-0.465
5802,-0.760,-0.465
5803,-0.765,-0.465
5804,-0.770,-0.455
5805,-0.760,-0.435
5806,-0.740,-0.415
5807,-0.730,-0.410
5808,-0.715,-0.385
5809,-0.710,-0.390
5810,-0.705,-0.395
5811,-0.715,-0.390
5812,-0.720,-0.380
5813,-0.700,-0.350
5814,-0.685,-0.345
5815,-0.655,-0.315
5816,-0.625,-0.305
5817,-0.610,-0.290
5818,-0.600,-0.295
5819,-0.595,-0.280
5820,-0.585,-0.270
5821,-0.575,-0.255
5822,-0.555,-0.205
5823,-0.515,-0.190
5824,-0.490,-0.155
5825,-0.480,-0.150
5826,-0.440,-0.145
5827,-0.430,-0.150
5828,-0.425,-0.140
5829,-0.420,-0.120
5830,-0.400,-0.100
5831,-0.395,-0.070
5832,-0.355,-0.055
5833,-0.340,-0.055
5834,-0.330,-0.050
5835,-0.325,-0.050
5836,-0.335,-0.080
5837,-0.330,-0.090
5838,-0.335,-0.075
5839,-0.355,-0.080
5840,-0.350,-0.070
5841,-0.370,-0.105
5842,-0.385,-0.130
5843,-0.440,-0.165
5844,-0.465,-0.210
5845,-0.515,-0.255
5846,-0.555,-0.280
5847,-0.590,-0.310
5848,-0.625,-0.335
5849,-0.660,-0.350
5850,-0.665,-0.365
5851,-0.715,-0.440
5852,-0.760,-0.490
5853,-0.785,-0.500
5854,-0.810,-0.525
5855,-0.840,-0.535
5856,-0.830,-0.540
5857,-0.845,-0.545
5858,-0.850,-0.565
5859,-0.855,-0.570
5860,-0.865,-0.595
5861,-0.900,-0.615
5862,-0.890,-0.620
5863,-0.900,-0.595
5864,-0.910,-0.585
5865,-0.890,-0.570
5866,-0.880,-0.570
5867,-0.885,-0.585
5868,-0.885,-0.590
5869,-0.900,-0.620
5870,-0.900,-0.620
5871,-0.900,-0.625
5872,-0.910,-0.605
5873,-0.880,-0.585
5874,-0.885,-0.590
5875,-0.875,-0.585
5876,-0.870,-0.580
5877,-0.885,-0.600
5878,-0.900,-0.605
5879,-0.900,-0.605
5880,-0.895,-0.595
5881,-0.865,-0.585
5882,-0.850,-0.560
5883,-0.850,-0.580
5884,-0.860,-0.590
5885,-0.855,-0.595
5886,-0.865,-0.595
5887,-0.885,-0.610
5888,-0.895,-0.600
5889,-0.895,-0.575
5890,-0.875,-0.570
5891,-0.870,-0.585
5892,-0.860,-0.585
5893,-0.865,-0.595
5894,-0.880,-0.595
5895,-0.880,-0.605
5896,-0.915,-0.625
5897,-0.900,-0.600
5898,-0.905,-0.590
5899,-0.885,-0.585
5900,-0.880,-0.580
5901,-0.890,-0.605
5902,-0.905,-0.615
5903,-0.925,-0.625
5904,-0.925,-0.620
5905,-0.920,-0.615
5906,-0.915,-0.605
5907,-0.905,-0.590
5908,-0.900,-0.585
5909,-0.910,-0.600
5910,-0.915,-0.605
5911,-0.935,-0.640
5912,-0.935,-0.635
5913,-0.945,-0.625
5914,-0.935,-0.615
5915,-0.925,-0.610
5916,-0.900,-0.610
5917,-0.915,-0.610
5918,-0.925,-0.635
5919,-0.940,-0.635
5920,-0.940,-0.655
5921,-0.945,-0.645
5922,-0.950,-0.635
5923,-0.920,-0.625
5924,-0.925,-0.630
5925,-0.920,-0.625
5926,-0.905,-0.640
5927,-0.915,-0.655
5928,-0.925,-0.675
5929,-0.940,-0.660
5930,-0.945,-0.655
5931,-0.930,-0.650
5932,-0.920,-0.625
5933,-0.920,-0.630
5934,-0.930,-0.630
5935,-0.915,-0.645
5936,-0.930,-0.645
5937,-0.945,-0.650
5938,-0.950,-0.635
5939,-0.920,-0.635
5940,-0.925,-0.625
5941,-0.915,-0.620
5942,-0.915,-0.610
5943,-0.915,-0.630
5944,-0.920,-0.635
5945,-0.940,-0.650
5946,-0.945,-0.650
5947,-0.950,-0.645
5948,-0.935,-0.635
5949,-0.910,-0.625
5950,-0.905,-0.620
5951,-0.925,-0.645
5952,-0.930,-0.655
5953,-0.935,-0.675
5954,-0.935,-0.655
5955,-0.940,-0.650
5956,-0.925,-0.640
5957,-0.910,-0.620
5958,-0.890,-0.635
5959,-0.895,-0.640
5960,-0.905,-0.640
5961,-0.915,-0.665
5962,-0.925,-0.680
5963,-0.935,-0.655
5964,-0.915,-0.650
5965,-0.905,-0.630
5966,-0.900,-0.625
5967,-0.890,-0.635
5968,-0.920,-0.640
5969,-0.935,-0.655
5970,-0.935,-0.650
5971,-0.960,-0.645
5972,-0.950,-0.645
5973,-0.935,-0.635
5974,-0.930,-0.630
5975,-0.930,-0.635
5976,-0.905,-0.660
5977,-0.915,-0.655
5978,-0.920,-0.670
5979,-0.925,-0.665
5980,-0.935,-0.640
5981,-0.920,-0.640
5982,-0.910,-0.640
5983,-0.900,-0.640
5984,-0.905,-0.640
5985,-0.935,-0.650
5986,-0.935,-0.680
5987,-0.925,-0.675
5988,-0.945,-0.665
5989,-0.935,-0.650
5990,-0.925,-0.635
5991,-0.905,-0.640
5992,-0.905,-0.630
5993,-0.925,-0.640
5994,-0.925,-0.660
5995,-0.930,-0.655
5996,-0.935,-0.650
5997,-0.930,-0.645
5998,-0.920,-0.640
5999,-0.910,-0.625
6000,-0.895,-0.620
6001,-0.900,-0.640
6002,-0.920,-0.640
6003,-0.915,-0.660
6004,-0.930,-0.655
6005,-0.935,-0.640
6006,-0.910,-0.630
6007,-0.890,-0.620
6008,-0.865,-0.640
6009,-0.855,-0.640
6010,-0.865,-0.670
6011,-0.855,-0.670
6012,-0.855,-0.665
6013,-0.860,-0.635
6014,-0.840,-0.620
6015,-0.795,-0.595
6016,-0.755,-0.585
6017,-0.745,-0.550
6018,-0.755,-0.540
6019,-0.760,-0.550
6020,-0.795,-0.535
6021,-0.820,-0.525
6022,-0.815,-0.515
6023,-0.795,-0.495
6024,-0.805,-0.495
6025,-0.810,-0.505
6026,-0.850,-0.510
6027,-0.875,-0.545
6028,-0.900,-0.560
6029,-0.920,-0.575
6030,-0.920,-0.590
6031,-0.920,-0.590
6032,-0.925,-0.585
6033,-0.915,-0.615
6034,-0.925,-0.620
6035,-0.930,-0.640
6036,-0.940,-0.655
6037,-0.940,-0.670
6038,-0.965,-0.655
6039,-0.955,-0.645
6040,-0.940,-0.630
6041,-0.925,-0.635
6042,-0.925,-0.635
6043,-0.920,-0.635
6044,-0.930,-0.655
6045,-0.945,-0.660
6046,-0.940,-0.650
6047,-0.935,-0.640
6048,-0.925,-0.620
6049,-0.890,-0.630
6050,-0.865,-0.625
6051,-0.710,-0.545
6052,-0.570,-0.400
6053,-0.395,-0.150
6054,-0.240,0.125
6055,-0.135,0.420
6056,-0.155,0.670
6057,-0.315,0.790
6058,-0.585,0.645
6059,-0.920,0.305
6060,-1.225,-0.165
6061,-1.400,-0.610
6062,-1.410,-0.805
6063,-1.280,-0.760
6064,-1.145,-0.630
6065,-1.050,-0.545
6066,-0.980,-0.535
6067,-0.935,-0.565
6068,-0.905,-0.595
6069,-0.900,-0.605
6070,-0.900,-0.625
6071,-0.910,-0.625
6072,-0.920,-0.630
6073,-0.905,-0.625
6074,-0.895,-0.620
6075,-0.885,-0.615
6076,-0.880,-0.625
6077,-0.880,-0.630
6078,-0.875,-0.640
6079,-0.875,-0.630
6080,-0.885,-0.605
6081,-0.865,-0.590
6082,-0.845,-0.565
6083,-0.850,-0.555
6084,-0.850,-0.585
6085,-0.845,-0.595
6086,-0.870,-0.595
6087,-0.865,-0.595
6088,-0.855,-0.585
6089,-0.845,-0.545
6090,-0.835,-0.545
6091,-0.825,-0.540
6092,-0.815,-0.535
6093,-0.820,-0.535
6094,-0.815,-0.540
6095,-0.810,-0.550
6096,-0.815,-0.535
6097,-0.815,-0.520
6098,-0.785,-0.510
6099,-0.765,-0.495
6100,-0.750,-0.490
6101,-0.770,-0.495
6102,-0.770,-0.485
6103,-0.765,-0.490
6104,-0.770,-0.470
6105,-0.760,-0.455
6106,-0.735,-0.430
6107,-0.720,-0.410
6108,-0.715,-0.385
6109,-0.695,-0.380
6110,-0.675,-0.375
6111,-0.675,-0.375
6112,-0.645,-0.360
6113,-0.640,-0.335
6114,-0.610,-0.305
6115,-0.570,-0.270
6116,-0.530,-0.240
6117,-0.530,-0.255
6118,-0.515,-0.240
6119,-0.495,-0.225
6120,-0.480,-0.220
6121,-0.465,-0.195
6122,-0.440,-0.165
6123,-0.405,-0.140
6124,-0.385,-0.120
6125,-0.385,-0.110
6126,-0.375,-0.110
6127,-0.345,-0.110
6128,-0.355,-0.110
6129,-0.360,-0.080
6130,-0.355,-0.060
6131,-0.345,-0.065
6132,-0.335,-0.040
6133,-0.315,-0.065
6134,-0.320,-0.085
6135,-0.360,-0.120
6136,-0.395,-0.150
6137,-0.435,-0.205
6138,-0.470,-0.210
6139,-0.485,-0.225
6140,-0.515,-0.245
6141,-0.535,-0.280
6142,-0.590,-0.320
6143,-0.635,-0.365
6144,-0.675,-0.435
6145,-0.705,-0.460
6146,-0.755,-0.495
6147,-0.780,-0.500
6148,-0.805,-0.520
6149,-0.805,-0.525
6150,-0.810,-0.535
6151,-0.820,-0.575
6152,-0.840,-0.600
6153,-0.865,-0.615
6154,-0.875,-0.630
6155,-0.890,-0.620
6156,-0.885,-0.620
6157,-0.865,-0.595
6158,-0.855,-0.605
6159,-0.860,-0.605
6160,-0.865,-0.625
6161,-0.880,-0.645
6162,-0.895,-0.640
6163,-0.915,-0.645
6164,-0.890,-0.630
6165,-0.870,-0.620
6166,-0.840,-0.605
6167,-0.855,-0.600
6168,-0.875,-0.615
6169,-0.895,-0.620
6170,-0.890,-0.625
6171,-0.875,-0.620
6172,-0.875,-0.615
6173,-0.855,-0.610
6174,-0.850,-0.595
6175,-0.845,-0.585
6176,-0.850,-0.605
6177,-0.850,-0.610
6178,-0.880,-0.620
6179,-0.900,-0.625
6180,-0.875,-0.620
6181,-0.880,-0.610
6182,-0.860,-0.595
6183,-0.855,-0.580
6184,-0.865,-0.585
6185,-0.860,-0.600
6186,-0.875,-0.620
6187,-0.895,-0.620
6188,-0.900,-0.615
6189,-0.890,-0.615
6190,-0.890,-0.600
6191,-0.865,-0.595
6192,-0.885,-0.600
6193,-0.895,-0.610
6194,-0.900,-0.635
6195,-0.890,-0.635
6196,-0.910,-0.635
6197,-0.915,-0.610
6198,-0.895,-0.600
6199,-0.900,-0.600
6200,-0.895,-0.610
6201,-0.900,-0.625
6202,-0.915,-0.635
6203,-0.935,-0.655
6204,-0.950,-0.660
6205,-0.940,-0.655
6206,-0.930,-0.625
6207,-0.905,-0.615
6208,-0.895,-0.600
6209,-0.900,-0.600
6210,-0.915,-0.625
6211,-0.925,-0.640
6212,-0.935,-0.650
6213,-0.950,-0.640
6214,-0.935,-0.635
6215,-0.930,-0.620
6216,-0.925,-0.605
6217,-0.915,-0.620
6218,-0.915,-0.620
6219,-0.925,-0.630
6220,-0.925,-0.640
6221,-0.950,-0.630
6222,-0.945,-0.625
6223,-0.940,-0.605
6224,-0.920,-0.595
6225,-0.910,-0.600
6226,-0.920,-0.605
6227,-0.930,-0.625
6228,-0.935,-0.630
6229,-0.945,-0.630
6230,-0.945,-0.620
6231,-0.935,-0.610
6232,-0.915,-0.585
6233,-0.910,-0.590
6234,-0.920,-0.605
6235,-0.925,-0.620
6236,-0.925,-0.630
6237,-0.940,-0.640
6238,-0.945,-0.630
6239,-0.940,-0.615
6240,-0.935,-0.600
6241,-0.920,-0.580
6242,-0.920,-0.600
6243,-0.930,-0.610
6244,-0.940,-0.620
6245,-0.955,-0.625
6246,-0.960,-0.625
6247,-0.955,-0.605
6248,-0.955,-0.605
6249,-0.920,-0.600
6250,-0.905,-0.590
6251,-0.920,-0.615
6252,-0.930,-0.625
6253,-0.955,-0.650
6254,-0.960,-0.630
6255,-0.970,-0.625
6256,-0.950,-0.605
6257,-0.925,-0.590
6258,-0.925,-0.590
6259,-0.930,-0.585
6260,-0.930,-0.600
6261,-0.945,-0.610
6262,-0.950,-0.605
6263,-0.965,-0.600
6264,-0.945,-0.590
6265,-0.945,-0.595
6266,-0.935,-0.605
6267,-0.915,-0.590
6268,-0.935,-0.600
6269,-0.940,-0.625
6270,-0.945,-0.630
6271,-0.960,-0.635
6272,-0.955,-0.620
6273,-0.955,-0.595
6274,-0.930,-0.590
6275,-0.925,-0.575
6276,-0.920,-0.610
6277,-0.940,-0.620
6278,-0.960,-0.625
6279,-0.960,-0.620
6280,-0.955,-0.615
6281,-0.950,-0.585
6282,-0.945,-0.590
6283,-0.920,-0.590
6284,-0.920,-0.590
6285,-0.950,-0.610
6286,-0.940,-0.605
6287,-0.945,-0.610
6288,-0.960,-0.600
6289,-0.940,-0.595
6290,-0.935,-0.580
6291,-0.910,-0.570
6292,-0.905,-0.585
6293,-0.895,-0.610
6294,-0.885,-0.615
6295,-0.885,-0.645
6296,-0.890,-0.630
6297,-0.885,-0.620
6298,-0.860,-0.605
6299,-0.835,-0.575
6300,-0.820,-0.565
6301,-0.800,-0.550
6302,-0.795,-0.540
6303,-0.800,-0.520
6304,-0.835,-0.505
6305,-0.840,-0.495
6306,-0.840,-0.465
6307,-0.840,-0.480
6308,-0.845,-0.465
6309,-0.850,-0.480
6310,-0.895,-0.495
6311,-0.930,-0.520
6312,-0.950,-0.540
6313,-0.960,-0.545
6314,-0.950,-0.555
6315,-0.940,-0.565
6316,-0.920,-0.555
6317,-0.945,-0.570
6318,-0.955,-0.580
6319,-0.960,-0.590
6320,-0.985,-0.615
6321,-1.000,-0.640
6322,-0.995,-0.620
6323,-0.980,-0.610
6324,-0.965,-0.595
6325,-0.955,-0.595
6326,-0.965,-0.615
6327,-0.980,-0.620
6328,-0.985,-0.645
6329,-0.990,-0.640
6330,-0.995,-0.625
6331,-0.975,-0.615
6332,-0.960,-0.605
6333,-0.940,-0.605
6334,-0.915,-0.610
6335,-0.830,-0.595
6336,-0.710,-0.510
6337,-0.555,-0.300
6338,-0.390,-0.010
6339,-0.245,0.270
6340,-0.195,0.540
6341,-0.280,0.710
6342,-0.520,0.695
6343,-0.845,0.470
6344,-1.190,0.020
6345,-1.460,-0.475
6346,-1.560,-0.805
6347,-1.475,-0.840
6348,-1.310,-0.705
6349,-1.180,-0.550
6350,-1.145,-0.520
6351,-1.025,-0.515
6352,-0.990,-0.540
6353,-0.975,-0.580
6354,-0.955,-0.590
6355,-0.955,-0.590
6356,-0.955,-0.570
6357,-0.940,-0.575
6358,-0.920,-0.560
6359,-0.915,-0.570
6360,-0.925,-0.580
6361,-0.930,-0.595
6362,-0.940,-0.600
6363,-0.945,-0.580
6364,-0.935,-0.570
6365,-0.915,-0.550
6366,-0.905,-0.540
6367,-0.895,-0.550
6368,-0.895,-0.560
6369,-0.900,-0.565
6370,-0.935,-0.560
6371,-0.925,-0.545
6372,-0.910,-0.530
6373,-0.900,-0.520
6374,-0.865,-0.510
6375,-0.855,-0.505
6376,-0.855,-0.510
6377,-0.865,-0.525
6378,-0.860,-0.535
6379,-0.865,-0.515
6380,-0.870,-0.515
6381,-0.855,-0.510
6382,-0.840,-0.485
6383,-0.815,-0.490
