'sample interval','MLII','V5'
'0.004 sec','mV','mV'
0,-0.930,-0.570
1,-0.920,-0.555
2,-0.910,-0.545
3,-0.900,-0.545
4,-0.885,-0.535
5,-0.895,-0.550
6,-0.915,-0.550
7,-0.940,-0.550
8,-0.940,-0.575
9,-0.930,-0.570
10,-0.950,-0.565
11,-0.935,-0.550
12,-0.915,-0.550
13,-0.905,-0.545
14,-0.915,-0.555
15,-0.920,-0.570
16,-0.930,-0.565
17,-0.920,-0.550
18,-0.925,-0.550
19,-0.910,-0.545
20,-0.890,-0.540
21,-0.900,-0.545
22,-0.905,-0.540
23,-0.930,-0.560
24,-0.935,-0.570
25,-0.930,-0.560
26,-0.905,-0.545
27,-0.900,-0.530
28,-0.905,-0.525
29,-0.905,-0.535
30,-0.915,-0.555
31,-0.900,-0.550
32,-0.915,-0.580
33,-0.915,-0.565
34,-0.925,-0.545
35,-0.915,-0.540
36,-0.890,-0.525
37,-0.870,-0.540
38,-0.850,-0.550
39,-0.840,-0.535
40,-0.830,-0.555
41,-0.815,-0.550
42,-0.810,-0.535
43,-0.780,-0.520
44,-0.760,-0.510
45,-0.735,-0.490
46,-0.705,-0.495
47,-0.710,-0.505
48,-0.730,-0.535
49,-0.770,-0.550
50,-0.790,-0.545
51,-0.795,-0.500
52,-0.795,-0.475
53,-0.750,-0.440
54,-0.755,-0.450
55,-0.780,-0.465
56,-0.830,-0.490
57,-0.890,-0.515
58,-0.950,-0.530
59,-0.945,-0.545
60,-0.935,-0.540
61,-0.935,-0.535
62,-0.940,-0.535
63,-0.940,-0.555
64,-0.965,-0.580
65,-0.980,-0.565
66,-0.990,-0.565
67,-1.000,-0.560
68,-0.980,-0.545
69,-0.960,-0.540
70,-0.940,-0.525
71,-0.950,-0.530
72,-0.965,-0.540
73,-0.980,-0.550
74,-0.985,-0.570
75,-0.995,-0.570
76,-0.960,-0.560
77,-0.940,-0.545
78,-0.935,-0.540
79,-0.935,-0.545
80,-0.930,-0.550
81,-0.945,-0.565
82,-0.960,-0.570
83,-0.955,-0.555
84,-0.940,-0.550
85,-0.900,-0.525
86,-0.885,-0.510
87,-0.875,-0.510
88,-0.870,-0.510
89,-0.870,-0.475
90,-0.820,-0.425
91,-0.645,-0.295
92,-0.285,-0.090
93,0.140,0.180
94,0.590,0.395
95,1.040,0.495
96,1.405,0.500
97,1.465,0.425
98,1.120,0.260
99,0.365,-0.045
100,0.085,-0.160
101,-1.380,-0.960
102,-1.795,-1.340
103,-1.770,-1.445
104,-1.530,-1.315
105,-1.310,-1.100
106,-1.180,-0.900
107,-1.120,-0.775
108,-1.055,-0.700
109,-1.000,-0.670
110,-0.935,-0.620
111,-0.890,-0.585
112,-0.885,-0.590
113,-0.890,-0.580
114,-0.925,-0.575
115,-0.925,-0.570
116,-0.925,-0.575
117,-0.920,-0.570
118,-0.905,-0.550
119,-0.875,-0.540
120,-0.865,-0.525
121,-0.860,-0.535
122,-0.875,-0.545
123,-0.915,-0.540
124,-0.905,-0.545
125,-0.910,-0.550
126,-0.915,-0.525
127,-0.895,-0.530
128,-0.895,-0.530
129,-0.895,-0.535
130,-0.890,-0.525
131,-0.895,-0.545
132,-0.910,-0.560
133,-0.900,-0.530
134,-0.900,-0.530
135,-0.875,-0.515
136,-0.875,-0.505
137,-0.870,-0.525
138,-0.880,-0.525
139,-0.900,-0.540
140,-0.900,-0.545
141,-0.895,-0.530
142,-0.885,-0.525
143,-0.885,-0.510
144,-0.875,-0.490
145,-0.870,-0.505
146,-0.860,-0.520
147,-0.850,-0.515
148,-0.850,-0.545
149,-0.860,-0.525
150,-0.855,-0.530
151,-0.835,-0.515
152,-0.820,-0.480
153,-0.785,-0.480
154,-0.785,-0.480
155,-0.765,-0.470
156,-0.780,-0.475
157,-0.775,-0.490
158,-0.775,-0.470
159,-0.740,-0.450
160,-0.710,-0.420
161,-0.680,-0.405
162,-0.655,-0.395
163,-0.645,-0.390
164,-0.645,-0.385
165,-0.625,-0.400
166,-0.605,-0.375
167,-0.600,-0.360
168,-0.555,-0.335
169,-0.520,-0.325
170,-0.480,-0.320
171,-0.470,-0.305
172,-0.470,-0.310
173,-0.470,-0.325
174,-0.455,-0.310
175,-0.455,-0.300
176,-0.415,-0.290
177,-0.385,-0.265
178,-0.375,-0.265
179,-0.360,-0.265
180,-0.395,-0.275
181,-0.420,-0.310
182,-0.440,-0.340
183,-0.475,-0.340
184,-0.490,-0.360
185,-0.510,-0.370
186,-0.510,-0.380
187,-0.555,-0.415
188,-0.605,-0.450
189,-0.660,-0.475
190,-0.685,-0.520
191,-0.715,-0.545
192,-0.735,-0.550
193,-0.735,-0.540
194,-0.750,-0.550
195,-0.765,-0.550
196,-0.780,-0.580
197,-0.790,-0.600
198,-0.815,-0.600
199,-0.840,-0.620
200,-0.845,-0.620
201,-0.840,-0.610
202,-0.845,-0.595
203,-0.825,-0.585
204,-0.830,-0.605
205,-0.835,-0.610
206,-0.850,-0.630
207,-0.850,-0.640
208,-0.860,-0.640
209,-0.850,-0.630
210,-0.835,-0.630
211,-0.835,-0.615
212,-0.825,-0.620
213,-0.840,-0.620
214,-0.850,-0.635
215,-0.850,-0.655
216,-0.855,-0.645
217,-0.855,-0.645
218,-0.850,-0.610
219,-0.830,-0.610
220,-0.810,-0.600
221,-0.805,-0.620
222,-0.825,-0.615
223,-0.840,-0.635
224,-0.840,-0.625
225,-0.830,-0.625
226,-0.825,-0.615
227,-0.815,-0.605
228,-0.790,-0.600
229,-0.800,-0.585
230,-0.790,-0.590
231,-0.810,-0.610
232,-0.810,-0.605
233,-0.815,-0.605
234,-0.810,-0.605
235,-0.795,-0.570
236,-0.785,-0.560
237,-0.780,-0.565
238,-0.770,-0.580
239,-0.790,-0.585
240,-0.800,-0.610
241,-0.810,-0.595
242,-0.820,-0.600
243,-0.810,-0.580
244,-0.795,-0.555
245,-0.790,-0.575
246,-0.800,-0.575
247,-0.815,-0.585
248,-0.825,-0.605
249,-0.845,-0.615
250,-0.860,-0.605
251,-0.845,-0.605
252,-0.840,-0.595
253,-0.825,-0.590
254,-0.825,-0.600
255,-0.845,-0.605
256,-0.865,-0.625
257,-0.875,-0.630
258,-0.885,-0.630
259,-0.885,-0.615
260,-0.870,-0.620
261,-0.850,-0.610
262,-0.845,-0.610
263,-0.855,-0.610
264,-0.880,-0.635
265,-0.890,-0.640
266,-0.885,-0.650
267,-0.900,-0.645
268,-0.895,-0.635
269,-0.885,-0.610
270,-0.875,-0.620
271,-0.870,-0.635
272,-0.880,-0.635
273,-0.895,-0.660
274,-0.895,-0.655
275,-0.895,-0.650
276,-0.905,-0.640
277,-0.895,-0.615
278,-0.885,-0.615
279,-0.900,-0.635
280,-0.895,-0.640
281,-0.910,-0.655
282,-0.920,-0.655
283,-0.925,-0.650
284,-0.930,-0.635
285,-0.910,-0.625
286,-0.900,-0.610
287,-0.890,-0.625
288,-0.890,-0.625
289,-0.905,-0.630
290,-0.925,-0.640
291,-0.935,-0.640
292,-0.925,-0.635
293,-0.910,-0.620
294,-0.905,-0.625
295,-0.895,-0.610
296,-0.905,-0.610
297,-0.900,-0.640
298,-0.920,-0.640
299,-0.915,-0.650
300,-0.915,-0.640
301,-0.915,-0.630
302,-0.910,-0.625
303,-0.890,-0.600
304,-0.890,-0.615
305,-0.895,-0.620
306,-0.915,-0.630
307,-0.935,-0.645
308,-0.940,-0.630
309,-0.930,-0.625
310,-0.915,-0.600
311,-0.895,-0.590
312,-0.880,-0.600
313,-0.885,-0.610
314,-0.915,-0.615
315,-0.925,-0.635
316,-0.925,-0.635
317,-0.925,-0.625
318,-0.915,-0.630
319,-0.905,-0.600
320,-0.915,-0.605
321,-0.905,-0.610
322,-0.915,-0.615
323,-0.910,-0.640
324,-0.920,-0.635
325,-0.925,-0.625
326,-0.920,-0.590
327,-0.905,-0.580
328,-0.890,-0.580
329,-0.885,-0.590
330,-0.890,-0.605
331,-0.905,-0.615
332,-0.900,-0.610
333,-0.910,-0.640
334,-0.910,-0.635
335,-0.895,-0.610
336,-0.890,-0.580
337,-0.880,-0.590
338,-0.885,-0.595
339,-0.885,-0.620
340,-0.910,-0.615
341,-0.905,-0.635
342,-0.910,-0.610
343,-0.895,-0.595
344,-0.875,-0.580
345,-0.880,-0.585
346,-0.865,-0.585
347,-0.880,-0.600
348,-0.920,-0.615
349,-0.895,-0.620
350,-0.895,-0.620
351,-0.900,-0.610
352,-0.875,-0.590
353,-0.855,-0.595
354,-0.860,-0.585
355,-0.865,-0.590
356,-0.890,-0.600
357,-0.910,-0.625
358,-0.905,-0.610
359,-0.895,-0.605
360,-0.880,-0.600
361,-0.870,-0.590
362,-0.865,-0.590
363,-0.875,-0.585
364,-0.865,-0.600
365,-0.885,-0.615
366,-0.890,-0.615
367,-0.880,-0.615
368,-0.860,-0.595
369,-0.825,-0.590
370,-0.800,-0.590
371,-0.775,-0.585
372,-0.750,-0.595
373,-0.740,-0.600
374,-0.740,-0.600
375,-0.740,-0.605
376,-0.735,-0.575
377,-0.710,-0.555
378,-0.690,-0.515
379,-0.685,-0.535
380,-0.705,-0.560
381,-0.735,-0.585
382,-0.775,-0.590
383,-0.785,-0.580
384,-0.795,-0.555
385,-0.775,-0.525
386,-0.755,-0.510
387,-0.755,-0.505
388,-0.790,-0.535
389,-0.815,-0.565
390,-0.875,-0.595
391,-0.900,-0.615
392,-0.925,-0.610
393,-0.915,-0.585
394,-0.925,-0.585
395,-0.920,-0.585
396,-0.920,-0.590
397,-0.940,-0.600
398,-0.950,-0.595
399,-0.960,-0.620
400,-0.950,-0.625
401,-0.945,-0.600
402,-0.930,-0.595
403,-0.925,-0.575
404,-0.925,-0.595
405,-0.920,-0.590
406,-0.930,-0.610
407,-0.930,-0.620
408,-0.930,-0.610
409,-0.925,-0.590
410,-0.900,-0.595
411,-0.890,-0.570
412,-0.895,-0.580
413,-0.895,-0.570
414,-0.900,-0.585
415,-0.895,-0.590
416,-0.890,-0.590
417,-0.885,-0.570
418,-0.855,-0.555
419,-0.820,-0.535
420,-0.795,-0.505
421,-0.730,-0.455
422,-0.600,-0.360
423,-0.330,-0.185
424,0.045,0.060
425,0.175,0.140
426,0.910,0.335
427,1.340,0.390
428,1.590,0.395
429,1.485,0.380
430,0.935,0.225
431,0.065,-0.115
432,-0.855,-0.615
433,-1.520,-1.100
434,-1.680,-1.355
435,-1.415,-1.250
436,-1.095,-0.995
437,-0.910,-0.775
438,-0.885,-0.675
439,-0.945,-0.665
440,-0.965,-0.685
441,-0.950,-0.675
442,-0.910,-0.635
443,-0.865,-0.610
444,-0.850,-0.565
445,-0.865,-0.545
446,-0.875,-0.555
447,-0.880,-0.565
448,-0.890,-0.565
449,-0.885,-0.580
450,-0.890,-0.575
451,-0.880,-0.550
452,-0.870,-0.530
453,-0.850,-0.530
454,-0.855,-0.530
455,-0.855,-0.535
456,-0.860,-0.545
457,-0.870,-0.555
458,-0.885,-0.545
459,-0.880,-0.545
460,-0.865,-0.530
461,-0.850,-0.510
462,-0.855,-0.505
463,-0.845,-0.515
464,-0.870,-0.530
465,-0.885,-0.535
466,-0.880,-0.535
467,-0.885,-0.530
468,-0.875,-0.515
469,-0.860,-0.500
470,-0.850,-0.495
471,-0.855,-0.495
472,-0.850,-0.510
473,-0.865,-0.515
474,-0.865,-0.510
475,-0.870,-0.515
476,-0.855,-0.490
477,-0.835,-0.470
478,-0.830,-0.475
479,-0.820,-0.470
480,-0.810,-0.465
481,-0.820,-0.475
482,-0.815,-0.495
483,-0.815,-0.465
484,-0.805,-0.445
485,-0.775,-0.430
486,-0.760,-0.420
487,-0.735,-0.405
488,-0.725,-0.390
489,-0.725,-0.400
490,-0.715,-0.390
491,-0.695,-0.390
492,-0.680,-0.365
493,-0.635,-0.340
494,-0.610,-0.320
495,-0.570,-0.285
496,-0.555,-0.285
497,-0.525,-0.295
498,-0.510,-0.290
499,-0.505,-0.280
500,-0.500,-0.275
501,-0.450,-0.230
502,-0.430,-0.205
503,-0.385,-0.185
504,-0.370,-0.170
505,-0.345,-0.175
506,-0.325,-0.170
507,-0.320,-0.180
508,-0.315,-0.175
509,-0.310,-0.160
510,-0.295,-0.150
511,-0.305,-0.155
512,-0.315,-0.170
513,-0.340,-0.190
514,-0.380,-0.225
515,-0.420,-0.270
516,-0.465,-0.285
517,-0.495,-0.310
518,-0.530,-0.325
519,-0.560,-0.330
520,-0.595,-0.345
521,-0.620,-0.375
522,-0.645,-0.420
523,-0.670,-0.440
524,-0.705,-0.485
525,-0.710,-0.490
526,-0.750,-0.465
527,-0.765,-0.465
528,-0.765,-0.455
529,-0.760,-0.480
530,-0.755,-0.490
531,-0.775,-0.505
532,-0.780,-0.525
533,-0.805,-0.530
534,-0.790,-0.525
535,-0.785,-0.495
536,-0.780,-0.490
537,-0.775,-0.495
538,-0.770,-0.495
539,-0.780,-0.485
540,-0.795,-0.520
541,-0.810,-0.515
542,-0.805,-0.505
543,-0.790,-0.495
544,-0.775,-0.485
545,-0.760,-0.475
546,-0.760,-0.490
547,-0.780,-0.485
548,-0.780,-0.530
549,-0.775,-0.520
550,-0.780,-0.520
551,-0.790,-0.505
552,-0.780,-0.485
553,-0.765,-0.470
554,-0.770,-0.480
555,-0.765,-0.480
556,-0.765,-0.495
557,-0.780,-0.510
558,-0.780,-0.500
559,-0.795,-0.485
560,-0.780,-0.480
561,-0.770,-0.460
562,-0.750,-0.460
563,-0.750,-0.460
564,-0.765,-0.475
565,-0.780,-0.490
566,-0.800,-0.490
567,-0.800,-0.495
568,-0.790,-0.480
569,-0.775,-0.475
570,-0.755,-0.465
571,-0.745,-0.465
572,-0.765,-0.475
573,-0.790,-0.485
574,-0.795,-0.490
575,-0.800,-0.490
576,-0.795,-0.475
577,-0.790,-0.475
578,-0.780,-0.470
579,-0.775,-0.470
580,-0.785,-0.485
581,-0.800,-0.495
582,-0.810,-0.505
583,-0.815,-0.510
584,-0.825,-0.505
585,-0.815,-0.495
586,-0.800,-0.490
587,-0.805,-0.490
588,-0.805,-0.495
589,-0.835,-0.505
590,-0.835,-0.510
591,-0.830,-0.525
592,-0.845,-0.510
593,-0.845,-0.495
594,-0.825,-0.495
595,-0.825,-0.490
596,-0.815,-0.490
597,-0.820,-0.505
598,-0.855,-0.515
599,-0.845,-0.520
600,-0.845,-0.525
601,-0.850,-0.505
602,-0.835,-0.510
603,-0.815,-0.500
604,-0.815,-0.495
605,-0.815,-0.505
606,-0.840,-0.520
607,-0.855,-0.540
608,-0.860,-0.530
609,-0.860,-0.520
610,-0.835,-0.500
611,-0.830,-0.490
612,-0.820,-0.500
613,-0.825,-0.490
614,-0.825,-0.510
615,-0.845,-0.520
616,-0.870,-0.520
617,-0.855,-0.510
618,-0.855,-0.515
619,-0.845,-0.500
620,-0.825,-0.490
621,-0.825,-0.495
622,-0.835,-0.510
623,-0.860,-0.520
624,-0.855,-0.520
625,-0.860,-0.515
626,-0.850,-0.510
627,-0.840,-0.500
628,-0.830,-0.480
629,-0.825,-0.490
630,-0.830,-0.495
631,-0.840,-0.510
632,-0.860,-0.530
633,-0.860,-0.530
634,-0.850,-0.510
635,-0.845,-0.495
636,-0.835,-0.490
637,-0.820,-0.490
638,-0.830,-0.500
639,-0.825,-0.505
640,-0.850,-0.515
641,-0.860,-0.530
642,-0.860,-0.530
643,-0.855,-0.510
644,-0.840,-0.495
645,-0.825,-0.485
646,-0.840,-0.480
647,-0.840,-0.505
648,-0.865,-0.525
649,-0.865,-0.515
650,-0.860,-0.510
651,-0.850,-0.505
652,-0.860,-0.490
653,-0.845,-0.480
654,-0.830,-0.470
655,-0.830,-0.495
656,-0.840,-0.515
657,-0.845,-0.520
658,-0.855,-0.515
659,-0.860,-0.495
660,-0.845,-0.490
661,-0.835,-0.480
662,-0.825,-0.460
663,-0.820,-0.475
664,-0.845,-0.490
665,-0.855,-0.505
666,-0.875,-0.495
667,-0.855,-0.520
668,-0.845,-0.485
669,-0.830,-0.480
670,-0.815,-0.465
671,-0.825,-0.470
672,-0.830,-0.490
673,-0.830,-0.500
674,-0.840,-0.505
675,-0.840,-0.510
676,-0.845,-0.490
677,-0.825,-0.475
678,-0.815,-0.470
679,-0.805,-0.460
680,-0.805,-0.485
681,-0.825,-0.495
682,-0.835,-0.515
683,-0.830,-0.495
684,-0.820,-0.495
685,-0.790,-0.480
686,-0.760,-0.470
687,-0.720,-0.450
688,-0.705,-0.470
689,-0.700,-0.480
690,-0.695,-0.485
691,-0.700,-0.470
692,-0.685,-0.465
693,-0.670,-0.460
694,-0.630,-0.430
695,-0.615,-0.410
696,-0.625,-0.420
697,-0.640,-0.430
698,-0.680,-0.450
699,-0.700,-0.450
700,-0.700,-0.445
701,-0.705,-0.415
702,-0.685,-0.410
703,-0.685,-0.385
704,-0.700,-0.395
705,-0.725,-0.425
706,-0.775,-0.450
707,-0.820,-0.465
708,-0.860,-0.475
709,-0.875,-0.495
710,-0.865,-0.480
711,-0.860,-0.460
712,-0.860,-0.465
713,-0.865,-0.470
714,-0.885,-0.485
715,-0.895,-0.490
716,-0.910,-0.500
717,-0.920,-0.485
718,-0.900,-0.475
719,-0.895,-0.465
720,-0.900,-0.460
721,-0.885,-0.475
722,-0.880,-0.470
723,-0.885,-0.490
724,-0.890,-0.480
725,-0.895,-0.485
726,-0.895,-0.470
727,-0.875,-0.470
728,-0.850,-0.455
729,-0.835,-0.445
730,-0.850,-0.455
731,-0.855,-0.465
732,-0.855,-0.470
733,-0.835,-0.465
734,-0.840,-0.445
735,-0.810,-0.420
736,-0.780,-0.390
737,-0.740,-0.350
738,-0.620,-0.285
739,-0.410,-0.140
740,-0.085,0.090
741,0.290,0.300
742,0.695,0.455
743,1.125,0.520
744,1.425,0.545
745,1.430,0.510
746,1.005,0.350
747,0.235,0.050
748,-0.650,-0.390
749,-1.325,-0.880
750,-1.485,-1.025
751,-1.485,-1.200
752,-1.220,-0.965
753,-1.010,-0.725
754,-0.955,-0.580
755,-0.960,-0.550
756,-0.965,-0.550
757,-0.925,-0.565
758,-0.895,-0.525
759,-0.870,-0.480
760,-0.865,-0.455
761,-0.865,-0.430
762,-0.855,-0.425
763,-0.860,-0.450
764,-0.870,-0.460
765,-0.875,-0.455
766,-0.885,-0.435
767,-0.885,-0.440
768,-0.865,-0.430
769,-0.850,-0.420
770,-0.835,-0.395
771,-0.845,-0.400
772,-0.840,-0.415
773,-0.865,-0.435
774,-0.870,-0.430
775,-0.870,-0.430
776,-0.875,-0.415
777,-0.865,-0.405
778,-0.845,-0.410
779,-0.830,-0.415
780,-0.825,-0.405
781,-0.845,-0.415
782,-0.865,-0.420
783,-0.875,-0.425
784,-0.885,-0.410
785,-0.870,-0.385
786,-0.865,-0.375
787,-0.860,-0.370
788,-0.850,-0.385
789,-0.855,-0.410
790,-0.865,-0.405
791,-0.860,-0.400
792,-0.865,-0.400
793,-0.860,-0.375
794,-0.840,-0.365
795,-0.815,-0.345
796,-0.810,-0.350
797,-0.800,-0.360
798,-0.795,-0.375
799,-0.815,-0.380
800,-0.805,-0.375
801,-0.795,-0.360
802,-0.760,-0.320
803,-0.750,-0.320
804,-0.720,-0.305
805,-0.725,-0.300
806,-0.705,-0.310
807,-0.700,-0.310
808,-0.690,-0.285
809,-0.660,-0.270
810,-0.645,-0.245
811,-0.615,-0.230
812,-0.585,-0.215
813,-0.565,-0.210
814,-0.540,-0.205
815,-0.515,-0.200
816,-0.510,-0.190
817,-0.490,-0.185
818,-0.475,-0.170
819,-0.445,-0.140
820,-0.415,-0.125
821,-0.395,-0.135
822,-0.375,-0.110
823,-0.370,-0.120
824,-0.365,-0.125
825,-0.365,-0.130
826,-0.365,-0.125
827,-0.355,-0.105
828,-0.340,-0.085
829,-0.340,-0.100
830,-0.355,-0.130
831,-0.400,-0.150
832,-0.435,-0.185
833,-0.485,-0.210
834,-0.530,-0.225
835,-0.545,-0.245
836,-0.585,-0.255
837,-0.595,-0.275
838,-0.615,-0.310
839,-0.655,-0.330
840,-0.680,-0.360
841,-0.725,-0.390
842,-0.740,-0.380
843,-0.755,-0.385
844,-0.765,-0.380
845,-0.765,-0.380
846,-0.775,-0.380
847,-0.785,-0.410
848,-0.810,-0.420
849,-0.825,-0.455
850,-0.830,-0.465
851,-0.830,-0.450
852,-0.825,-0.430
853,-0.805,-0.425
854,-0.820,-0.430
855,-0.820,-0.435
856,-0.820,-0.450
857,-0.830,-0.455
858,-0.845,-0.475
859,-0.855,-0.470
860,-0.855,-0.450
861,-0.830,-0.440
862,-0.810,-0.445
863,-0.800,-0.445
864,-0.810,-0.435
865,-0.840,-0.450
866,-0.860,-0.465
867,-0.860,-0.480
868,-0.860,-0.460
869,-0.835,-0.445
870,-0.820,-0.405
871,-0.820,-0.400
872,-0.830,-0.410
873,-0.835,-0.440
874,-0.860,-0.455
875,-0.855,-0.460
876,-0.845,-0.465
877,-0.835,-0.425
878,-0.795,-0.410
879,-0.805,-0.400
880,-0.800,-0.415
881,-0.810,-0.405
882,-0.830,-0.430
883,-0.840,-0.435
884,-0.840,-0.420
885,-0.820,-0.400
886,-0.810,-0.390
887,-0.815,-0.380
888,-0.825,-0.405
889,-0.840,-0.430
890,-0.835,-0.425
891,-0.850,-0.445
892,-0.850,-0.425
893,-0.840,-0.410
894,-0.825,-0.400
895,-0.825,-0.400
896,-0.825,-0.395
897,-0.840,-0.390
898,-0.850,-0.395
899,-0.880,-0.405
900,-0.885,-0.420
901,-0.880,-0.440
902,-0.880,-0.425
903,-0.865,-0.410
904,-0.855,-0.395
905,-0.845,-0.385
906,-0.855,-0.425
907,-0.860,-0.440
908,-0.880,-0.435
909,-0.890,-0.445
910,-0.900,-0.415
911,-0.890,-0.405
912,-0.880,-0.415
913,-0.875,-0.430
914,-0.880,-0.435
915,-0.900,-0.445
916,-0.905,-0.455
917,-0.925,-0.455
918,-0.905,-0.435
919,-0.885,-0.425
920,-0.880,-0.405
921,-0.885,-0.410
922,-0.900,-0.425
923,-0.915,-0.440
924,-0.915,-0.445
925,-0.915,-0.435
926,-0.895,-0.435
927,-0.895,-0.425
928,-0.880,-0.425
929,-0.880,-0.435
930,-0.870,-0.450
931,-0.890,-0.450
932,-0.905,-0.450
933,-0.920,-0.450
934,-0.925,-0.450
935,-0.915,-0.425
936,-0.890,-0.430
937,-0.880,-0.415
938,-0.880,-0.430
939,-0.885,-0.440
940,-0.890,-0.450
941,-0.905,-0.460
942,-0.920,-0.455
943,-0.930,-0.450
944,-0.900,-0.425
945,-0.875,-0.405
946,-0.880,-0.450
947,-0.870,-0.455
948,-0.880,-0.470
949,-0.905,-0.475
950,-0.910,-0.485
951,-0.895,-0.465
952,-0.880,-0.450
953,-0.860,-0.425
954,-0.845,-0.425
955,-0.830,-0.450
956,-0.815,-0.445
957,-0.820,-0.465
958,-0.810,-0.470
959,-0.795,-0.465
960,-0.785,-0.440
961,-0.745,-0.410
962,-0.705,-0.395
963,-0.665,-0.395
964,-0.660,-0.410
965,-0.705,-0.440
966,-0.745,-0.445
967,-0.760,-0.425
968,-0.770,-0.405
969,-0.760,-0.375
970,-0.730,-0.345
971,-0.755,-0.360
972,-0.800,-0.395
973,-0.850,-0.435
974,-0.885,-0.460
975,-0.900,-0.470
976,-0.930,-0.465
977,-0.925,-0.450
978,-0.930,-0.425
979,-0.940,-0.445
980,-0.950,-0.455
981,-0.955,-0.485
982,-0.955,-0.505
983,-0.985,-0.500
984,-0.990,-0.495
985,-0.965,-0.480
986,-0.950,-0.465
987,-0.950,-0.460
988,-0.950,-0.475
989,-0.955,-0.485
990,-0.960,-0.505
991,-0.960,-0.505
992,-0.960,-0.480
993,-0.955,-0.480
994,-0.940,-0.465
995,-0.930,-0.455
996,-0.925,-0.470
997,-0.925,-0.480
998,-0.930,-0.485
999,-0.935,-0.505
1000,-0.930,-0.500
1001,-0.930,-0.490
1002,-0.890,-0.470
1003,-0.880,-0.430
1004,-0.845,-0.390
1005,-0.760,-0.315
1006,-0.530,-0.180
1007,-0.180,0.030
1008,0.280,0.300
1009,0.770,0.480
1010,1.230,0.565
1011,1.500,0.555
1012,1.360,0.430
1013,0.765,0.150
1014,-0.105,-0.250
1015,-1.025,-0.760
1016,-1.690,-1.200
1017,-1.855,-1.435
1018,-1.725,-1.390
1019,-1.470,-1.155
1020,-1.275,-0.925
1021,-1.170,-0.770
1022,-1.105,-0.675
1023,-1.045,-0.630
1024,-0.995,-0.615
1025,-0.975,-0.610
1026,-0.945,-0.565
1027,-0.945,-0.525
1028,-0.955,-0.515
1029,-0.950,-0.510
1030,-0.925,-0.500
1031,-0.940,-0.510
1032,-0.935,-0.515
1033,-0.955,-0.525
1034,-0.950,-0.515
1035,-0.935,-0.500
1036,-0.925,-0.475
1037,-0.920,-0.470
1038,-0.920,-0.485
1039,-0.935,-0.490
1040,-0.935,-0.500
1041,-0.945,-0.495
1042,-0.940,-0.505
1043,-0.945,-0.485
1044,-0.930,-0.480
1045,-0.920,-0.475
1046,-0.910,-0.465
1047,-0.920,-0.480
1048,-0.905,-0.485
1049,-0.930,-0.510
1050,-0.925,-0.505
1051,-0.945,-0.500
1052,-0.940,-0.490
1053,-0.925,-0.480
1054,-0.910,-0.475
1055,-0.900,-0.470
1056,-0.910,-0.480
1057,-0.925,-0.505
1058,-0.930,-0.490
1059,-0.935,-0.490
1060,-0.920,-0.470
1061,-0.890,-0.445
1062,-0.885,-0.450
1063,-0.865,-0.435
1064,-0.875,-0.435
1065,-0.875,-0.445
1066,-0.880,-0.450
1067,-0.865,-0.445
1068,-0.835,-0.440
1069,-0.820,-0.405
1070,-0.790,-0.390
1071,-0.760,-0.385
1072,-0.760,-0.380
1073,-0.770,-0.375
1074,-0.740,-0.375
1075,-0.730,-0.375
1076,-0.700,-0.345
1077,-0.660,-0.320
1078,-0.630,-0.305
1079,-0.600,-0.290
1080,-0.585,-0.295
1081,-0.570,-0.290
1082,-0.555,-0.300
1083,-0.545,-0.295
1084,-0.535,-0.275
1085,-0.495,-0.250
1086,-0.465,-0.230
1087,-0.435,-0.205
1088,-0.435,-0.230
1089,-0.445,-0.230
1090,-0.445,-0.250
1091,-0.470,-0.270
1092,-0.470,-0.275
1093,-0.485,-0.285
1094,-0.500,-0.280
1095,-0.520,-0.285
1096,-0.545,-0.315
1097,-0.585,-0.355
1098,-0.645,-0.395
1099,-0.685,-0.430
1100,-0.705,-0.445
1101,-0.745,-0.455
1102,-0.760,-0.465
1103,-0.765,-0.480
1104,-0.800,-0.500
1105,-0.830,-0.535
1106,-0.835,-0.535
1107,-0.860,-0.560
1108,-0.870,-0.590
1109,-0.880,-0.580
1110,-0.890,-0.575
1111,-0.885,-0.555
1112,-0.890,-0.560
1113,-0.880,-0.560
1114,-0.905,-0.590
1115,-0.915,-0.590
1116,-0.925,-0.600
1117,-0.930,-0.615
1118,-0.925,-0.615
1119,-0.905,-0.595
1120,-0.895,-0.590
1121,-0.890,-0.590
1122,-0.905,-0.610
1123,-0.910,-0.620
1124,-0.930,-0.625
1125,-0.940,-0.625
1126,-0.920,-0.625
1127,-0.900,-0.605
1128,-0.890,-0.595
1129,-0.875,-0.580
1130,-0.885,-0.605
1131,-0.890,-0.605
1132,-0.890,-0.620
1133,-0.900,-0.620
1134,-0.895,-0.600
1135,-0.890,-0.590
1136,-0.875,-0.585
1137,-0.870,-0.580
1138,-0.860,-0.585
1139,-0.870,-0.590
1140,-0.880,-0.595
1141,-0.885,-0.610
1142,-0.885,-0.615
1143,-0.875,-0.600
1144,-0.870,-0.595
1145,-0.855,-0.590
1146,-0.855,-0.585
1147,-0.855,-0.585
1148,-0.870,-0.590
1149,-0.880,-0.605
1150,-0.880,-0.600
1151,-0.890,-0.605
1152,-0.880,-0.580
1153,-0.880,-0.590
1154,-0.870,-0.580
1155,-0.880,-0.600
1156,-0.905,-0.610
1157,-0.910,-0.630
1158,-0.915,-0.640
1159,-0.920,-0.635
1160,-0.920,-0.610
1161,-0.905,-0.610
1162,-0.890,-0.605
1163,-0.895,-0.610
1164,-0.890,-0.620
1165,-0.920,-0.635
1166,-0.935,-0.655
1167,-0.940,-0.660
1168,-0.930,-0.650
1169,-0.920,-0.650
1170,-0.910,-0.640
1171,-0.915,-0.635
1172,-0.915,-0.635
1173,-0.940,-0.655
1174,-0.945,-0.665
1175,-0.945,-0.670
1176,-0.955,-0.665
1177,-0.950,-0.665
1178,-0.930,-0.660
1179,-0.920,-0.655
1180,-0.930,-0.670
1181,-0.940,-0.670
1182,-0.960,-0.695
1183,-0.955,-0.690
1184,-0.965,-0.685
1185,-0.965,-0.685
1186,-0.955,-0.670
1187,-0.940,-0.655
1188,-0.930,-0.675
1189,-0.940,-0.685
1190,-0.945,-0.690
1191,-0.945,-0.695
1192,-0.970,-0.700
1193,-0.960,-0.700
1194,-0.960,-0.685
1195,-0.935,-0.675
1196,-0.940,-0.685
1197,-0.930,-0.690
1198,-0.945,-0.695
1199,-0.960,-0.715
1200,-0.965,-0.710
1201,-0.975,-0.705
1202,-0.950,-0.695
1203,-0.935,-0.695
1204,-0.910,-0.690
1205,-0.920,-0.710
1206,-0.910,-0.705
1207,-0.900,-0.720
1208,-0.880,-0.710
1209,-0.860,-0.705
1210,-0.830,-0.690
1211,-0.815,-0.700
1212,-0.810,-0.675
1213,-0.785,-0.675
1214,-0.765,-0.685
1215,-0.760,-0.680
1216,-0.775,-0.675
1217,-0.795,-0.680
1218,-0.815,-0.690
1219,-0.825,-0.685
1220,-0.825,-0.660
1221,-0.815,-0.660
1222,-0.825,-0.650
1223,-0.855,-0.650
1224,-0.860,-0.660
1225,-0.870,-0.670
1226,-0.925,-0.675
1227,-0.940,-0.685
1228,-0.970,-0.685
1229,-0.975,-0.700
1230,-0.985,-0.720
1231,-1.000,-0.735
1232,-1.025,-0.770
1233,-1.045,-0.750
1234,-1.050,-0.760
1235,-1.055,-0.740
1236,-1.035,-0.730
1237,-1.030,-0.725
1238,-1.015,-0.725
1239,-1.035,-0.735
1240,-1.050,-0.755
1241,-1.050,-0.765
1242,-1.060,-0.755
1243,-1.035,-0.740
1244,-1.025,-0.745
1245,-1.010,-0.720
1246,-1.020,-0.735
1247,-1.010,-0.750
1248,-1.010,-0.745
1249,-1.030,-0.760
1250,-1.025,-0.775
1251,-1.025,-0.750
1252,-1.000,-0.730
1253,-0.985,-0.710
1254,-0.965,-0.705
1255,-0.945,-0.700
1256,-0.950,-0.710
1257,-0.940,-0.700
1258,-0.895,-0.655
1259,-0.760,-0.545
1260,-0.470,-0.345
1261,-0.075,-0.075
1262,0.385,0.150
1263,0.885,0.255
1264,1.280,0.265
1265,1.340,0.200
1266,0.975,0.050
1267,0.180,-0.240
1268,-0.740,-0.690
1269,-1.470,-1.185
1270,-1.770,-1.520
1271,-1.655,-1.550
1272,-1.390,-1.330
1273,-1.205,-1.100
1274,-1.130,-0.960
1275,-1.130,-0.930
1276,-1.110,-0.865
1277,-1.055,-0.825
1278,-0.985,-0.800
1279,-0.955,-0.760
1280,-0.950,-0.750
1281,-0.970,-0.760
1282,-0.995,-0.780
1283,-1.015,-0.770
1284,-1.020,-0.760
1285,-0.990,-0.755
1286,-0.980,-0.730
1287,-0.965,-0.715
1288,-0.955,-0.720
1289,-0.970,-0.730
1290,-0.985,-0.740
1291,-1.010,-0.745
1292,-1.000,-0.745
1293,-1.000,-0.720
1294,-0.990,-0.715
1295,-0.970,-0.690
1296,-0.960,-0.690
1297,-0.960,-0.690
1298,-0.970,-0.705
1299,-0.975,-0.725
1300,-0.985,-0.720
1301,-0.985,-0.730
1302,-0.990,-0.710
1303,-0.970,-0.705
1304,-0.955,-0.695
1305,-0.970,-0.690
1306,-0.965,-0.705
1307,-0.980,-0.715
1308,-0.985,-0.695
1309,-0.980,-0.685
1310,-0.965,-0.690
1311,-0.950,-0.665
1312,-0.935,-0.655
1313,-0.925,-0.665
1314,-0.910,-0.670
1315,-0.920,-0.675
1316,-0.915,-0.685
1317,-0.920,-0.680
1318,-0.910,-0.665
1319,-0.880,-0.635
1320,-0.845,-0.620
1321,-0.825,-0.605
1322,-0.810,-0.595
1323,-0.830,-0.600
1324,-0.805,-0.600
1325,-0.800,-0.600
1326,-0.755,-0.560
1327,-0.720,-0.545
1328,-0.675,-0.505
1329,-0.640,-0.490
1330,-0.620,-0.475
1331,-0.605,-0.465
1332,-0.580,-0.470
1333,-0.570,-0.470
1334,-0.545,-0.455
1335,-0.520,-0.430
1336,-0.500,-0.410
1337,-0.435,-0.385
1338,-0.415,-0.380
1339,-0.410,-0.360
1340,-0.405,-0.390
1341,-0.415,-0.390
1342,-0.425,-0.385
1343,-0.420,-0.380
1344,-0.420,-0.400
1345,-0.425,-0.390
1346,-0.445,-0.425
1347,-0.475,-0.445
1348,-0.515,-0.475
1349,-0.575,-0.525
1350,-0.590,-0.530
1351,-0.660,-0.565
1352,-0.685,-0.580
1353,-0.710,-0.595
1354,-0.745,-0.625
1355,-0.775,-0.645
1356,-0.810,-0.685
1357,-0.840,-0.700
1358,-0.870,-0.715
1359,-0.885,-0.720
1360,-0.885,-0.715
1361,-0.890,-0.710
1362,-0.890,-0.715
1363,-0.890,-0.725
1364,-0.900,-0.740
1365,-0.915,-0.760
1366,-0.930,-0.760
1367,-0.935,-0.760
1368,-0.940,-0.760
1369,-0.935,-0.750
1370,-0.925,-0.740
1371,-0.910,-0.745
1372,-0.925,-0.750
1373,-0.930,-0.755
1374,-0.950,-0.785
1375,-0.945,-0.780
1376,-0.955,-0.775
1377,-0.945,-0.765
1378,-0.920,-0.755
1379,-0.920,-0.745
1380,-0.905,-0.750
1381,-0.920,-0.770
1382,-0.950,-0.765
1383,-0.935,-0.775
1384,-0.950,-0.780
1385,-0.955,-0.760
1386,-0.930,-0.750
1387,-0.905,-0.725
1388,-0.895,-0.740
1389,-0.885,-0.740
1390,-0.905,-0.765
1391,-0.915,-0.760
1392,-0.925,-0.755
1393,-0.910,-0.740
1394,-0.905,-0.725
1395,-0.885,-0.710
1396,-0.870,-0.700
1397,-0.885,-0.705
1398,-0.875,-0.715
1399,-0.900,-0.730
1400,-0.895,-0.740
1401,-0.910,-0.720
1402,-0.905,-0.705
1403,-0.895,-0.715
1404,-0.885,-0.695
1405,-0.880,-0.705
1406,-0.885,-0.720
1407,-0.900,-0.735
1408,-0.915,-0.740
1409,-0.925,-0.735
1410,-0.910,-0.730
1411,-0.895,-0.720
1412,-0.885,-0.705
1413,-0.890,-0.690
1414,-0.910,-0.705
1415,-0.940,-0.740
1416,-0.945,-0.745
1417,-0.940,-0.750
1418,-0.950,-0.745
1419,-0.935,-0.725
1420,-0.920,-0.715
1421,-0.915,-0.715
1422,-0.925,-0.715
1423,-0.930,-0.735
1424,-0.955,-0.760
1425,-0.965,-0.770
1426,-0.955,-0.765
1427,-0.940,-0.745
1428,-0.940,-0.735
1429,-0.940,-0.725
1430,-0.935,-0.730
1431,-0.950,-0.740
1432,-0.960,-0.735
1433,-0.965,-0.750
1434,-0.965,-0.745
1435,-0.975,-0.755
1436,-0.980,-0.740
1437,-0.965,-0.730
1438,-0.960,-0.730
1439,-0.955,-0.740
1440,-0.965,-0.740
1441,-0.990,-0.755
1442,-0.990,-0.755
1443,-0.990,-0.770
1444,-0.975,-0.745
1445,-0.970,-0.725
1446,-0.970,-0.720
1447,-0.960,-0.730
1448,-0.980,-0.745
1449,-0.985,-0.765
1450,-0.990,-0.780
1451,-0.995,-0.765
1452,-0.980,-0.750
1453,-0.965,-0.725
1454,-0.960,-0.730
1455,-0.940,-0.730
1456,-0.945,-0.745
1457,-0.950,-0.760
1458,-0.965,-0.765
1459,-0.940,-0.760
1460,-0.905,-0.735
1461,-0.880,-0.730
1462,-0.855,-0.725
1463,-0.835,-0.720
1464,-0.835,-0.740
1465,-0.850,-0.750
1466,-0.830,-0.755
1467,-0.820,-0.735
1468,-0.795,-0.715
1469,-0.780,-0.685
1470,-0.795,-0.695
1471,-0.810,-0.700
1472,-0.830,-0.715
1473,-0.860,-0.700
1474,-0.885,-0.700
1475,-0.895,-0.690
1476,-0.885,-0.675
1477,-0.885,-0.670
1478,-0.880,-0.670
1479,-0.905,-0.675
1480,-0.930,-0.695
1481,-0.970,-0.725
1482,-1.010,-0.755
1483,-1.045,-0.760
1484,-1.050,-0.745
1485,-1.060,-0.745
1486,-1.050,-0.735
1487,-1.045,-0.725
1488,-1.045,-0.730
1489,-1.045,-0.750
1490,-1.050,-0.760
1491,-1.070,-0.770
1492,-1.075,-0.770
1493,-1.075,-0.755
1494,-1.065,-0.740
1495,-1.045,-0.725
1496,-1.045,-0.715
1497,-1.045,-0.730
1498,-1.050,-0.740
1499,-1.060,-0.740
1500,-1.065,-0.750
1501,-1.060,-0.750
1502,-1.045,-0.740
1503,-1.025,-0.730
1504,-1.030,-0.720
1505,-1.015,-0.700
1506,-1.005,-0.730
1507,-1.010,-0.735
1508,-1.005,-0.725
1509,-1.000,-0.725
1510,-0.975,-0.705
1511,-0.960,-0.690
1512,-0.945,-0.675
1513,-0.920,-0.640
1514,-0.850,-0.600
1515,-0.715,-0.515
1516,-0.445,-0.365
1517,-0.090,-0.115
1518,0.275,0.090
1519,0.710,0.245
1520,1.115,0.300
1521,1.320,0.280
1522,1.145,0.170
1523,0.575,-0.050
1524,-0.270,-0.410
1525,-0.545,-0.545
1526,-1.685,-1.295
1527,-1.840,-1.530
1528,-1.695,-1.490
1529,-1.460,-1.290
1530,-1.305,-1.090
1531,-1.235,-0.955
1532,-1.200,-0.880
1533,-1.160,-0.845
1534,-1.090,-0.820
1535,-1.025,-0.770
1536,-0.985,-0.745
1537,-0.980,-0.720
1538,-0.995,-0.720
1539,-1.005,-0.720
1540,-1.015,-0.720
1541,-1.020,-0.730
1542,-1.020,-0.700
1543,-1.015,-0.695
1544,-1.005,-0.675
1545,-0.995,-0.670
1546,-0.980,-0.665
1547,-1.000,-0.655
1548,-1.000,-0.650
1549,-1.010,-0.675
1550,-1.005,-0.680
1551,-1.005,-0.680
1552,-0.995,-0.665
1553,-0.985,-0.655
1554,-0.980,-0.635
1555,-0.980,-0.640
1556,-0.975,-0.655
1557,-0.990,-0.660
1558,-0.995,-0.670
1559,-1.005,-0.665
1560,-1.000,-0.650
1561,-0.995,-0.640
1562,-0.970,-0.620
1563,-0.970,-0.630
1564,-0.960,-0.640
1565,-0.980,-0.655
1566,-1.000,-0.655
1567,-1.005,-0.650
1568,-0.980,-0.635
1569,-0.960,-0.620
1570,-0.935,-0.605
1571,-0.910,-0.610
1572,-0.915,-0.610
1573,-0.905,-0.605
1574,-0.915,-0.620
1575,-0.915,-0.620
1576,-0.910,-0.595
1577,-0.890,-0.575
1578,-0.865,-0.560
1579,-0.835,-0.545
1580,-0.820,-0.545
1581,-0.810,-0.530
1582,-0.790,-0.535
1583,-0.790,-0.515
1584,-0.765,-0.515
1585,-0.730,-0.480
1586,-0.700,-0.450
1587,-0.650,-0.430
1588,-0.625,-0.410
1589,-0.595,-0.410
1590,-0.595,-0.405
1591,-0.585,-0.420
1592,-0.550,-0.400
1593,-0.515,-0.385
1594,-0.485,-0.345
1595,-0.465,-0.330
1596,-0.420,-0.320
1597,-0.410,-0.305
1598,-0.395,-0.310
1599,-0.390,-0.310
1600,-0.395,-0.315
1601,-0.415,-0.320
1602,-0.430,-0.325
1603,-0.445,-0.330
1604,-0.455,-0.340
1605,-0.485,-0.370
1606,-0.525,-0.400
1607,-0.585,-0.430
1608,-0.645,-0.475
1609,-0.680,-0.490
1610,-0.690,-0.525
1611,-0.715,-0.535
1612,-0.730,-0.540
1613,-0.770,-0.560
1614,-0.800,-0.575
1615,-0.830,-0.595
1616,-0.845,-0.610
1617,-0.880,-0.640
1618,-0.895,-0.655
1619,-0.890,-0.645
1620,-0.895,-0.640
1621,-0.880,-0.635
1622,-0.880,-0.655
1623,-0.905,-0.675
1624,-0.925,-0.675
1625,-0.930,-0.675
1626,-0.945,-0.670
1627,-0.940,-0.665
1628,-0.920,-0.650
1629,-0.900,-0.665
1630,-0.895,-0.670
1631,-0.930,-0.670
1632,-0.940,-0.695
1633,-0.970,-0.705
1634,-0.980,-0.705
1635,-0.955,-0.685
1636,-0.945,-0.680
1637,-0.935,-0.655
1638,-0.920,-0.665
1639,-0.920,-0.665
1640,-0.920,-0.670
1641,-0.940,-0.680
1642,-0.950,-0.675
1643,-0.945,-0.670
1644,-0.940,-0.655
1645,-0.900,-0.660
1646,-0.880,-0.660
1647,-0.875,-0.655
1648,-0.890,-0.655
1649,-0.890,-0.670
1650,-0.890,-0.680
1651,-0.905,-0.675
1652,-0.895,-0.650
1653,-0.890,-0.640
1654,-0.860,-0.620
1655,-0.860,-0.610
1656,-0.860,-0.615
1657,-0.860,-0.640
1658,-0.875,-0.640
1659,-0.895,-0.635
1660,-0.890,-0.640
1661,-0.880,-0.620
1662,-0.865,-0.600
1663,-0.860,-0.615
1664,-0.875,-0.625
1665,-0.870,-0.625
1666,-0.885,-0.635
1667,-0.890,-0.635
1668,-0.905,-0.635
1669,-0.905,-0.620
1670,-0.905,-0.630
1671,-0.865,-0.630
1672,-0.860,-0.630
1673,-0.860,-0.615
1674,-0.880,-0.645
1675,-0.890,-0.640
1676,-0.935,-0.655
1677,-0.930,-0.650
1678,-0.920,-0.645
1679,-0.900,-0.640
1680,-0.895,-0.630
1681,-0.895,-0.645
1682,-0.910,-0.670
1683,-0.920,-0.685
1684,-0.925,-0.670
1685,-0.935,-0.665
1686,-0.925,-0.645
1687,-0.920,-0.650
1688,-0.905,-0.640
1689,-0.905,-0.655
1690,-0.910,-0.660
1691,-0.925,-0.670
1692,-0.945,-0.665
1693,-0.945,-0.660
1694,-0.930,-0.665
1695,-0.900,-0.635
1696,-0.900,-0.635
1697,-0.910,-0.655
1698,-0.915,-0.670
1699,-0.925,-0.680
1700,-0.920,-0.675
1701,-0.920,-0.675
1702,-0.910,-0.665
1703,-0.895,-0.650
1704,-0.880,-0.655
1705,-0.900,-0.655
1706,-0.890,-0.655
1707,-0.875,-0.665
1708,-0.855,-0.685
1709,-0.845,-0.670
1710,-0.815,-0.660
1711,-0.785,-0.660
1712,-0.760,-0.650
1713,-0.755,-0.630
1714,-0.735,-0.610
1715,-0.735,-0.610
1716,-0.725,-0.615
1717,-0.730,-0.625
1718,-0.735,-0.625
1719,-0.740,-0.650
1720,-0.750,-0.625
1721,-0.750,-0.625
1722,-0.770,-0.605
1723,-0.770,-0.585
1724,-0.775,-0.580
1725,-0.785,-0.585
1726,-0.830,-0.600
1727,-0.870,-0.610
1728,-0.905,-0.625
1729,-0.915,-0.620
1730,-0.915,-0.650
1731,-0.930,-0.640
1732,-0.955,-0.655
1733,-0.970,-0.685
1734,-0.980,-0.695
1735,-0.985,-0.695
1736,-0.985,-0.670
1737,-0.970,-0.665
1738,-0.960,-0.660
1739,-0.965,-0.660
1740,-0.975,-0.670
1741,-0.985,-0.675
1742,-0.990,-0.675
1743,-1.000,-0.680
1744,-0.970,-0.655
1745,-0.940,-0.645
1746,-0.920,-0.630
1747,-0.915,-0.660
1748,-0.935,-0.670
1749,-0.945,-0.670
1750,-0.950,-0.670
1751,-0.960,-0.650
1752,-0.940,-0.650
1753,-0.940,-0.645
1754,-0.920,-0.630
1755,-0.905,-0.645
1756,-0.895,-0.650
1757,-0.890,-0.640
1758,-0.875,-0.650
1759,-0.885,-0.635
1760,-0.860,-0.600
1761,-0.785,-0.525
1762,-0.595,-0.400
1763,-0.270,-0.210
1764,0.120,0.035
1765,0.520,0.225
1766,0.945,0.315
1767,1.315,0.340
1768,1.495,0.320
1769,1.315,0.235
1770,0.800,0.070
1771,-0.005,-0.265
1772,-0.930,-0.770
1773,-1.635,-1.300
1774,-1.860,-1.570
1775,-1.865,-1.610
1776,-1.450,-1.285
1777,-1.240,-1.020
1778,-1.100,-0.840
1779,-1.035,-0.770
1780,-0.980,-0.740
1781,-0.950,-0.735
1782,-0.935,-0.725
1783,-0.935,-0.705
1784,-0.945,-0.680
1785,-0.945,-0.660
1786,-0.935,-0.645
1787,-0.930,-0.645
1788,-0.915,-0.645
1789,-0.920,-0.660
1790,-0.920,-0.650
1791,-0.930,-0.645
1792,-0.940,-0.665
1793,-0.925,-0.655
1794,-0.920,-0.620
1795,-0.900,-0.600
1796,-0.885,-0.600
1797,-0.895,-0.605
1798,-0.905,-0.625
1799,-0.900,-0.635
1800,-0.905,-0.640
1801,-0.935,-0.630
1802,-0.930,-0.595
1803,-0.910,-0.605
1804,-0.875,-0.590
1805,-0.880,-0.605
1806,-0.885,-0.620
1807,-0.900,-0.635
1808,-0.910,-0.645
1809,-0.910,-0.640
1810,-0.915,-0.610
1811,-0.885,-0.600
1812,-0.870,-0.580
1813,-0.875,-0.590
1814,-0.880,-0.585
1815,-0.880,-0.595
1816,-0.880,-0.610
1817,-0.890,-0.605
1818,-0.890,-0.595
1819,-0.865,-0.585
1820,-0.840,-0.570
1821,-0.820,-0.560
1822,-0.810,-0.550
1823,-0.800,-0.550
1824,-0.800,-0.565
1825,-0.795,-0.555
1826,-0.790,-0.545
1827,-0.765,-0.530
1828,-0.720,-0.495
1829,-0.695,-0.470
1830,-0.655,-0.460
1831,-0.650,-0.445
1832,-0.630,-0.445
1833,-0.620,-0.435
1834,-0.590,-0.430
1835,-0.570,-0.415
1836,-0.520,-0.385
1837,-0.505,-0.360
1838,-0.490,-0.345
1839,-0.440,-0.330
1840,-0.425,-0.340
1841,-0.430,-0.335
1842,-0.415,-0.335
1843,-0.395,-0.315
1844,-0.360,-0.295
1845,-0.330,-0.290
1846,-0.325,-0.290
1847,-0.330,-0.295
1848,-0.355,-0.320
1849,-0.385,-0.345
1850,-0.405,-0.350
1851,-0.450,-0.370
1852,-0.485,-0.400
1853,-0.495,-0.400
1854,-0.525,-0.425
1855,-0.570,-0.455
1856,-0.610,-0.500
1857,-0.660,-0.550
1858,-0.720,-0.575
1859,-0.750,-0.585
1860,-0.765,-0.590
1861,-0.770,-0.600
1862,-0.785,-0.605
1863,-0.790,-0.625
1864,-0.805,-0.640
1865,-0.820,-0.660
1866,-0.860,-0.665
1867,-0.870,-0.675
1868,-0.880,-0.670
1869,-0.870,-0.680
1870,-0.860,-0.665
1871,-0.855,-0.660
1872,-0.860,-0.665
1873,-0.855,-0.690
1874,-0.890,-0.700
1875,-0.900,-0.710
1876,-0.920,-0.715
1877,-0.925,-0.705
1878,-0.905,-0.690
1879,-0.890,-0.690
1880,-0.900,-0.695
1881,-0.905,-0.705
1882,-0.920,-0.715
1883,-0.935,-0.720
1884,-0.925,-0.720
1885,-0.925,-0.715
1886,-0.905,-0.700
1887,-0.915,-0.700
1888,-0.905,-0.690
1889,-0.885,-0.700
1890,-0.910,-0.715
1891,-0.930,-0.710
1892,-0.910,-0.710
1893,-0.915,-0.705
1894,-0.895,-0.695
1895,-0.885,-0.680
1896,-0.880,-0.680
1897,-0.860,-0.690
1898,-0.870,-0.685
1899,-0.885,-0.690
1900,-0.885,-0.680
1901,-0.895,-0.705
1902,-0.880,-0.690
1903,-0.870,-0.675
1904,-0.860,-0.660
1905,-0.860,-0.650
1906,-0.855,-0.660
1907,-0.865,-0.690
1908,-0.880,-0.690
1909,-0.885,-0.690
1910,-0.880,-0.690
1911,-0.865,-0.680
1912,-0.865,-0.660
1913,-0.855,-0.685
1914,-0.865,-0.690
1915,-0.885,-0.705
1916,-0.895,-0.705
1917,-0.905,-0.710
1918,-0.915,-0.715
1919,-0.910,-0.685
1920,-0.885,-0.690
1921,-0.885,-0.685
1922,-0.885,-0.695
1923,-0.900,-0.705
1924,-0.905,-0.710
1925,-0.905,-0.715
1926,-0.940,-0.725
1927,-0.940,-0.720
1928,-0.920,-0.710
1929,-0.925,-0.705
1930,-0.920,-0.730
1931,-0.925,-0.720
1932,-0.930,-0.730
1933,-0.950,-0.745
1934,-0.945,-0.740
1935,-0.945,-0.730
1936,-0.945,-0.730
1937,-0.920,-0.720
1938,-0.920,-0.725
1939,-0.925,-0.740
1940,-0.925,-0.740
1941,-0.945,-0.770
1942,-0.955,-0.770
1943,-0.950,-0.750
1944,-0.945,-0.740
1945,-0.935,-0.745
1946,-0.920,-0.735
1947,-0.920,-0.735
1948,-0.935,-0.740
1949,-0.950,-0.760
1950,-0.965,-0.775
1951,-0.965,-0.765
1952,-0.955,-0.745
1953,-0.945,-0.730
1954,-0.935,-0.725
1955,-0.925,-0.740
1956,-0.935,-0.745
1957,-0.950,-0.750
1958,-0.955,-0.755
1959,-0.955,-0.760
1960,-0.960,-0.755
1961,-0.935,-0.735
1962,-0.920,-0.735
1963,-0.910,-0.725
1964,-0.900,-0.725
1965,-0.905,-0.750
1966,-0.905,-0.760
1967,-0.885,-0.770
1968,-0.855,-0.755
1969,-0.835,-0.755
1970,-0.795,-0.725
1971,-0.785,-0.715
1972,-0.775,-0.715
1973,-0.755,-0.715
1974,-0.750,-0.705
1975,-0.760,-0.710
1976,-0.775,-0.710
1977,-0.785,-0.725
1978,-0.805,-0.710
1979,-0.795,-0.690
1980,-0.800,-0.685
1981,-0.815,-0.675
1982,-0.835,-0.665
1983,-0.850,-0.700
1984,-0.870,-0.700
1985,-0.905,-0.720
1986,-0.920,-0.715
1987,-0.945,-0.710
1988,-0.960,-0.725
1989,-0.980,-0.730
1990,-0.985,-0.755
1991,-1.010,-0.765
1992,-1.010,-0.770
1993,-1.020,-0.760
1994,-1.020,-0.745
1995,-1.010,-0.740
1996,-1.005,-0.730
1997,-0.985,-0.730
1998,-0.995,-0.760
1999,-1.010,-0.775
2000,-1.005,-0.780
2001,-1.015,-0.765
2002,-1.010,-0.755
2003,-1.015,-0.745
2004,-1.000,-0.735
2005,-0.985,-0.740
2006,-0.975,-0.750
2007,-0.990,-0.750
2008,-1.000,-0.755
2009,-0.990,-0.760
2010,-0.980,-0.750
2011,-0.970,-0.740
2012,-0.955,-0.725
2013,-0.930,-0.730
2014,-0.920,-0.720
2015,-0.915,-0.720
2016,-0.920,-0.730
2017,-0.910,-0.730
2018,-0.870,-0.685
2019,-0.780,-0.595
2020,-0.570,-0.455
2021,-0.215,-0.260
2022,0.190,-0.020
2023,0.610,0.120
2024,1.030,0.150
2025,1.155,0.150
2026,1.330,0.135
2027,0.965,0.045
2028,0.260,-0.180
2029,-0.590,-0.545
2030,-1.330,-1.020
2031,-1.685,-1.400
2032,-1.655,-1.550
2033,-1.390,-1.380
2034,-1.155,-1.135
2035,-1.080,-0.955
2036,-1.060,-0.880
2037,-1.050,-0.845
2038,-1.015,-0.830
2039,-0.965,-0.825
2040,-0.935,-0.810
2041,-0.925,-0.785
2042,-0.960,-0.775
2043,-0.980,-0.770
2044,-0.975,-0.740
2045,-0.950,-0.730
2046,-0.925,-0.715
2047,-0.920,-0.720
2048,-0.920,-0.725
2049,-0.955,-0.740
2050,-0.965,-0.745
2051,-0.975,-0.735
2052,-0.960,-0.735
2053,-0.940,-0.715
2054,-0.925,-0.705
2055,-0.925,-0.705
2056,-0.920,-0.715
2057,-0.940,-0.715
2058,-0.925,-0.720
2059,-0.930,-0.715
2060,-0.940,-0.715
2061,-0.930,-0.685
2062,-0.915,-0.685
2063,-0.900,-0.675
2064,-0.910,-0.680
2065,-0.900,-0.695
2066,-0.915,-0.705
2067,-0.930,-0.705
2068,-0.925,-0.705
2069,-0.900,-0.695
2070,-0.890,-0.680
2071,-0.875,-0.655
2072,-0.890,-0.665
2073,-0.890,-0.675
2074,-0.890,-0.690
2075,-0.885,-0.690
2076,-0.885,-0.675
2077,-0.870,-0.655
2078,-0.865,-0.635
2079,-0.835,-0.615
2080,-0.810,-0.615
2081,-0.800,-0.615
2082,-0.825,-0.615
2083,-0.830,-0.625
2084,-0.825,-0.620
2085,-0.785,-0.590
2086,-0.760,-0.570
2087,-0.735,-0.545
2088,-0.705,-0.545
2089,-0.680,-0.530
2090,-0.660,-0.530
2091,-0.640,-0.515
2092,-0.635,-0.520
2093,-0.600,-0.505
2094,-0.565,-0.475
2095,-0.530,-0.435
2096,-0.495,-0.420
2097,-0.455,-0.415
2098,-0.440,-0.410
2099,-0.430,-0.405
2100,-0.430,-0.410
2101,-0.400,-0.390
2102,-0.385,-0.360
2103,-0.360,-0.370
2104,-0.330,-0.350
2105,-0.320,-0.335
2106,-0.335,-0.350
2107,-0.350,-0.375
2108,-0.370,-0.385
2109,-0.390,-0.405
2110,-0.415,-0.415
2111,-0.435,-0.420
2112,-0.455,-0.440
2113,-0.485,-0.455
2114,-0.535,-0.495
2115,-0.575,-0.530
2116,-0.620,-0.565
2117,-0.670,-0.590
2118,-0.700,-0.605
2119,-0.715,-0.615
2120,-0.730,-0.625
2121,-0.755,-0.640
2122,-0.770,-0.660
2123,-0.785,-0.685
2124,-0.815,-0.700
2125,-0.825,-0.710
2126,-0.865,-0.725
2127,-0.845,-0.710
2128,-0.850,-0.695
2129,-0.820,-0.690
2130,-0.840,-0.705
2131,-0.840,-0.710
2132,-0.860,-0.730
2133,-0.870,-0.740
2134,-0.880,-0.735
2135,-0.885,-0.735
2136,-0.865,-0.715
2137,-0.865,-0.710
2138,-0.855,-0.705
2139,-0.850,-0.700
2140,-0.865,-0.720
2141,-0.880,-0.720
2142,-0.885,-0.745
2143,-0.890,-0.725
2144,-0.890,-0.720
2145,-0.870,-0.715
2146,-0.850,-0.715
2147,-0.865,-0.725
2148,-0.875,-0.725
2149,-0.860,-0.740
2150,-0.870,-0.735
2151,-0.890,-0.740
2152,-0.865,-0.710
2153,-0.850,-0.715
2154,-0.840,-0.695
2155,-0.845,-0.685
2156,-0.845,-0.695
2157,-0.850,-0.720
2158,-0.850,-0.710
2159,-0.840,-0.710
2160,-0.845,-0.695
2161,-0.840,-0.675
2162,-0.815,-0.680
2163,-0.815,-0.675
2164,-0.815,-0.670
2165,-0.825,-0.690
2166,-0.835,-0.700
2167,-0.835,-0.705
2168,-0.840,-0.700
2169,-0.845,-0.690
2170,-0.830,-0.690
2171,-0.800,-0.670
2172,-0.795,-0.665
2173,-0.830,-0.685
2174,-0.840,-0.695
2175,-0.850,-0.705
2176,-0.875,-0.715
2177,-0.870,-0.705
2178,-0.860,-0.695
2179,-0.840,-0.680
2180,-0.840,-0.690
2181,-0.845,-0.705
2182,-0.865,-0.705
2183,-0.870,-0.720
2184,-0.885,-0.725
2185,-0.895,-0.720
2186,-0.875,-0.725
2187,-0.860,-0.690
2188,-0.855,-0.705
2189,-0.855,-0.700
2190,-0.860,-0.720
2191,-0.880,-0.730
2192,-0.895,-0.735
2193,-0.905,-0.730
2194,-0.905,-0.720
2195,-0.895,-0.710
2196,-0.870,-0.710
2197,-0.870,-0.710
2198,-0.875,-0.720
2199,-0.890,-0.725
2200,-0.900,-0.730
2201,-0.920,-0.715
2202,-0.910,-0.715
2203,-0.890,-0.705
2204,-0.870,-0.690
2205,-0.885,-0.695
2206,-0.875,-0.720
2207,-0.900,-0.725
2208,-0.915,-0.735
2209,-0.930,-0.745
2210,-0.910,-0.725
2211,-0.920,-0.700
2212,-0.895,-0.695
2213,-0.880,-0.690
2214,-0.875,-0.700
2215,-0.880,-0.700
2216,-0.900,-0.730
2217,-0.905,-0.730
2218,-0.910,-0.725
2219,-0.905,-0.710
2220,-0.890,-0.690
2221,-0.880,-0.685
2222,-0.880,-0.695
2223,-0.890,-0.710
2224,-0.915,-0.715
2225,-0.925,-0.710
2226,-0.915,-0.705
2227,-0.900,-0.695
2228,-0.890,-0.680
2229,-0.875,-0.675
2230,-0.875,-0.675
2231,-0.880,-0.685
2232,-0.895,-0.695
2233,-0.905,-0.715
2234,-0.930,-0.715
2235,-0.935,-0.710
2236,-0.900,-0.690
2237,-0.890,-0.680
2238,-0.885,-0.670
2239,-0.895,-0.675
2240,-0.895,-0.700
2241,-0.905,-0.700
2242,-0.910,-0.710
2243,-0.910,-0.700
2244,-0.910,-0.690
2245,-0.895,-0.680
2246,-0.880,-0.660
2247,-0.885,-0.660
2248,-0.895,-0.695
2249,-0.905,-0.690
2250,-0.910,-0.695
2251,-0.930,-0.695
2252,-0.930,-0.690
2253,-0.910,-0.680
2254,-0.905,-0.680
2255,-0.895,-0.675
2256,-0.910,-0.670
2257,-0.915,-0.690
2258,-0.920,-0.700
2259,-0.925,-0.690
2260,-0.935,-0.685
2261,-0.925,-0.670
2262,-0.915,-0.665
2263,-0.905,-0.650
2264,-0.890,-0.660
2265,-0.890,-0.665
2266,-0.915,-0.680
2267,-0.925,-0.685
2268,-0.945,-0.670
2269,-0.910,-0.675
2270,-0.910,-0.645
2271,-0.890,-0.640
2272,-0.880,-0.650
2273,-0.885,-0.660
2274,-0.900,-0.685
2275,-0.910,-0.690
2276,-0.925,-0.660
2277,-0.915,-0.665
2278,-0.900,-0.650
2279,-0.880,-0.655
2280,-0.870,-0.630
2281,-0.870,-0.640
2282,-0.890,-0.655
2283,-0.905,-0.665
2284,-0.910,-0.665
2285,-0.905,-0.655
2286,-0.905,-0.635
2287,-0.885,-0.630
2288,-0.890,-0.635
2289,-0.870,-0.645
2290,-0.875,-0.650
2291,-0.880,-0.650
2292,-0.890,-0.650
2293,-0.900,-0.635
2294,-0.890,-0.630
2295,-0.870,-0.625
2296,-0.865,-0.605
2297,-0.855,-0.610
2298,-0.860,-0.615
2299,-0.875,-0.615
2300,-0.880,-0.620
2301,-0.885,-0.645
2302,-0.890,-0.630
2303,-0.880,-0.615
2304,-0.860,-0.615
2305,-0.860,-0.605
2306,-0.860,-0.615
2307,-0.880,-0.620
2308,-0.885,-0.630
2309,-0.880,-0.630
2310,-0.860,-0.610
2311,-0.855,-0.595
2312,-0.840,-0.585
2313,-0.840,-0.570
2314,-0.845,-0.580
2315,-0.845,-0.595
2316,-0.835,-0.615
2317,-0.850,-0.630
2318,-0.850,-0.620
2319,-0.820,-0.615
2320,-0.775,-0.595
2321,-0.740,-0.590
2322,-0.730,-0.575
2323,-0.735,-0.590
2324,-0.745,-0.610
2325,-0.750,-0.610
2326,-0.720,-0.580
2327,-0.675,-0.570
2328,-0.645,-0.545
2329,-0.610,-0.520
2330,-0.595,-0.535
2331,-0.620,-0.520
2332,-0.650,-0.540
2333,-0.675,-0.560
2334,-0.685,-0.545
2335,-0.700,-0.535
2336,-0.705,-0.525
2337,-0.705,-0.515
2338,-0.710,-0.505
2339,-0.745,-0.505
2340,-0.795,-0.540
2341,-0.835,-0.575
2342,-0.880,-0.585
2343,-0.885,-0.585
2344,-0.900,-0.570
2345,-0.895,-0.565
2346,-0.885,-0.550
2347,-0.885,-0.565
2348,-0.890,-0.575
2349,-0.905,-0.585
2350,-0.910,-0.595
2351,-0.920,-0.595
2352,-0.920,-0.575
2353,-0.915,-0.570
2354,-0.895,-0.550
2355,-0.880,-0.550
2356,-0.895,-0.550
2357,-0.890,-0.565
2358,-0.915,-0.565
2359,-0.915,-0.565
2360,-0.905,-0.575
2361,-0.895,-0.570
2362,-0.885,-0.550
2363,-0.890,-0.545
2364,-0.875,-0.550
2365,-0.880,-0.565
2366,-0.890,-0.570
2367,-0.895,-0.580
2368,-0.895,-0.565
2369,-0.880,-0.550
2370,-0.855,-0.530
2371,-0.840,-0.510
2372,-0.810,-0.505
2373,-0.795,-0.485
2374,-0.765,-0.455
2375,-0.745,-0.435
2376,-0.375,-0.190
2377,0.030,0.055
2378,0.470,0.265
2379,0.940,0.360
2380,1.325,0.365
2381,1.405,0.320
2382,1.080,0.180
2383,0.325,-0.080
2384,-0.580,-0.460
2385,-1.385,-0.940
2386,-1.745,-1.285
2387,-1.650,-1.315
2388,-1.370,-1.145
2389,-1.145,-0.885
2390,-1.040,-0.745
2391,-1.020,-0.675
2392,-0.985,-0.665
2393,-0.955,-0.635
2394,-0.900,-0.615
2395,-0.875,-0.580
2396,-0.875,-0.565
2397,-0.875,-0.550
2398,-0.875,-0.570
2399,-0.885,-0.580
2400,-0.880,-0.580
2401,-0.870,-0.565
2402,-0.885,-0.545
2403,-0.875,-0.530
2404,-0.885,-0.515
2405,-0.860,-0.515
2406,-0.875,-0.510
2407,-0.885,-0.510
2408,-0.885,-0.530
2409,-0.885,-0.535
2410,-0.895,-0.540
2411,-0.880,-0.505
2412,-0.865,-0.505
2413,-0.855,-0.490
2414,-0.850,-0.490
2415,-0.865,-0.500
2416,-0.870,-0.545
2417,-0.880,-0.545
2418,-0.895,-0.535
2419,-0.885,-0.505
2420,-0.865,-0.485
2421,-0.860,-0.475
2422,-0.845,-0.490
2423,-0.835,-0.505
2424,-0.850,-0.510
2425,-0.860,-0.525
2426,-0.860,-0.495
2427,-0.850,-0.495
2428,-0.840,-0.485
2429,-0.810,-0.470
2430,-0.795,-0.465
2431,-0.800,-0.455
2432,-0.805,-0.465
2433,-0.805,-0.480
2434,-0.805,-0.460
2435,-0.810,-0.465
2436,-0.790,-0.435
2437,-0.755,-0.400
2438,-0.735,-0.390
2439,-0.715,-0.390
2440,-0.700,-0.395
2441,-0.700,-0.390
2442,-0.695,-0.390
2443,-0.680,-0.365
2444,-0.655,-0.350
2445,-0.640,-0.335
2446,-0.585,-0.305
2447,-0.550,-0.290
2448,-0.545,-0.290
2449,-0.540,-0.290
2450,-0.535,-0.295
2451,-0.505,-0.280
2452,-0.475,-0.270
2453,-0.435,-0.245
2454,-0.400,-0.215
2455,-0.395,-0.195
2456,-0.380,-0.210
2457,-0.375,-0.195
2458,-0.370,-0.205
2459,-0.360,-0.215
2460,-0.350,-0.205
2461,-0.360,-0.210
2462,-0.365,-0.200
2463,-0.370,-0.220
2464,-0.385,-0.245
2465,-0.425,-0.265
2466,-0.470,-0.305
2467,-0.500,-0.320
2468,-0.555,-0.360
2469,-0.580,-0.350
2470,-0.610,-0.365
2471,-0.620,-0.380
2472,-0.630,-0.395
2473,-0.645,-0.405
2474,-0.690,-0.430
2475,-0.705,-0.435
2476,-0.755,-0.465
2477,-0.765,-0.480
2478,-0.750,-0.470
2479,-0.755,-0.450
2480,-0.745,-0.465
2481,-0.760,-0.490
2482,-0.770,-0.495
2483,-0.775,-0.510
2484,-0.775,-0.510
2485,-0.800,-0.495
2486,-0.790,-0.500
2487,-0.795,-0.520
2488,-0.780,-0.510
2489,-0.780,-0.500
2490,-0.790,-0.500
2491,-0.805,-0.515
2492,-0.810,-0.520
2493,-0.800,-0.510
2494,-0.790,-0.495
2495,-0.785,-0.495
2496,-0.765,-0.485
2497,-0.760,-0.480
2498,-0.775,-0.485
2499,-0.770,-0.490
2500,-0.770,-0.495
2501,-0.775,-0.495
2502,-0.780,-0.490
2503,-0.765,-0.470
2504,-0.755,-0.440
2505,-0.750,-0.440
2506,-0.745,-0.455
2507,-0.750,-0.455
2508,-0.745,-0.485
2509,-0.755,-0.460
2510,-0.770,-0.460
2511,-0.760,-0.455
2512,-0.750,-0.445
2513,-0.735,-0.430
2514,-0.730,-0.440
2515,-0.735,-0.435
2516,-0.775,-0.440
2517,-0.760,-0.450
2518,-0.760,-0.445
2519,-0.750,-0.435
2520,-0.740,-0.430
2521,-0.730,-0.425
2522,-0.725,-0.415
2523,-0.725,-0.445
2524,-0.750,-0.455
2525,-0.760,-0.450
2526,-0.775,-0.460
2527,-0.760,-0.450
2528,-0.745,-0.430
2529,-0.755,-0.425
2530,-0.735,-0.430
2531,-0.745,-0.430
2532,-0.770,-0.445
2533,-0.780,-0.465
2534,-0.790,-0.470
2535,-0.795,-0.475
2536,-0.795,-0.460
2537,-0.780,-0.445
2538,-0.780,-0.440
2539,-0.785,-0.450
2540,-0.790,-0.465
2541,-0.795,-0.495
2542,-0.810,-0.505
2543,-0.805,-0.490
2544,-0.805,-0.460
2545,-0.785,-0.445
2546,-0.785,-0.425
2547,-0.785,-0.445
2548,-0.800,-0.460
2549,-0.815,-0.470
2550,-0.815,-0.475
2551,-0.825,-0.480
2552,-0.835,-0.480
2553,-0.815,-0.465
2554,-0.795,-0.455
2555,-0.805,-0.455
2556,-0.795,-0.450
2557,-0.800,-0.475
2558,-0.810,-0.480
2559,-0.820,-0.490
2560,-0.825,-0.475
2561,-0.815,-0.465
2562,-0.800,-0.440
2563,-0.785,-0.445
2564,-0.780,-0.455
2565,-0.805,-0.460
2566,-0.810,-0.475
2567,-0.820,-0.480
2568,-0.830,-0.495
2569,-0.825,-0.480
2570,-0.820,-0.465
2571,-0.800,-0.440
2572,-0.810,-0.455
2573,-0.825,-0.470
2574,-0.805,-0.475
2575,-0.810,-0.480
2576,-0.820,-0.490
2577,-0.835,-0.495
2578,-0.830,-0.480
2579,-0.805,-0.480
2580,-0.795,-0.470
2581,-0.800,-0.470
2582,-0.805,-0.470
2583,-0.805,-0.485
2584,-0.810,-0.490
2585,-0.835,-0.475
2586,-0.840,-0.470
2587,-0.815,-0.480
2588,-0.800,-0.480
2589,-0.790,-0.460
2590,-0.800,-0.490
2591,-0.840,-0.495
2592,-0.830,-0.505
2593,-0.830,-0.495
2594,-0.840,-0.495
2595,-0.825,-0.470
2596,-0.815,-0.450
2597,-0.795,-0.450
2598,-0.800,-0.465
2599,-0.805,-0.475
2600,-0.820,-0.485
2601,-0.840,-0.490
2602,-0.835,-0.475
2603,-0.825,-0.465
2604,-0.800,-0.470
2605,-0.800,-0.465
2606,-0.795,-0.465
2607,-0.795,-0.480
2608,-0.820,-0.495
2609,-0.830,-0.505
2610,-0.835,-0.505
2611,-0.820,-0.475
2612,-0.805,-0.460
2613,-0.800,-0.460
2614,-0.805,-0.460
2615,-0.800,-0.485
2616,-0.815,-0.490
2617,-0.810,-0.505
2618,-0.820,-0.495
2619,-0.805,-0.480
2620,-0.810,-0.465
2621,-0.795,-0.455
2622,-0.790,-0.470
2623,-0.790,-0.490
2624,-0.800,-0.485
2625,-0.805,-0.495
2626,-0.810,-0.490
2627,-0.805,-0.490
2628,-0.815,-0.490
2629,-0.800,-0.470
2630,-0.790,-0.470
2631,-0.790,-0.465
2632,-0.780,-0.485
2633,-0.805,-0.495
2634,-0.810,-0.510
2635,-0.820,-0.525
2636,-0.815,-0.505
2637,-0.800,-0.490
2638,-0.795,-0.475
2639,-0.780,-0.460
2640,-0.780,-0.490
2641,-0.810,-0.490
2642,-0.805,-0.505
2643,-0.840,-0.500
2644,-0.815,-0.505
2645,-0.800,-0.485
2646,-0.785,-0.470
2647,-0.765,-0.475
2648,-0.760,-0.485
2649,-0.755,-0.505
2650,-0.755,-0.515
2651,-0.735,-0.530
2652,-0.710,-0.525
2653,-0.700,-0.495
2654,-0.685,-0.480
2655,-0.670,-0.480
2656,-0.635,-0.475
2657,-0.590,-0.480
2658,-0.590,-0.490
2659,-0.590,-0.485
2660,-0.590,-0.475
2661,-0.595,-0.460
2662,-0.600,-0.460
2663,-0.610,-0.440
2664,-0.610,-0.450
2665,-0.635,-0.450
2666,-0.665,-0.465
2667,-0.670,-0.475
2668,-0.700,-0.480
2669,-0.725,-0.480
2670,-0.760,-0.490
2671,-0.770,-0.490
2672,-0.805,-0.500
2673,-0.805,-0.510
2674,-0.835,-0.535
2675,-0.845,-0.540
2676,-0.875,-0.550
2677,-0.890,-0.555
2678,-0.875,-0.540
2679,-0.860,-0.520
2680,-0.850,-0.520
2681,-0.860,-0.520
2682,-0.870,-0.540
2683,-0.895,-0.550
2684,-0.905,-0.550
2685,-0.910,-0.550
2686,-0.900,-0.550
2687,-0.900,-0.540
2688,-0.890,-0.535
2689,-0.865,-0.535
2690,-0.870,-0.550
2691,-0.890,-0.555
2692,-0.885,-0.575
2693,-0.895,-0.570
2694,-0.890,-0.560
2695,-0.885,-0.535
2696,-0.860,-0.525
2697,-0.860,-0.535
2698,-0.840,-0.535
2699,-0.835,-0.545
2700,-0.830,-0.540
2701,-0.835,-0.555
2702,-0.820,-0.535
2703,-0.790,-0.505
2704,-0.735,-0.440
2705,-0.610,-0.360
2706,-0.360,-0.210
2707,-0.015,0.005
2708,0.330,0.175
2709,0.720,0.285
2710,1.120,0.295
2711,1.420,0.305
2712,1.420,0.290
2713,1.050,0.185
2714,0.340,-0.050
2715,-0.535,-0.455
2716,-1.315,-0.925
2717,-1.635,-1.290
2718,-1.600,-1.390
2719,-1.330,-1.210
2720,-1.090,-0.970
2721,-1.000,-0.780
2722,-0.970,-0.705
2723,-0.965,-0.690
2724,-0.935,-0.705
2725,-0.920,-0.695
2726,-0.885,-0.670
2727,-0.875,-0.640
2728,-0.880,-0.605
2729,-0.880,-0.590
2730,-0.875,-0.575
2731,-0.880,-0.585
2732,-0.865,-0.590
2733,-0.885,-0.590
2734,-0.880,-0.600
2735,-0.880,-0.595
2736,-0.885,-0.580
2737,-0.870,-0.585
2738,-0.845,-0.550
2739,-0.840,-0.570
2740,-0.855,-0.580
2741,-0.870,-0.575
2742,-0.875,-0.590
2743,-0.885,-0.605
2744,-0.875,-0.585
2745,-0.865,-0.560
2746,-0.860,-0.550
2747,-0.855,-0.550
2748,-0.850,-0.570
2749,-0.860,-0.575
2750,-0.880,-0.590
2751,-0.900,-0.585
2752,-0.890,-0.585
2753,-0.880,-0.565
2754,-0.850,-0.555
2755,-0.840,-0.545
2756,-0.850,-0.560
2757,-0.855,-0.555
2758,-0.855,-0.575
2759,-0.860,-0.575
2760,-0.870,-0.570
2761,-0.860,-0.560
2762,-0.835,-0.540
2763,-0.820,-0.525
2764,-0.800,-0.520
2765,-0.800,-0.535
2766,-0.820,-0.540
2767,-0.820,-0.545
2768,-0.815,-0.535
2769,-0.805,-0.525
2770,-0.780,-0.505
2771,-0.750,-0.490
2772,-0.745,-0.485
2773,-0.725,-0.480
2774,-0.740,-0.490
2775,-0.745,-0.495
2776,-0.730,-0.480
2777,-0.710,-0.465
2778,-0.680,-0.440
2779,-0.655,-0.420
2780,-0.640,-0.410
2781,-0.615,-0.400
2782,-0.590,-0.395
2783,-0.580,-0.395
2784,-0.575,-0.395
2785,-0.555,-0.375
2786,-0.530,-0.350
2787,-0.485,-0.340
2788,-0.450,-0.325
2789,-0.420,-0.305
2790,-0.410,-0.315
2791,-0.395,-0.305
2792,-0.395,-0.315
2793,-0.380,-0.295
2794,-0.375,-0.290
2795,-0.360,-0.290
2796,-0.345,-0.285
2797,-0.360,-0.305
2798,-0.380,-0.320
2799,-0.420,-0.345
2800,-0.435,-0.355
2801,-0.500,-0.400
2802,-0.530,-0.420
2803,-0.555,-0.435
2804,-0.575,-0.440
2805,-0.580,-0.465
2806,-0.625,-0.485
2807,-0.645,-0.510
2808,-0.690,-0.555
2809,-0.720,-0.565
2810,-0.755,-0.585
2811,-0.770,-0.585
2812,-0.760,-0.585
2813,-0.755,-0.570
2814,-0.770,-0.595
2815,-0.790,-0.615
2816,-0.810,-0.635
2817,-0.815,-0.645
2818,-0.825,-0.645
2819,-0.825,-0.640
2820,-0.830,-0.630
2821,-0.820,-0.620
2822,-0.820,-0.625
2823,-0.820,-0.645
2824,-0.825,-0.645
2825,-0.830,-0.650
2826,-0.860,-0.670
2827,-0.860,-0.660
2828,-0.840,-0.640
2829,-0.825,-0.630
2830,-0.820,-0.600
2831,-0.810,-0.620
2832,-0.830,-0.630
2833,-0.825,-0.650
2834,-0.830,-0.660
2835,-0.830,-0.645
2836,-0.825,-0.645
2837,-0.810,-0.610
2838,-0.790,-0.610
2839,-0.800,-0.605
2840,-0.795,-0.620
2841,-0.800,-0.620
2842,-0.815,-0.635
2843,-0.815,-0.625
2844,-0.825,-0.615
2845,-0.815,-0.615
2846,-0.800,-0.600
2847,-0.785,-0.595
2848,-0.780,-0.595
2849,-0.780,-0.610
2850,-0.785,-0.605
2851,-0.805,-0.630
2852,-0.800,-0.625
2853,-0.795,-0.600
2854,-0.785,-0.590
2855,-0.785,-0.580
2856,-0.795,-0.585
2857,-0.795,-0.595
2858,-0.810,-0.610
2859,-0.825,-0.620
2860,-0.830,-0.610
2861,-0.830,-0.595
2862,-0.825,-0.595
2863,-0.810,-0.585
2864,-0.810,-0.585
2865,-0.815,-0.595
2866,-0.840,-0.605
2867,-0.855,-0.620
2868,-0.870,-0.630
2869,-0.860,-0.630
2870,-0.845,-0.620
2871,-0.850,-0.600
2872,-0.850,-0.610
2873,-0.855,-0.615
2874,-0.850,-0.630
2875,-0.860,-0.635
2876,-0.880,-0.645
2877,-0.885,-0.645
2878,-0.880,-0.630
2879,-0.870,-0.615
2880,-0.850,-0.620
2881,-0.855,-0.615
2882,-0.855,-0.635
2883,-0.875,-0.640
2884,-0.885,-0.670
2885,-0.885,-0.650
2886,-0.875,-0.635
2887,-0.880,-0.630
2888,-0.865,-0.640
2889,-0.875,-0.640
2890,-0.875,-0.645
2891,-0.875,-0.655
2892,-0.880,-0.670
2893,-0.910,-0.650
2894,-0.895,-0.650
2895,-0.895,-0.645
2896,-0.870,-0.630
2897,-0.865,-0.635
2898,-0.880,-0.620
2899,-0.895,-0.645
2900,-0.910,-0.645
2901,-0.905,-0.665
2902,-0.910,-0.655
2903,-0.890,-0.645
2904,-0.890,-0.630
2905,-0.875,-0.620
2906,-0.870,-0.635
2907,-0.875,-0.660
2908,-0.900,-0.655
2909,-0.905,-0.660
2910,-0.910,-0.665
2911,-0.895,-0.650
2912,-0.885,-0.630
2913,-0.885,-0.615
2914,-0.880,-0.625
2915,-0.890,-0.635
2916,-0.905,-0.660
2917,-0.910,-0.655
2918,-0.920,-0.665
2919,-0.910,-0.660
2920,-0.905,-0.650
2921,-0.890,-0.640
2922,-0.870,-0.640
2923,-0.885,-0.645
2924,-0.875,-0.660
2925,-0.885,-0.670
2926,-0.900,-0.665
2927,-0.900,-0.670
2928,-0.900,-0.645
2929,-0.890,-0.640
2930,-0.865,-0.635
2931,-0.875,-0.630
2932,-0.880,-0.645
2933,-0.895,-0.655
2934,-0.925,-0.660
2935,-0.920,-0.665
2936,-0.920,-0.660
2937,-0.910,-0.645
2938,-0.905,-0.640
2939,-0.895,-0.640
2940,-0.885,-0.650
2941,-0.885,-0.660
2942,-0.890,-0.675
2943,-0.900,-0.680
2944,-0.895,-0.660
2945,-0.885,-0.640
2946,-0.875,-0.630
2947,-0.875,-0.635
2948,-0.880,-0.625
2949,-0.880,-0.655
2950,-0.885,-0.660
2951,-0.895,-0.655
2952,-0.895,-0.655
2953,-0.890,-0.640
2954,-0.870,-0.635
2955,-0.865,-0.630
2956,-0.860,-0.645
2957,-0.855,-0.650
2958,-0.880,-0.655
2959,-0.885,-0.665
2960,-0.895,-0.665
2961,-0.900,-0.645
2962,-0.880,-0.650
2963,-0.860,-0.620
2964,-0.840,-0.635
2965,-0.855,-0.635
2966,-0.870,-0.640
2967,-0.880,-0.655
2968,-0.890,-0.655
2969,-0.885,-0.650
2970,-0.870,-0.630
2971,-0.870,-0.620
2972,-0.855,-0.615
2973,-0.840,-0.615
2974,-0.845,-0.635
2975,-0.850,-0.645
2976,-0.875,-0.650
2977,-0.885,-0.640
2978,-0.865,-0.635
2979,-0.855,-0.615
2980,-0.845,-0.595
2981,-0.845,-0.610
2982,-0.840,-0.610
2983,-0.860,-0.640
2984,-0.865,-0.650
2985,-0.875,-0.645
2986,-0.875,-0.625
2987,-0.865,-0.610
2988,-0.845,-0.605
2989,-0.845,-0.610
2990,-0.850,-0.610
2991,-0.850,-0.625
2992,-0.855,-0.635
2993,-0.860,-0.640
2994,-0.875,-0.630
2995,-0.860,-0.625
2996,-0.835,-0.615
2997,-0.815,-0.605
2998,-0.785,-0.595
2999,-0.775,-0.610
3000,-0.765,-0.610
3001,-0.755,-0.620
3002,-0.740,-0.610
3003,-0.740,-0.595
3004,-0.730,-0.580
3005,-0.710,-0.565
3006,-0.670,-0.565
3007,-0.630,-0.565
3008,-0.630,-0.570
3009,-0.625,-0.575
3010,-0.650,-0.565
3011,-0.665,-0.555
3012,-0.660,-0.545
3013,-0.645,-0.520
3014,-0.660,-0.525
3015,-0.665,-0.510
3016,-0.680,-0.510
3017,-0.720,-0.530
3018,-0.730,-0.540
3019,-0.745,-0.535
3020,-0.780,-0.540
3021,-0.810,-0.560
3022,-0.815,-0.550
3023,-0.840,-0.560
3024,-0.855,-0.575
3025,-0.865,-0.580
3026,-0.905,-0.590
3027,-0.905,-0.595
3028,-0.900,-0.580
3029,-0.880,-0.565
3030,-0.875,-0.550
3031,-0.880,-0.565
3032,-0.895,-0.575
3033,-0.895,-0.575
3034,-0.920,-0.580
3035,-0.915,-0.580
3036,-0.900,-0.570
3037,-0.875,-0.550
3038,-0.870,-0.530
3039,-0.865,-0.530
3040,-0.855,-0.530
3041,-0.870,-0.555
3042,-0.870,-0.560
3043,-0.880,-0.565
3044,-0.875,-0.560
3045,-0.860,-0.550
3046,-0.840,-0.520
3047,-0.825,-0.525
3048,-0.800,-0.535
3049,-0.810,-0.540
3050,-0.815,-0.535
3051,-0.810,-0.525
3052,-0.780,-0.495
3053,-0.725,-0.435
3054,-0.555,-0.330
3055,-0.250,-0.115
3056,0.125,0.110
3057,0.530,0.295
3058,0.925,0.365
3059,1.280,0.375
3060,1.340,0.385
3061,1.035,0.305
3062,0.355,0.065
3063,-0.505,-0.320
3064,-1.225,-0.830
3065,-1.535,-1.175
3066,-1.490,-1.255
3067,-1.225,-1.050
3068,-1.000,-0.825
3069,-0.925,-0.665
3070,-0.910,-0.605
3071,-0.925,-0.585
3072,-0.890,-0.580
3073,-0.845,-0.555
3074,-0.820,-0.545
3075,-0.810,-0.535
3076,-0.835,-0.540
3077,-0.850,-0.525
3078,-0.850,-0.505
3079,-0.830,-0.485
3080,-0.795,-0.465
3081,-0.790,-0.460
3082,-0.800,-0.455
3083,-0.805,-0.480
3084,-0.820,-0.485
3085,-0.835,-0.485
3086,-0.825,-0.480
3087,-0.805,-0.470
3088,-0.800,-0.440
3089,-0.810,-0.435
3090,-0.800,-0.435
3091,-0.810,-0.460
3092,-0.820,-0.455
3093,-0.830,-0.460
3094,-0.845,-0.450
3095,-0.825,-0.430
3096,-0.800,-0.430
3097,-0.785,-0.425
3098,-0.795,-0.430
3099,-0.810,-0.435
3100,-0.820,-0.440
3101,-0.830,-0.440
3102,-0.830,-0.430
3103,-0.815,-0.415
3104,-0.810,-0.405
3105,-0.800,-0.385
3106,-0.790,-0.395
3107,-0.775,-0.390
3108,-0.785,-0.385
3109,-0.790,-0.385
3110,-0.790,-0.395
3111,-0.785,-0.385
3112,-0.790,-0.360
3113,-0.755,-0.340
3114,-0.730,-0.330
3115,-0.715,-0.340
3116,-0.725,-0.340
3117,-0.730,-0.340
3118,-0.715,-0.345
3119,-0.705,-0.325
3120,-0.665,-0.300
3121,-0.640,-0.270
3122,-0.605,-0.255
3123,-0.585,-0.235
3124,-0.575,-0.235
3125,-0.570,-0.240
3126,-0.555,-0.255
3127,-0.545,-0.225
3128,-0.530,-0.210
3129,-0.495,-0.180
3130,-0.465,-0.155
3131,-0.450,-0.165
3132,-0.430,-0.175
3133,-0.425,-0.165
3134,-0.410,-0.160
3135,-0.405,-0.160
3136,-0.390,-0.130
3137,-0.355,-0.115
3138,-0.330,-0.105
3139,-0.325,-0.130
3140,-0.315,-0.125
3141,-0.330,-0.130
3142,-0.360,-0.160
3143,-0.375,-0.160
3144,-0.400,-0.175
3145,-0.420,-0.170
3146,-0.440,-0.170
3147,-0.455,-0.190
3148,-0.475,-0.205
3149,-0.515,-0.240
3150,-0.530,-0.255
3151,-0.600,-0.315
3152,-0.625,-0.340
3153,-0.650,-0.350
3154,-0.675,-0.355
3155,-0.685,-0.340
3156,-0.700,-0.340
3157,-0.730,-0.375
3158,-0.750,-0.400
3159,-0.770,-0.410
3160,-0.775,-0.405
3161,-0.775,-0.415
3162,-0.780,-0.405
3163,-0.765,-0.390
3164,-0.770,-0.385
3165,-0.770,-0.405
3166,-0.785,-0.395
3167,-0.790,-0.415
3168,-0.790,-0.420
3169,-0.805,-0.415
3170,-0.780,-0.410
3171,-0.770,-0.410
3172,-0.765,-0.400
3173,-0.775,-0.420
3174,-0.785,-0.420
3175,-0.790,-0.425
3176,-0.795,-0.445
3177,-0.800,-0.425
3178,-0.795,-0.400
3179,-0.790,-0.390
3180,-0.780,-0.375
3181,-0.760,-0.375
3182,-0.760,-0.395
3183,-0.770,-0.410
3184,-0.780,-0.415
3185,-0.785,-0.410
3186,-0.795,-0.395
3187,-0.790,-0.395
3188,-0.765,-0.395
3189,-0.760,-0.390
3190,-0.765,-0.390
3191,-0.770,-0.400
3192,-0.780,-0.395
3193,-0.790,-0.405
3194,-0.790,-0.405
3195,-0.780,-0.390
3196,-0.770,-0.385
3197,-0.775,-0.380
3198,-0.775,-0.400
3199,-0.780,-0.410
3200,-0.790,-0.415
3201,-0.820,-0.420
3202,-0.815,-0.405
3203,-0.810,-0.410
3204,-0.790,-0.390
3205,-0.795,-0.395
3206,-0.790,-0.415
3207,-0.800,-0.425
3208,-0.815,-0.440
3209,-0.825,-0.450
3210,-0.825,-0.440
3211,-0.825,-0.435
3212,-0.825,-0.415
3213,-0.815,-0.415
3214,-0.815,-0.420
3215,-0.805,-0.430
3216,-0.825,-0.440
3217,-0.840,-0.440
3218,-0.875,-0.445
3219,-0.880,-0.460
3220,-0.860,-0.450
3221,-0.845,-0.440
3222,-0.840,-0.455
3223,-0.855,-0.440
3224,-0.855,-0.460
3225,-0.850,-0.465
3226,-0.865,-0.480
3227,-0.865,-0.470
3228,-0.855,-0.460
3229,-0.850,-0.445
3230,-0.850,-0.445
3231,-0.830,-0.460
3232,-0.850,-0.455
3233,-0.860,-0.470
3234,-0.875,-0.470
3235,-0.875,-0.460
3236,-0.885,-0.445
3237,-0.875,-0.455
3238,-0.875,-0.450
3239,-0.875,-0.455
3240,-0.870,-0.465
3241,-0.890,-0.485
3242,-0.885,-0.490
3243,-0.890,-0.485
3244,-0.895,-0.485
3245,-0.885,-0.475
3246,-0.855,-0.470
3247,-0.845,-0.450
3248,-0.850,-0.450
3249,-0.860,-0.465
3250,-0.870,-0.470
3251,-0.875,-0.490
3252,-0.885,-0.480
3253,-0.885,-0.480
3254,-0.885,-0.465
3255,-0.865,-0.450
3256,-0.870,-0.455
3257,-0.865,-0.470
3258,-0.870,-0.470
3259,-0.875,-0.475
3260,-0.895,-0.495
3261,-0.880,-0.485
3262,-0.880,-0.490
3263,-0.875,-0.465
3264,-0.860,-0.465
3265,-0.855,-0.470
3266,-0.885,-0.475
3267,-0.875,-0.490
3268,-0.880,-0.480
3269,-0.895,-0.475
3270,-0.885,-0.475
3271,-0.880,-0.440
3272,-0.855,-0.440
3273,-0.860,-0.445
3274,-0.860,-0.470
3275,-0.870,-0.475
3276,-0.890,-0.485
3277,-0.905,-0.490
3278,-0.900,-0.475
3279,-0.870,-0.455
3280,-0.840,-0.445
3281,-0.850,-0.460
3282,-0.870,-0.470
3283,-0.890,-0.480
3284,-0.890,-0.485
3285,-0.890,-0.485
3286,-0.885,-0.470
3287,-0.870,-0.460
3288,-0.860,-0.445
3289,-0.855,-0.445
3290,-0.850,-0.465
3291,-0.880,-0.465
3292,-0.885,-0.480
3293,-0.885,-0.475
3294,-0.895,-0.475
3295,-0.875,-0.465
3296,-0.865,-0.455
3297,-0.860,-0.470
3298,-0.860,-0.470
3299,-0.860,-0.475
3300,-0.865,-0.475
3301,-0.880,-0.480
3302,-0.875,-0.475
3303,-0.875,-0.470
3304,-0.860,-0.455
3305,-0.865,-0.450
3306,-0.850,-0.455
3307,-0.860,-0.470
3308,-0.870,-0.475
3309,-0.865,-0.465
3310,-0.880,-0.470
3311,-0.870,-0.465
3312,-0.855,-0.445
3313,-0.840,-0.445
3314,-0.835,-0.470
3315,-0.855,-0.450
3316,-0.855,-0.465
3317,-0.870,-0.485
3318,-0.875,-0.480
3319,-0.870,-0.470
3320,-0.865,-0.445
3321,-0.845,-0.440
3322,-0.820,-0.450
3323,-0.805,-0.445
3324,-0.800,-0.460
3325,-0.805,-0.455
3326,-0.790,-0.465
3327,-0.785,-0.470
3328,-0.770,-0.460
3329,-0.770,-0.450
3330,-0.755,-0.445
3331,-0.730,-0.420
3332,-0.680,-0.415
3333,-0.645,-0.430
3334,-0.620,-0.435
3335,-0.640,-0.435
3336,-0.655,-0.425
3337,-0.640,-0.415
3338,-0.655,-0.400
3339,-0.670,-0.395
3340,-0.670,-0.375
3341,-0.665,-0.380
3342,-0.690,-0.395
3343,-0.715,-0.420
3344,-0.760,-0.405
3345,-0.805,-0.415
3346,-0.830,-0.410
3347,-0.840,-0.430
3348,-0.845,-0.435
3349,-0.850,-0.455
3350,-0.865,-0.465
3351,-0.915,-0.480
3352,-0.920,-0.470
3353,-0.910,-0.475
3354,-0.905,-0.465
3355,-0.880,-0.450
3356,-0.895,-0.455
3357,-0.915,-0.470
3358,-0.925,-0.480
3359,-0.925,-0.480
3360,-0.925,-0.470
3361,-0.935,-0.470
3362,-0.915,-0.455
3363,-0.910,-0.440
3364,-0.890,-0.445
3365,-0.885,-0.455
3366,-0.905,-0.465
3367,-0.910,-0.470
3368,-0.920,-0.480
3369,-0.935,-0.475
3370,-0.920,-0.470
3371,-0.905,-0.450
3372,-0.890,-0.445
3373,-0.895,-0.460
3374,-0.890,-0.460
3375,-0.885,-0.465
3376,-0.880,-0.455
3377,-0.870,-0.455
3378,-0.880,-0.445
3379,-0.865,-0.430
3380,-0.830,-0.390
3381,-0.790,-0.350
3382,-0.665,-0.255
3383,-0.420,-0.110
3384,-0.085,0.110
3385,0.285,0.345
3386,0.695,0.480
3387,1.095,0.535
3388,1.360,0.520
3389,1.295,0.430
3390,0.830,0.230
3391,0.095,-0.060
3392,-0.740,-0.480
3393,-1.430,-0.940
3394,-1.715,-1.250
3395,-1.675,-1.300
3396,-1.445,-1.125
3397,-1.230,-0.885
3398,-1.110,-0.705
3399,-1.075,-0.600
3400,-1.060,-0.585
3401,-0.975,-0.540
3402,-0.920,-0.545
3403,-0.900,-0.500
3404,-0.880,-0.485
3405,-0.890,-0.465
3406,-0.885,-0.445
3407,-0.895,-0.450
3408,-0.900,-0.455
3409,-0.905,-0.465
3410,-0.895,-0.460
3411,-0.900,-0.445
3412,-0.885,-0.440
3413,-0.875,-0.430
3414,-0.875,-0.405
3415,-0.870,-0.420
3416,-0.885,-0.415
3417,-0.900,-0.435
3418,-0.910,-0.440
3419,-0.910,-0.415
3420,-0.895,-0.425
3421,-0.885,-0.405
3422,-0.880,-0.415
3423,-0.880,-0.420
3424,-0.885,-0.425
3425,-0.890,-0.435
3426,-0.910,-0.455
3427,-0.920,-0.440
3428,-0.910,-0.435
3429,-0.915,-0.415
3430,-0.895,-0.400
3431,-0.900,-0.415
3432,-0.880,-0.420
3433,-0.880,-0.425
3434,-0.905,-0.435
3435,-0.905,-0.430
3436,-0.900,-0.430
3437,-0.890,-0.410
3438,-0.865,-0.390
3439,-0.845,-0.395
3440,-0.845,-0.380
3441,-0.845,-0.395
3442,-0.855,-0.415
3443,-0.865,-0.410
3444,-0.865,-0.405
3445,-0.845,-0.385
3446,-0.825,-0.365
3447,-0.800,-0.345
3448,-0.790,-0.355
3449,-0.785,-0.360
3450,-0.785,-0.370
3451,-0.790,-0.365
3452,-0.775,-0.350
3453,-0.775,-0.325
3454,-0.760,-0.300
3455,-0.725,-0.290
3456,-0.690,-0.270
3457,-0.675,-0.285
3458,-0.670,-0.275
3459,-0.665,-0.280
3460,-0.630,-0.285
3461,-0.620,-0.260
3462,-0.590,-0.250
3463,-0.570,-0.235
3464,-0.550,-0.215
3465,-0.550,-0.215
3466,-0.535,-0.245
3467,-0.545,-0.235
3468,-0.535,-0.230
3469,-0.515,-0.230
3470,-0.505,-0.210
3471,-0.475,-0.205
3472,-0.485,-0.205
3473,-0.505,-0.215
3474,-0.505,-0.235
3475,-0.525,-0.245
3476,-0.560,-0.275
3477,-0.595,-0.300
3478,-0.605,-0.310
3479,-0.620,-0.305
3480,-0.630,-0.315
3481,-0.655,-0.335
3482,-0.680,-0.360
3483,-0.700,-0.395
3484,-0.750,-0.410
3485,-0.765,-0.430
3486,-0.780,-0.435
3487,-0.785,-0.425
3488,-0.775,-0.425
3489,-0.785,-0.435
3490,-0.805,-0.435
3491,-0.810,-0.455
3492,-0.830,-0.465
3493,-0.850,-0.475
3494,-0.840,-0.490
3495,-0.845,-0.480
3496,-0.820,-0.465
3497,-0.820,-0.465
3498,-0.840,-0.470
3499,-0.825,-0.495
3500,-0.830,-0.510
3501,-0.845,-0.525
3502,-0.850,-0.515
3503,-0.845,-0.500
3504,-0.830,-0.485
3505,-0.810,-0.475
3506,-0.815,-0.475
3507,-0.815,-0.490
3508,-0.810,-0.490
3509,-0.820,-0.500
3510,-0.820,-0.495
3511,-0.820,-0.490
3512,-0.805,-0.480
3513,-0.795,-0.475
3514,-0.785,-0.455
3515,-0.780,-0.465
3516,-0.775,-0.455
3517,-0.795,-0.510
3518,-0.805,-0.505
3519,-0.795,-0.490
3520,-0.785,-0.475
3521,-0.760,-0.450
3522,-0.750,-0.445
3523,-0.760,-0.455
3524,-0.755,-0.445
3525,-0.760,-0.455
3526,-0.775,-0.475
3527,-0.790,-0.470
3528,-0.800,-0.470
3529,-0.795,-0.460
3530,-0.780,-0.440
3531,-0.765,-0.450
3532,-0.760,-0.450
3533,-0.785,-0.475
3534,-0.800,-0.490
3535,-0.820,-0.500
3536,-0.835,-0.495
3537,-0.815,-0.495
3538,-0.795,-0.470
3539,-0.790,-0.475
3540,-0.795,-0.470
3541,-0.820,-0.490
3542,-0.825,-0.495
3543,-0.835,-0.495
3544,-0.830,-0.500
3545,-0.820,-0.480
3546,-0.810,-0.460
3547,-0.805,-0.470
3548,-0.805,-0.485
3549,-0.805,-0.495
3550,-0.810,-0.490
3551,-0.855,-0.520
3552,-0.875,-0.530
3553,-0.850,-0.530
3554,-0.835,-0.505
3555,-0.830,-0.490
3556,-0.810,-0.510
3557,-0.825,-0.515
3558,-0.845,-0.530
3559,-0.860,-0.545
3560,-0.865,-0.545
3561,-0.860,-0.550
3562,-0.860,-0.530
3563,-0.845,-0.525
3564,-0.830,-0.515
3565,-0.840,-0.520
3566,-0.850,-0.540
3567,-0.870,-0.555
3568,-0.885,-0.555
3569,-0.875,-0.560
3570,-0.880,-0.555
3571,-0.855,-0.550
3572,-0.860,-0.530
3573,-0.860,-0.530
3574,-0.860,-0.550
3575,-0.865,-0.550
3576,-0.885,-0.570
3577,-0.895,-0.575
3578,-0.890,-0.550
3579,-0.885,-0.545
3580,-0.875,-0.520
3581,-0.870,-0.530
3582,-0.870,-0.560
3583,-0.880,-0.555
3584,-0.885,-0.570
3585,-0.895,-0.570
3586,-0.915,-0.555
3587,-0.900,-0.560
3588,-0.870,-0.540
3589,-0.880,-0.545
3590,-0.870,-0.565
3591,-0.890,-0.565
3592,-0.900,-0.575
3593,-0.900,-0.585
3594,-0.905,-0.575
3595,-0.895,-0.570
3596,-0.890,-0.560
3597,-0.870,-0.550
3598,-0.865,-0.560
3599,-0.875,-0.550
3600,-0.890,-0.555
3601,-0.905,-0.585
3602,-0.905,-0.585
3603,-0.895,-0.570
3604,-0.910,-0.575
3605,-0.890,-0.550
3606,-0.880,-0.565
3607,-0.880,-0.575
3608,-0.905,-0.575
3609,-0.900,-0.580
3610,-0.915,-0.590
3611,-0.910,-0.575
3612,-0.900,-0.575
3613,-0.885,-0.560
3614,-0.880,-0.555
3615,-0.875,-0.560
3616,-0.880,-0.575
3617,-0.900,-0.590
3618,-0.915,-0.590
3619,-0.915,-0.580
3620,-0.915,-0.580
3621,-0.895,-0.570
3622,-0.875,-0.560
3623,-0.870,-0.575
3624,-0.890,-0.570
3625,-0.890,-0.580
3626,-0.910,-0.605
3627,-0.915,-0.615
3628,-0.910,-0.585
3629,-0.885,-0.580
3630,-0.890,-0.560
3631,-0.885,-0.575
3632,-0.885,-0.575
3633,-0.875,-0.590
3634,-0.895,-0.600
3635,-0.900,-0.595
3636,-0.905,-0.600
3637,-0.885,-0.595
3638,-0.880,-0.575
3639,-0.870,-0.570
3640,-0.870,-0.585
3641,-0.895,-0.595
3642,-0.905,-0.595
3643,-0.900,-0.600
3644,-0.895,-0.595
3645,-0.895,-0.585
3646,-0.870,-0.580
3647,-0.865,-0.565
3648,-0.865,-0.560
3649,-0.870,-0.570
3650,-0.870,-0.580
3651,-0.895,-0.590
3652,-0.895,-0.600
3653,-0.890,-0.590
3654,-0.865,-0.580
3655,-0.850,-0.565
3656,-0.825,-0.560
3657,-0.790,-0.565
3658,-0.790,-0.585
3659,-0.785,-0.595
3660,-0.785,-0.595
3661,-0.790,-0.600
3662,-0.780,-0.585
3663,-0.745,-0.555
3664,-0.695,-0.545
3665,-0.655,-0.540
3666,-0.635,-0.545
3667,-0.660,-0.545
3668,-0.680,-0.540
3669,-0.700,-0.555
3670,-0.705,-0.550
3671,-0.720,-0.540
3672,-0.715,-0.515
3673,-0.715,-0.505
3674,-0.740,-0.510
3675,-0.755,-0.505
3676,-0.810,-0.550
3677,-0.855,-0.565
3678,-0.875,-0.575
3679,-0.895,-0.580
3680,-0.900,-0.580
3681,-0.900,-0.570
3682,-0.915,-0.590
3683,-0.925,-0.605
3684,-0.945,-0.605
3685,-0.965,-0.630
3686,-0.960,-0.625
3687,-0.960,-0.615
3688,-0.935,-0.590
3689,-0.920,-0.585
3690,-0.935,-0.585
3691,-0.940,-0.615
3692,-0.945,-0.605
3693,-0.960,-0.630
3694,-0.955,-0.615
3695,-0.950,-0.610
3696,-0.935,-0.595
3697,-0.915,-0.575
3698,-0.920,-0.590
3699,-0.915,-0.585
3700,-0.910,-0.590
3701,-0.930,-0.625
3702,-0.935,-0.625
3703,-0.935,-0.610
3704,-0.915,-0.585
3705,-0.895,-0.580
3706,-0.875,-0.555
3707,-0.865,-0.570
3708,-0.860,-0.560
3709,-0.845,-0.550
3710,-0.780,-0.460
3711,-0.565,-0.310
3712,-0.195,-0.065
3713,0.245,0.165
3714,0.725,0.305
3715,1.175,0.335
3716,1.465,0.325
3717,1.355,0.270
3718,0.845,0.135
3719,0.025,-0.190
3720,-0.880,-0.635
3721,-1.485,-1.085
3722,-1.620,-1.305
3723,-1.420,-1.245
3724,-1.160,-1.005
3725,-1.095,-0.920
3726,-0.985,-0.725
3727,-1.005,-0.685
3728,-1.015,-0.685
3729,-0.980,-0.670
3730,-0.920,-0.640
3731,-0.895,-0.605
3732,-0.895,-0.590
3733,-0.925,-0.605
3734,-0.955,-0.635
3735,-0.970,-0.605
3736,-0.960,-0.605
3737,-0.935,-0.575
3738,-0.915,-0.580
3739,-0.905,-0.570
3740,-0.900,-0.565
3741,-0.925,-0.575
3742,-0.925,-0.580
3743,-0.935,-0.590
3744,-0.940,-0.595
3745,-0.945,-0.585
3746,-0.925,-0.555
3747,-0.920,-0.550
3748,-0.905,-0.550
3749,-0.915,-0.565
3750,-0.925,-0.570
3751,-0.940,-0.580
3752,-0.940,-0.575
3753,-0.930,-0.575
3754,-0.920,-0.570
3755,-0.910,-0.545
3756,-0.900,-0.550
3757,-0.905,-0.545
3758,-0.915,-0.555
3759,-0.925,-0.560
3760,-0.925,-0.560
3761,-0.935,-0.555
3762,-0.920,-0.540
3763,-0.895,-0.520
3764,-0.880,-0.520
3765,-0.875,-0.530
3766,-0.880,-0.540
3767,-0.880,-0.550
3768,-0.895,-0.555
3769,-0.890,-0.550
3770,-0.890,-0.530
3771,-0.855,-0.510
3772,-0.830,-0.480
3773,-0.820,-0.485
3774,-0.800,-0.480
3775,-0.805,-0.485
3776,-0.810,-0.480
3777,-0.815,-0.475
3778,-0.785,-0.460
3779,-0.765,-0.445
3780,-0.740,-0.425
3781,-0.705,-0.400
3782,-0.680,-0.400
3783,-0.690,-0.395
3784,-0.675,-0.400
3785,-0.665,-0.410
3786,-0.650,-0.380
3787,-0.615,-0.355
3788,-0.570,-0.335
3789,-0.555,-0.325
3790,-0.520,-0.315
3791,-0.505,-0.320
3792,-0.510,-0.315
3793,-0.505,-0.310
3794,-0.480,-0.305
3795,-0.455,-0.290
3796,-0.440,-0.275
3797,-0.420,-0.260
3798,-0.425,-0.255
3799,-0.430,-0.275
3800,-0.435,-0.280
3801,-0.470,-0.320
3802,-0.485,-0.335
3803,-0.515,-0.335
3804,-0.525,-0.365
3805,-0.545,-0.365
3806,-0.565,-0.385
3807,-0.600,-0.420
3808,-0.640,-0.450
3809,-0.700,-0.470
3810,-0.720,-0.515
3811,-0.755,-0.530
3812,-0.775,-0.535
3813,-0.775,-0.530
3814,-0.785,-0.540
3815,-0.795,-0.555
3816,-0.815,-0.575
3817,-0.840,-0.590
3818,-0.850,-0.600
3819,-0.865,-0.595
3820,-0.875,-0.600
3821,-0.855,-0.580
3822,-0.835,-0.585
3823,-0.830,-0.605
3824,-0.830,-0.605
3825,-0.825,-0.600
3826,-0.860,-0.615
3827,-0.870,-0.610
3828,-0.865,-0.595
3829,-0.850,-0.605
3830,-0.835,-0.580
3831,-0.835,-0.580
3832,-0.835,-0.590
3833,-0.845,-0.595
3834,-0.845,-0.600
3835,-0.865,-0.600
3836,-0.855,-0.610
3837,-0.855,-0.595
3838,-0.840,-0.595
3839,-0.825,-0.595
3840,-0.820,-0.585
3841,-0.840,-0.580
3842,-0.845,-0.600
3843,-0.860,-0.605
3844,-0.855,-0.590
3845,-0.845,-0.575
3846,-0.850,-0.560
3847,-0.825,-0.545
3848,-0.820,-0.550
3849,-0.830,-0.555
3850,-0.820,-0.565
3851,-0.840,-0.565
3852,-0.860,-0.570
3853,-0.865,-0.575
3854,-0.850,-0.565
3855,-0.835,-0.555
3856,-0.830,-0.560
3857,-0.840,-0.565
3858,-0.845,-0.575
3859,-0.855,-0.585
3860,-0.885,-0.590
3861,-0.890,-0.580
3862,-0.875,-0.570
3863,-0.870,-0.570
3864,-0.885,-0.565
3865,-0.855,-0.570
3866,-0.865,-0.575
3867,-0.875,-0.590
3868,-0.885,-0.620
3869,-0.905,-0.600
3870,-0.910,-0.590
3871,-0.905,-0.580
3872,-0.885,-0.585
3873,-0.860,-0.575
3874,-0.875,-0.585
3875,-0.885,-0.585
3876,-0.905,-0.620
3877,-0.915,-0.615
3878,-0.910,-0.620
3879,-0.905,-0.600
3880,-0.890,-0.595
3881,-0.880,-0.585
3882,-0.885,-0.590
3883,-0.885,-0.600
3884,-0.895,-0.635
3885,-0.910,-0.620
3886,-0.920,-0.625
3887,-0.915,-0.620
3888,-0.905,-0.605
3889,-0.890,-0.595
3890,-0.900,-0.610
3891,-0.900,-0.630
3892,-0.915,-0.630
3893,-0.920,-0.640
3894,-0.930,-0.625
3895,-0.925,-0.615
3896,-0.905,-0.605
3897,-0.890,-0.590
3898,-0.900,-0.595
3899,-0.905,-0.605
3900,-0.910,-0.600
3901,-0.925,-0.620
3902,-0.940,-0.630
3903,-0.940,-0.620
3904,-0.930,-0.610
3905,-0.900,-0.605
3906,-0.900,-0.605
3907,-0.905,-0.620
3908,-0.920,-0.620
3909,-0.925,-0.625
3910,-0.940,-0.630
3911,-0.940,-0.625
3912,-0.925,-0.610
3913,-0.920,-0.600
3914,-0.895,-0.585
3915,-0.915,-0.595
3916,-0.930,-0.605
3917,-0.940,-0.615
3918,-0.955,-0.615
3919,-0.955,-0.635
3920,-0.940,-0.615
3921,-0.925,-0.610
3922,-0.905,-0.595
3923,-0.915,-0.610
3924,-0.910,-0.600
3925,-0.915,-0.610
3926,-0.935,-0.630
3927,-0.940,-0.630
3928,-0.930,-0.625
3929,-0.920,-0.610
3930,-0.915,-0.600
3931,-0.905,-0.595
3932,-0.905,-0.595
3933,-0.905,-0.610
3934,-0.930,-0.635
3935,-0.935,-0.635
3936,-0.935,-0.630
3937,-0.955,-0.615
3938,-0.930,-0.600
3939,-0.910,-0.600
3940,-0.900,-0.605
3941,-0.915,-0.605
3942,-0.920,-0.635
3943,-0.930,-0.630
3944,-0.940,-0.630
3945,-0.930,-0.615
3946,-0.930,-0.620
3947,-0.915,-0.600
3948,-0.915,-0.605
3949,-0.915,-0.610
3950,-0.920,-0.615
3951,-0.935,-0.625
3952,-0.950,-0.625
3953,-0.935,-0.620
3954,-0.945,-0.610
3955,-0.925,-0.595
3956,-0.915,-0.585
3957,-0.895,-0.600
3958,-0.905,-0.615
3959,-0.920,-0.630
3960,-0.945,-0.625
3961,-0.935,-0.625
3962,-0.925,-0.605
3963,-0.925,-0.600
3964,-0.915,-0.595
3965,-0.895,-0.585
3966,-0.910,-0.595
3967,-0.910,-0.610
3968,-0.910,-0.620
3969,-0.925,-0.605
3970,-0.930,-0.605
3971,-0.930,-0.595
3972,-0.915,-0.585
3973,-0.895,-0.595
3974,-0.900,-0.575
3975,-0.895,-0.585
3976,-0.920,-0.615
3977,-0.935,-0.620
3978,-0.925,-0.620
3979,-0.910,-0.600
3980,-0.900,-0.590
3981,-0.900,-0.575
3982,-0.900,-0.575
3983,-0.925,-0.580
3984,-0.925,-0.600
3985,-0.930,-0.600
3986,-0.920,-0.590
3987,-0.920,-0.585
3988,-0.920,-0.580
3989,-0.900,-0.565
3990,-0.885,-0.570
3991,-0.880,-0.570
3992,-0.895,-0.590
3993,-0.910,-0.590
3994,-0.910,-0.585
3995,-0.900,-0.590
3996,-0.895,-0.570
3997,-0.885,-0.565
3998,-0.885,-0.565
3999,-0.865,-0.565
4000,-0.870,-0.575
4001,-0.860,-0.580
4002,-0.850,-0.580
4003,-0.815,-0.575
4004,-0.780,-0.565
4005,-0.770,-0.550
4006,-0.755,-0.540
4007,-0.755,-0.550
4008,-0.750,-0.545
4009,-0.725,-0.540
4010,-0.700,-0.550
4011,-0.695,-0.530
4012,-0.685,-0.500
4013,-0.695,-0.510
4014,-0.700,-0.495
4015,-0.725,-0.495
4016,-0.730,-0.505
4017,-0.730,-0.515
4018,-0.755,-0.505
4019,-0.765,-0.515
4020,-0.785,-0.510
4021,-0.815,-0.505
4022,-0.835,-0.520
4023,-0.855,-0.520
4024,-0.885,-0.555
4025,-0.900,-0.570
4026,-0.930,-0.580
4027,-0.965,-0.585
4028,-0.965,-0.570
4029,-0.950,-0.575
4030,-0.930,-0.570
4031,-0.925,-0.555
4032,-0.930,-0.570
4033,-0.935,-0.570
4034,-0.955,-0.585
4035,-0.970,-0.585
4036,-0.960,-0.580
4037,-0.950,-0.560
4038,-0.935,-0.550
4039,-0.940,-0.555
4040,-0.925,-0.550
4041,-0.915,-0.560
4042,-0.925,-0.575
4043,-0.935,-0.575
4044,-0.950,-0.575
4045,-0.945,-0.575
4046,-0.930,-0.560
4047,-0.915,-0.535
4048,-0.915,-0.535
4049,-0.900,-0.540
4050,-0.895,-0.550
4051,-0.900,-0.560
4052,-0.895,-0.560
4053,-0.895,-0.545
4054,-0.850,-0.510
4055,-0.815,-0.460
4056,-0.705,-0.380
4057,-0.485,-0.225
4058,-0.135,0.005
4059,0.225,0.210
4060,0.630,0.315
4061,1.045,0.380
4062,1.310,0.410
4063,1.255,0.370
4064,0.805,0.230
4065,0.025,-0.070
4066,-0.840,-0.530
4067,-1.425,-1.015
4068,-1.610,-1.290
4069,-1.445,-1.235
4070,-1.190,-0.995
4071,-1.025,-0.780
4072,-0.990,-0.650
4073,-0.980,-0.625
4074,-0.985,-0.630
4075,-0.970,-0.625
4076,-0.940,-0.605
4077,-0.940,-0.595
4078,-0.935,-0.580
4079,-0.935,-0.565
4080,-0.935,-0.540
4081,-0.915,-0.530
4082,-0.900,-0.535
4083,-0.910,-0.545
4084,-0.925,-0.545
4085,-0.935,-0.575
4086,-0.940,-0.560
4087,-0.945,-0.545
4088,-0.930,-0.525
4089,-0.915,-0.530
4090,-0.900,-0.515
4091,-0.925,-0.520
4092,-0.940,-0.530
4093,-0.935,-0.540
4094,-0.940,-0.530
4095,-0.935,-0.515
4096,-0.930,-0.505
4097,-0.905,-0.490
4098,-0.905,-0.485
4099,-0.900,-0.505
4100,-0.895,-0.515
4101,-0.905,-0.515
4102,-0.920,-0.520
4103,-0.915,-0.515
4104,-0.905,-0.505
4105,-0.895,-0.480
4106,-0.880,-0.485
4107,-0.875,-0.490
4108,-0.880,-0.485
4109,-0.885,-0.495
4110,-0.910,-0.485
4111,-0.905,-0.475
4112,-0.905,-0.450
4113,-0.870,-0.465
4114,-0.845,-0.445
4115,-0.830,-0.440
4116,-0.835,-0.450
4117,-0.840,-0.445
4118,-0.845,-0.470
4119,-0.830,-0.450
4120,-0.805,-0.420
4121,-0.790,-0.405
4122,-0.765,-0.385
4123,-0.740,-0.390
4124,-0.725,-0.370
4125,-0.710,-0.365
4126,-0.720,-0.375
4127,-0.725,-0.360
4128,-0.710,-0.350
4129,-0.670,-0.325
4130,-0.645,-0.315
4131,-0.610,-0.285
4132,-0.585,-0.285
4133,-0.575,-0.290
4134,-0.565,-0.290
4135,-0.565,-0.295
4136,-0.545,-0.280
4137,-0.525,-0.250
4138,-0.485,-0.255
4139,-0.465,-0.245
4140,-0.450,-0.235
4141,-0.450,-0.250
4142,-0.450,-0.255
4143,-0.445,-0.245
4144,-0.465,-0.255
4145,-0.480,-0.255
4146,-0.485,-0.260
4147,-0.495,-0.260
4148,-0.515,-0.285
4149,-0.550,-0.300
4150,-0.560,-0.315
4151,-0.635,-0.370
4152,-0.665,-0.390
4153,-0.695,-0.410
4154,-0.715,-0.425
4155,-0.745,-0.435
4156,-0.755,-0.435
4157,-0.775,-0.455
4158,-0.795,-0.475
4159,-0.810,-0.495
4160,-0.840,-0.510
4161,-0.845,-0.520
4162,-0.845,-0.500
4163,-0.825,-0.490
4164,-0.825,-0.475
4165,-0.820,-0.495
4166,-0.830,-0.505
4167,-0.845,-0.520
4168,-0.855,-0.535
4169,-0.860,-0.525
4170,-0.860,-0.525
4171,-0.855,-0.515
4172,-0.845,-0.500
4173,-0.855,-0.505
4174,-0.845,-0.520
4175,-0.850,-0.520
4176,-0.855,-0.540
4177,-0.865,-0.535
4178,-0.865,-0.525
4179,-0.850,-0.510
4180,-0.835,-0.500
4181,-0.825,-0.495
4182,-0.810,-0.495
4183,-0.830,-0.505
4184,-0.845,-0.505
4185,-0.865,-0.525
4186,-0.860,-0.500
4187,-0.855,-0.515
4188,-0.835,-0.495
4189,-0.830,-0.470
4190,-0.815,-0.475
4191,-0.825,-0.480
4192,-0.835,-0.500
4193,-0.865,-0.520
4194,-0.860,-0.515
4195,-0.850,-0.495
4196,-0.835,-0.490
4197,-0.820,-0.470
4198,-0.815,-0.485
4199,-0.820,-0.485
4200,-0.825,-0.480
4201,-0.855,-0.520
4202,-0.865,-0.510
4203,-0.865,-0.500
4204,-0.855,-0.490
4205,-0.855,-0.480
4206,-0.845,-0.480
4207,-0.845,-0.490
4208,-0.855,-0.505
4209,-0.865,-0.510
4210,-0.890,-0.530
4211,-0.880,-0.520
4212,-0.900,-0.515
4213,-0.895,-0.510
4214,-0.880,-0.505
4215,-0.875,-0.500
4216,-0.895,-0.515
4217,-0.895,-0.535
4218,-0.930,-0.535
4219,-0.920,-0.545
4220,-0.920,-0.525
4221,-0.910,-0.520
4222,-0.900,-0.505
4223,-0.895,-0.505
4224,-0.885,-0.515
4225,-0.890,-0.525
4226,-0.920,-0.560
4227,-0.935,-0.560
4228,-0.935,-0.550
4229,-0.930,-0.535
4230,-0.905,-0.520
4231,-0.900,-0.505
4232,-0.895,-0.530
4233,-0.915,-0.525
4234,-0.925,-0.545
4235,-0.940,-0.565
4236,-0.945,-0.545
4237,-0.930,-0.550
4238,-0.925,-0.535
4239,-0.920,-0.510
4240,-0.915,-0.520
4241,-0.905,-0.540
4242,-0.910,-0.550
4243,-0.920,-0.560
4244,-0.935,-0.560
4245,-0.945,-0.565
4246,-0.935,-0.550
4247,-0.910,-0.540
4248,-0.890,-0.525
4249,-0.895,-0.545
4250,-0.905,-0.555
4251,-0.940,-0.570
4252,-0.955,-0.580
4253,-0.960,-0.580
4254,-0.930,-0.540
4255,-0.910,-0.535
4256,-0.900,-0.540
4257,-0.910,-0.550
4258,-0.915,-0.560
4259,-0.925,-0.570
4260,-0.935,-0.585
4261,-0.965,-0.575
4262,-0.940,-0.560
4263,-0.935,-0.565
4264,-0.920,-0.550
4265,-0.915,-0.550
4266,-0.915,-0.545
4267,-0.910,-0.560
4268,-0.955,-0.585
4269,-0.935,-0.570
4270,-0.940,-0.570
4271,-0.945,-0.555
4272,-0.925,-0.545
4273,-0.920,-0.540
4274,-0.940,-0.555
4275,-0.930,-0.550
4276,-0.935,-0.585
4277,-0.930,-0.590
4278,-0.935,-0.565
4279,-0.935,-0.565
4280,-0.935,-0.555
4281,-0.935,-0.555
4282,-0.915,-0.565
4283,-0.930,-0.560
4284,-0.940,-0.570
4285,-0.940,-0.580
4286,-0.950,-0.595
4287,-0.945,-0.575
4288,-0.925,-0.555
4289,-0.915,-0.545
4290,-0.895,-0.550
4291,-0.900,-0.550
4292,-0.925,-0.580
4293,-0.920,-0.580
4294,-0.925,-0.580
4295,-0.930,-0.580
4296,-0.925,-0.565
4297,-0.920,-0.575
4298,-0.905,-0.560
4299,-0.905,-0.570
4300,-0.915,-0.575
4301,-0.925,-0.580
4302,-0.940,-0.590
4303,-0.945,-0.585
4304,-0.940,-0.570
4305,-0.925,-0.550
4306,-0.910,-0.545
4307,-0.905,-0.545
4308,-0.915,-0.570
4309,-0.920,-0.580
4310,-0.935,-0.580
4311,-0.910,-0.580
4312,-0.880,-0.555
4313,-0.850,-0.560
4314,-0.820,-0.545
4315,-0.825,-0.555
4316,-0.810,-0.570
4317,-0.820,-0.570
4318,-0.805,-0.570
4319,-0.775,-0.560
4320,-0.720,-0.540
4321,-0.700,-0.530
4322,-0.695,-0.520
4323,-0.700,-0.520
4324,-0.705,-0.540
4325,-0.710,-0.550
4326,-0.750,-0.535
4327,-0.760,-0.535
4328,-0.785,-0.510
4329,-0.790,-0.500
4330,-0.820,-0.500
4331,-0.860,-0.505
4332,-0.905,-0.535
4333,-0.950,-0.560
4334,-0.955,-0.580
4335,-0.970,-0.600
4336,-0.980,-0.590
4337,-0.980,-0.580
4338,-0.975,-0.575
4339,-0.980,-0.565
4340,-0.975,-0.570
4341,-0.980,-0.585
4342,-0.980,-0.595
4343,-0.990,-0.595
4344,-1.010,-0.605
4345,-1.020,-0.600
4346,-1.005,-0.585
4347,-0.990,-0.575
4348,-0.970,-0.590
4349,-0.975,-0.580
4350,-0.970,-0.575
4351,-0.990,-0.595
4352,-0.985,-0.620
4353,-0.990,-0.605
4354,-0.990,-0.610
4355,-0.970,-0.595
4356,-0.960,-0.575
4357,-0.960,-0.570
4358,-0.945,-0.575
4359,-0.945,-0.570
4360,-0.945,-0.585
4361,-0.940,-0.580
4362,-0.945,-0.555
4363,-0.930,-0.530
4364,-0.890,-0.465
4365,-0.745,-0.385
4366,-0.475,-0.230
4367,-0.105,-0.015
4368,0.305,0.220
4369,0.725,0.360
4370,1.130,0.425
4371,1.310,0.395
4372,1.075,0.260
4373,0.475,0.000
4374,-0.395,-0.395
4375,-0.670,-0.535
4376,-1.670,-1.270
4377,-1.780,-1.440
4378,-1.605,-1.365
4379,-1.395,-1.150
4380,-1.240,-0.935
4381,-1.140,-0.790
4382,-1.080,-0.705
4383,-1.025,-0.690
4384,-0.995,-0.680
4385,-0.980,-0.665
4386,-0.985,-0.660
4387,-1.000,-0.635
4388,-0.980,-0.610
4389,-0.970,-0.585
4390,-0.970,-0.585
4391,-0.960,-0.570
4392,-0.955,-0.585
4393,-0.960,-0.605
4394,-0.970,-0.590
4395,-0.975,-0.560
4396,-0.955,-0.545
4397,-0.950,-0.545
4398,-0.945,-0.540
4399,-0.960,-0.555
4400,-0.965,-0.565
4401,-0.975,-0.580
4402,-0.985,-0.580
4403,-1.000,-0.570
4404,-0.975,-0.565
4405,-0.950,-0.555
4406,-0.945,-0.540
4407,-0.955,-0.550
4408,-0.955,-0.565
4409,-0.955,-0.575
4410,-0.965,-0.585
4411,-0.975,-0.560
4412,-0.980,-0.540
4413,-0.955,-0.535
4414,-0.945,-0.525
4415,-0.935,-0.535
4416,-0.925,-0.540
4417,-0.935,-0.550
4418,-0.950,-0.555
4419,-0.960,-0.580
4420,-0.960,-0.570
4421,-0.945,-0.535
4422,-0.940,-0.510
4423,-0.920,-0.505
4424,-0.900,-0.515
4425,-0.895,-0.510
4426,-0.905,-0.525
4427,-0.910,-0.515
4428,-0.905,-0.515
4429,-0.890,-0.495
4430,-0.865,-0.470
4431,-0.845,-0.460
4432,-0.820,-0.450
4433,-0.810,-0.460
4434,-0.815,-0.465
4435,-0.795,-0.470
4436,-0.795,-0.465
4437,-0.775,-0.450
4438,-0.760,-0.435
4439,-0.745,-0.415
4440,-0.710,-0.400
4441,-0.705,-0.410
4442,-0.705,-0.410
4443,-0.700,-0.415
4444,-0.695,-0.410
4445,-0.655,-0.400
4446,-0.625,-0.375
4447,-0.600,-0.355
4448,-0.570,-0.370
4449,-0.570,-0.365
4450,-0.565,-0.370
4451,-0.580,-0.400
4452,-0.585,-0.395
4453,-0.595,-0.390
4454,-0.590,-0.380
4455,-0.590,-0.385
4456,-0.595,-0.400
4457,-0.620,-0.415
4458,-0.645,-0.440
4459,-0.665,-0.475
4460,-0.690,-0.485
4461,-0.735,-0.495
4462,-0.745,-0.495
4463,-0.760,-0.510
4464,-0.765,-0.505
4465,-0.780,-0.525
4466,-0.805,-0.525
4467,-0.825,-0.580
4468,-0.860,-0.590
4469,-0.865,-0.600
4470,-0.885,-0.605
4471,-0.875,-0.600
4472,-0.865,-0.585
4473,-0.855,-0.590
4474,-0.865,-0.600
4475,-0.860,-0.610
4476,-0.885,-0.630
4477,-0.895,-0.640
4478,-0.905,-0.635
4479,-0.895,-0.625
4480,-0.885,-0.620
4481,-0.875,-0.605
4482,-0.870,-0.605
4483,-0.870,-0.620
4484,-0.875,-0.630
4485,-0.905,-0.625
4486,-0.905,-0.630
4487,-0.890,-0.630
4488,-0.895,-0.625
4489,-0.880,-0.600
4490,-0.880,-0.610
4491,-0.885,-0.620
4492,-0.885,-0.625
4493,-0.875,-0.635
4494,-0.885,-0.635
4495,-0.885,-0.620
4496,-0.875,-0.620
4497,-0.860,-0.590
4498,-0.835,-0.575
4499,-0.840,-0.590
4500,-0.845,-0.595
4501,-0.865,-0.620
4502,-0.875,-0.610
4503,-0.870,-0.610
4504,-0.855,-0.600
4505,-0.835,-0.590
4506,-0.830,-0.575
4507,-0.835,-0.595
4508,-0.845,-0.595
4509,-0.860,-0.620
4510,-0.865,-0.620
4511,-0.880,-0.625
4512,-0.875,-0.615
4513,-0.870,-0.610
4514,-0.865,-0.600
4515,-0.860,-0.590
4516,-0.860,-0.600
4517,-0.865,-0.635
4518,-0.875,-0.635
4519,-0.890,-0.640
4520,-0.900,-0.645
4521,-0.880,-0.615
4522,-0.875,-0.610
4523,-0.870,-0.615
4524,-0.870,-0.620
4525,-0.875,-0.625
4526,-0.905,-0.645
4527,-0.905,-0.670
4528,-0.910,-0.665
4529,-0.910,-0.655
4530,-0.890,-0.650
4531,-0.895,-0.625
4532,-0.895,-0.645
4533,-0.905,-0.645
4534,-0.915,-0.655
4535,-0.925,-0.680
4536,-0.920,-0.675
4537,-0.915,-0.665
4538,-0.900,-0.655
4539,-0.905,-0.645
4540,-0.895,-0.650
4541,-0.895,-0.655
4542,-0.910,-0.675
4543,-0.925,-0.675
4544,-0.930,-0.685
4545,-0.930,-0.680
4546,-0.925,-0.660
4547,-0.920,-0.660
4548,-0.900,-0.665
4549,-0.900,-0.675
4550,-0.910,-0.670
4551,-0.935,-0.680
4552,-0.960,-0.695
4553,-0.960,-0.705
4554,-0.940,-0.685
4555,-0.930,-0.675
4556,-0.915,-0.665
4557,-0.915,-0.680
4558,-0.930,-0.675
4559,-0.940,-0.685
4560,-0.950,-0.700
4561,-0.960,-0.700
4562,-0.960,-0.695
4563,-0.940,-0.685
4564,-0.920,-0.680
4565,-0.915,-0.685
4566,-0.925,-0.690
4567,-0.940,-0.695
4568,-0.950,-0.705
4569,-0.945,-0.715
4570,-0.960,-0.710
4571,-0.940,-0.700
4572,-0.930,-0.685
4573,-0.920,-0.680
4574,-0.935,-0.685
4575,-0.940,-0.680
4576,-0.945,-0.705
4577,-0.955,-0.720
4578,-0.965,-0.720
4579,-0.940,-0.715
4580,-0.935,-0.690
4581,-0.915,-0.690
4582,-0.905,-0.695
4583,-0.905,-0.700
4584,-0.915,-0.705
4585,-0.940,-0.710
4586,-0.930,-0.715
4587,-0.940,-0.710
4588,-0.935,-0.695
4589,-0.935,-0.670
4590,-0.935,-0.685
4591,-0.935,-0.700
4592,-0.920,-0.705
4593,-0.950,-0.715
4594,-0.960,-0.730
4595,-0.955,-0.720
4596,-0.950,-0.695
4597,-0.935,-0.690
4598,-0.930,-0.695
4599,-0.925,-0.690
4600,-0.930,-0.700
4601,-0.960,-0.710
4602,-0.950,-0.720
4603,-0.940,-0.710
4604,-0.935,-0.700
4605,-0.935,-0.690
4606,-0.925,-0.680
4607,-0.920,-0.690
4608,-0.905,-0.695
4609,-0.915,-0.695
4610,-0.900,-0.720
4611,-0.900,-0.710
4612,-0.880,-0.700
4613,-0.845,-0.685
4614,-0.820,-0.670
4615,-0.810,-0.675
4616,-0.805,-0.675
4617,-0.800,-0.700
4618,-0.805,-0.705
4619,-0.780,-0.680
4620,-0.770,-0.670
4621,-0.745,-0.650
4622,-0.725,-0.635
4623,-0.725,-0.630
4624,-0.745,-0.645
4625,-0.760,-0.650
4626,-0.780,-0.660
4627,-0.815,-0.655
4628,-0.820,-0.635
4629,-0.815,-0.610
4630,-0.815,-0.595
4631,-0.820,-0.610
4632,-0.850,-0.630
4633,-0.885,-0.650
4634,-0.945,-0.665
4635,-0.975,-0.695
4636,-0.980,-0.705
4637,-1.000,-0.710
4638,-1.005,-0.690
4639,-0.995,-0.675
4640,-0.980,-0.675
4641,-0.970,-0.685
4642,-0.990,-0.685
4643,-1.000,-0.700
4644,-1.020,-0.695
4645,-1.015,-0.700
4646,-1.005,-0.685
4647,-0.990,-0.665
4648,-0.965,-0.670
4649,-0.970,-0.680
4650,-0.965,-0.685
4651,-0.985,-0.695
4652,-0.995,-0.700
4653,-1.010,-0.705
4654,-1.000,-0.695
4655,-0.980,-0.685
4656,-0.970,-0.680
4657,-0.960,-0.680
4658,-0.955,-0.690
4659,-0.960,-0.700
4660,-0.970,-0.710
4661,-0.965,-0.705
4662,-0.950,-0.685
4663,-0.935,-0.665
4664,-0.905,-0.635
4665,-0.880,-0.625
4666,-0.840,-0.585
4667,-0.740,-0.525
4668,-0.545,-0.400
4669,-0.195,-0.190
4670,0.195,0.040
4671,0.625,0.190
4672,1.060,0.260
4673,1.335,0.275
4674,1.250,0.215
4675,1.165,0.180
4676,-0.035,-0.225
4677,-0.905,-0.650
4678,-1.505,-1.125
4679,-1.675,-1.415
4680,-1.500,-1.400
4681,-1.205,-1.175
4682,-1.035,-0.955
4683,-0.995,-0.820
4684,-1.010,-0.785
4685,-1.040,-0.795
4686,-1.025,-0.775
4687,-0.985,-0.755
4688,-0.960,-0.715
4689,-0.955,-0.695
4690,-0.955,-0.680
4691,-0.975,-0.690
4692,-0.980,-0.700
4693,-0.970,-0.715
4694,-0.985,-0.695
4695,-0.985,-0.685
4696,-0.970,-0.665
4697,-0.955,-0.665
4698,-0.950,-0.650
4699,-0.945,-0.655
4700,-0.950,-0.650
4701,-0.965,-0.675
4702,-0.970,-0.675
4703,-0.990,-0.660
4704,-0.980,-0.665
4705,-0.960,-0.655
4706,-0.950,-0.640
4707,-0.945,-0.655
4708,-0.960,-0.640
4709,-0.970,-0.650
4710,-0.965,-0.655
4711,-0.970,-0.650
4712,-0.975,-0.650
4713,-0.965,-0.645
4714,-0.955,-0.625
4715,-0.935,-0.625
4716,-0.935,-0.615
4717,-0.935,-0.630
4718,-0.950,-0.645
4719,-0.950,-0.650
4720,-0.950,-0.640
4721,-0.935,-0.620
4722,-0.945,-0.610
4723,-0.910,-0.595
4724,-0.905,-0.590
4725,-0.900,-0.580
4726,-0.910,-0.605
4727,-0.915,-0.605
4728,-0.905,-0.605
4729,-0.915,-0.580
4730,-0.890,-0.565
4731,-0.860,-0.545
4732,-0.835,-0.535
4733,-0.825,-0.525
4734,-0.825,-0.535
4735,-0.815,-0.530
4736,-0.805,-0.520
4737,-0.790,-0.495
4738,-0.760,-0.470
4739,-0.720,-0.455
4740,-0.720,-0.450
4741,-0.700,-0.445
4742,-0.685,-0.445
4743,-0.670,-0.455
4744,-0.645,-0.440
4745,-0.635,-0.430
4746,-0.610,-0.390
4747,-0.580,-0.370
4748,-0.545,-0.355
4749,-0.530,-0.365
4750,-0.535,-0.365
4751,-0.500,-0.360
4752,-0.505,-0.370
4753,-0.510,-0.355
4754,-0.500,-0.345
4755,-0.480,-0.330
4756,-0.470,-0.330
4757,-0.480,-0.340
4758,-0.500,-0.370
4759,-0.540,-0.400
4760,-0.575,-0.435
4761,-0.620,-0.470
4762,-0.645,-0.485
4763,-0.685,-0.485
4764,-0.705,-0.490
4765,-0.720,-0.510
4766,-0.740,-0.540
4767,-0.770,-0.570
4768,-0.800,-0.585
4769,-0.830,-0.600
4770,-0.850,-0.605
4771,-0.865,-0.610
4772,-0.875,-0.610
4773,-0.885,-0.600
4774,-0.895,-0.615
4775,-0.895,-0.625
4776,-0.885,-0.640
4777,-0.900,-0.650
4778,-0.905,-0.655
4779,-0.905,-0.645
4780,-0.895,-0.645
4781,-0.895,-0.640
4782,-0.885,-0.635
4783,-0.880,-0.640
4784,-0.890,-0.645
4785,-0.910,-0.660
4786,-0.925,-0.660
4787,-0.915,-0.665
4788,-0.910,-0.625
4789,-0.885,-0.615
4790,-0.890,-0.620
4791,-0.885,-0.605
4792,-0.895,-0.620
4793,-0.915,-0.630
4794,-0.910,-0.640
4795,-0.915,-0.630
4796,-0.890,-0.625
4797,-0.880,-0.605
4798,-0.870,-0.605
4799,-0.865,-0.595
4800,-0.870,-0.590
4801,-0.880,-0.605
4802,-0.895,-0.620
4803,-0.885,-0.620
4804,-0.885,-0.610
4805,-0.865,-0.605
4806,-0.855,-0.590
4807,-0.840,-0.590
4808,-0.840,-0.590
4809,-0.855,-0.605
4810,-0.870,-0.610
4811,-0.875,-0.615
4812,-0.875,-0.605
4813,-0.870,-0.580
4814,-0.860,-0.580
4815,-0.860,-0.585
4816,-0.860,-0.590
4817,-0.860,-0.610
4818,-0.875,-0.610
4819,-0.890,-0.620
4820,-0.895,-0.610
4821,-0.900,-0.610
4822,-0.885,-0.595
4823,-0.885,-0.580
4824,-0.880,-0.595
4825,-0.885,-0.600
4826,-0.905,-0.620
4827,-0.915,-0.625
4828,-0.930,-0.630
4829,-0.925,-0.630
4830,-0.910,-0.620
4831,-0.900,-0.605
4832,-0.905,-0.600
4833,-0.900,-0.630
4834,-0.915,-0.635
4835,-0.935,-0.655
4836,-0.950,-0.665
4837,-0.945,-0.640
4838,-0.935,-0.635
4839,-0.915,-0.630
4840,-0.905,-0.610
4841,-0.930,-0.620
4842,-0.920,-0.630
4843,-0.925,-0.645
4844,-0.935,-0.650
4845,-0.940,-0.655
4846,-0.935,-0.625
4847,-0.930,-0.620
4848,-0.925,-0.605
4849,-0.915,-0.625
4850,-0.900,-0.620
4851,-0.940,-0.650
4852,-0.950,-0.660
4853,-0.950,-0.655
4854,-0.950,-0.645
4855,-0.945,-0.640
4856,-0.930,-0.630
4857,-0.920,-0.615
4858,-0.930,-0.640
4859,-0.930,-0.645
4860,-0.945,-0.640
4861,-0.940,-0.645
4862,-0.950,-0.650
4863,-0.935,-0.630
4864,-0.915,-0.635
4865,-0.910,-0.610
4866,-0.905,-0.630
4867,-0.915,-0.635
4868,-0.930,-0.655
4869,-0.960,-0.665
4870,-0.950,-0.655
4871,-0.940,-0.630
4872,-0.940,-0.625
4873,-0.925,-0.635
4874,-0.930,-0.630
4875,-0.945,-0.640
4876,-0.950,-0.660
4877,-0.955,-0.660
4878,-0.950,-0.650
4879,-0.950,-0.645
4880,-0.935,-0.635
4881,-0.915,-0.620
4882,-0.910,-0.605
4883,-0.920,-0.635
4884,-0.915,-0.645
4885,-0.935,-0.660
4886,-0.945,-0.650
4887,-0.940,-0.655
4888,-0.925,-0.635
4889,-0.920,-0.615
4890,-0.930,-0.615
4891,-0.925,-0.600
4892,-0.930,-0.620
4893,-0.920,-0.630
4894,-0.940,-0.645
4895,-0.955,-0.635
4896,-0.955,-0.635
4897,-0.930,-0.610
4898,-0.915,-0.585
4899,-0.915,-0.615
4900,-0.910,-0.610
4901,-0.930,-0.625
4902,-0.930,-0.640
4903,-0.945,-0.645
4904,-0.945,-0.635
4905,-0.925,-0.635
4906,-0.910,-0.605
4907,-0.905,-0.610
4908,-0.900,-0.625
4909,-0.910,-0.640
4910,-0.925,-0.635
4911,-0.940,-0.640
4912,-0.935,-0.625
4913,-0.935,-0.620
4914,-0.935,-0.600
4915,-0.915,-0.600
4916,-0.910,-0.595
4917,-0.900,-0.610
4918,-0.905,-0.620
4919,-0.925,-0.630
4920,-0.935,-0.625
4921,-0.935,-0.620
4922,-0.915,-0.605
4923,-0.905,-0.585
4924,-0.900,-0.595
4925,-0.905,-0.590
4926,-0.905,-0.625
4927,-0.905,-0.625
4928,-0.925,-0.610
4929,-0.910,-0.605
4930,-0.910,-0.600
4931,-0.890,-0.580
4932,-0.905,-0.590
4933,-0.885,-0.585
4934,-0.895,-0.600
4935,-0.910,-0.610
4936,-0.930,-0.610
4937,-0.935,-0.610
4938,-0.925,-0.595
4939,-0.910,-0.595
4940,-0.915,-0.580
4941,-0.885,-0.590
4942,-0.900,-0.595
4943,-0.910,-0.605
4944,-0.920,-0.610
4945,-0.915,-0.610
4946,-0.895,-0.595
4947,-0.865,-0.570
4948,-0.840,-0.570
4949,-0.820,-0.570
4950,-0.815,-0.570
4951,-0.800,-0.590
4952,-0.800,-0.610
4953,-0.795,-0.600
4954,-0.785,-0.585
4955,-0.775,-0.565
4956,-0.745,-0.545
4957,-0.710,-0.545
4958,-0.695,-0.535
4959,-0.725,-0.540
4960,-0.755,-0.565
4961,-0.775,-0.575
4962,-0.785,-0.570
4963,-0.785,-0.535
4964,-0.780,-0.515
4965,-0.765,-0.490
4966,-0.765,-0.485
4967,-0.785,-0.515
4968,-0.835,-0.530
4969,-0.880,-0.540
4970,-0.905,-0.570
4971,-0.930,-0.570
4972,-0.940,-0.570
4973,-0.940,-0.550
4974,-0.925,-0.570
4975,-0.940,-0.575
4976,-0.960,-0.605
4977,-0.965,-0.605
4978,-0.970,-0.600
4979,-0.970,-0.590
4980,-0.965,-0.575
4981,-0.955,-0.565
4982,-0.950,-0.575
4983,-0.955,-0.570
4984,-0.960,-0.580
4985,-0.970,-0.595
4986,-0.965,-0.590
4987,-0.985,-0.570
4988,-0.965,-0.565
4989,-0.960,-0.555
4990,-0.940,-0.550
4991,-0.935,-0.565
4992,-0.945,-0.575
4993,-0.960,-0.585
4994,-0.940,-0.580
4995,-0.935,-0.570
4996,-0.940,-0.570
4997,-0.920,-0.535
4998,-0.895,-0.525
4999,-0.850,-0.500
5000,-0.830,-0.490
5001,-0.650,-0.385
5002,-0.375,-0.225
5003,-0.005,0.030
5004,0.410,0.235
5005,0.875,0.355
5006,1.240,0.395
5007,1.335,0.385
5008,0.970,0.290
5009,0.260,0.055
5010,-0.635,-0.360
5011,-1.345,-0.835
5012,-1.615,-1.190
5013,-1.480,-1.280
5014,-1.205,-1.115
5015,-1.015,-0.870
5016,-0.955,-0.695
5017,-0.980,-0.655
5018,-0.990,-0.655
5019,-0.980,-0.660
5020,-0.965,-0.650
5021,-0.940,-0.615
5022,-0.940,-0.575
5023,-0.930,-0.540
5024,-0.930,-0.560
5025,-0.925,-0.555
5026,-0.950,-0.580
5027,-0.945,-0.585
5028,-0.940,-0.585
5029,-0.945,-0.570
5030,-0.925,-0.560
5031,-0.915,-0.555
5032,-0.905,-0.535
5033,-0.895,-0.550
5034,-0.935,-0.550
5035,-0.935,-0.560
5036,-0.935,-0.565
5037,-0.940,-0.565
5038,-0.925,-0.545
5039,-0.920,-0.525
5040,-0.900,-0.520
5041,-0.900,-0.535
5042,-0.900,-0.540
5043,-0.920,-0.550
5044,-0.935,-0.565
5045,-0.935,-0.550
5046,-0.935,-0.550
5047,-0.915,-0.530
5048,-0.905,-0.500
5049,-0.905,-0.520
5050,-0.900,-0.530
5051,-0.910,-0.535
5052,-0.920,-0.540
5053,-0.920,-0.525
5054,-0.905,-0.520
5055,-0.905,-0.505
5056,-0.880,-0.490
5057,-0.865,-0.490
5058,-0.865,-0.490
5059,-0.870,-0.500
5060,-0.865,-0.500
5061,-0.870,-0.490
5062,-0.860,-0.495
5063,-0.840,-0.470
5064,-0.825,-0.450
5065,-0.795,-0.435
5066,-0.800,-0.430
5067,-0.785,-0.440
5068,-0.775,-0.430
5069,-0.760,-0.425
5070,-0.745,-0.425
5071,-0.730,-0.405
5072,-0.695,-0.375
5073,-0.655,-0.345
5074,-0.640,-0.340
5075,-0.630,-0.335
5076,-0.615,-0.340
5077,-0.605,-0.330
5078,-0.590,-0.335
5079,-0.570,-0.315
5080,-0.530,-0.285
5081,-0.510,-0.275
5082,-0.475,-0.260
5083,-0.465,-0.260
5084,-0.465,-0.260
5085,-0.460,-0.275
5086,-0.465,-0.275
5087,-0.460,-0.265
5088,-0.460,-0.260
5089,-0.455,-0.260
5090,-0.460,-0.255
5091,-0.470,-0.265
5092,-0.505,-0.310
5093,-0.540,-0.335
5094,-0.585,-0.360
5095,-0.620,-0.380
5096,-0.645,-0.405
5097,-0.650,-0.405
5098,-0.675,-0.415
5099,-0.700,-0.440
5100,-0.715,-0.450
5101,-0.770,-0.480
5102,-0.795,-0.510
5103,-0.810,-0.525
5104,-0.825,-0.520
5105,-0.825,-0.510
5106,-0.820,-0.510
5107,-0.820,-0.515
5108,-0.825,-0.520
5109,-0.835,-0.525
5110,-0.855,-0.550
5111,-0.865,-0.560
5112,-0.860,-0.560
5113,-0.860,-0.555
5114,-0.850,-0.540
5115,-0.845,-0.545
5116,-0.840,-0.525
5117,-0.850,-0.545
5118,-0.860,-0.560
5119,-0.880,-0.565
5120,-0.880,-0.560
5121,-0.875,-0.555
5122,-0.860,-0.535
5123,-0.840,-0.530
5124,-0.835,-0.525
5125,-0.830,-0.535
5126,-0.850,-0.560
5127,-0.865,-0.555
5128,-0.865,-0.560
5129,-0.855,-0.540
5130,-0.845,-0.515
5131,-0.835,-0.510
5132,-0.820,-0.505
5133,-0.830,-0.530
5134,-0.835,-0.525
5135,-0.845,-0.540
5136,-0.855,-0.550
5137,-0.855,-0.535
5138,-0.855,-0.515
5139,-0.835,-0.510
5140,-0.830,-0.500
5141,-0.835,-0.505
5142,-0.815,-0.515
5143,-0.840,-0.530
5144,-0.845,-0.530
5145,-0.860,-0.535
5146,-0.840,-0.535
5147,-0.835,-0.510
5148,-0.845,-0.510
5149,-0.835,-0.505
5150,-0.835,-0.515
5151,-0.880,-0.540
5152,-0.880,-0.555
5153,-0.895,-0.545
5154,-0.885,-0.545
5155,-0.870,-0.545
5156,-0.845,-0.530
5157,-0.850,-0.530
5158,-0.860,-0.530
5159,-0.875,-0.550
5160,-0.895,-0.590
5161,-0.905,-0.575
5162,-0.910,-0.560
5163,-0.905,-0.550
5164,-0.895,-0.545
5165,-0.880,-0.535
5166,-0.875,-0.545
5167,-0.895,-0.565
5168,-0.895,-0.575
5169,-0.910,-0.595
5170,-0.920,-0.595
5171,-0.920,-0.595
5172,-0.905,-0.565
5173,-0.900,-0.555
5174,-0.885,-0.550
5175,-0.895,-0.555
5176,-0.900,-0.570
5177,-0.915,-0.575
5178,-0.920,-0.590
5179,-0.925,-0.580
5180,-0.910,-0.555
5181,-0.900,-0.545
5182,-0.880,-0.550
5183,-0.875,-0.555
5184,-0.895,-0.580
5185,-0.915,-0.585
5186,-0.925,-0.600
5187,-0.935,-0.595
5188,-0.940,-0.590
5189,-0.915,-0.575
5190,-0.895,-0.570
5191,-0.895,-0.560
5192,-0.895,-0.575
5193,-0.920,-0.590
5194,-0.935,-0.590
5195,-0.940,-0.590
5196,-0.920,-0.575
5197,-0.915,-0.570
5198,-0.905,-0.545
5199,-0.900,-0.560
5200,-0.890,-0.570
5201,-0.900,-0.585
5202,-0.925,-0.595
5203,-0.935,-0.605
5204,-0.930,-0.580
5205,-0.920,-0.575
5206,-0.905,-0.575
5207,-0.900,-0.565
5208,-0.915,-0.570
5209,-0.915,-0.575
5210,-0.930,-0.585
5211,-0.940,-0.585
5212,-0.925,-0.585
5213,-0.920,-0.560
5214,-0.915,-0.555
5215,-0.915,-0.540
5216,-0.925,-0.560
5217,-0.895,-0.555
5218,-0.910,-0.585
5219,-0.930,-0.590
5220,-0.945,-0.585
5221,-0.930,-0.570
5222,-0.925,-0.560
5223,-0.915,-0.545
5224,-0.910,-0.555
5225,-0.910,-0.560
5226,-0.920,-0.580
5227,-0.935,-0.590
5228,-0.930,-0.595
5229,-0.935,-0.575
5230,-0.945,-0.565
5231,-0.910,-0.550
5232,-0.915,-0.555
5233,-0.900,-0.550
5234,-0.900,-0.555
5235,-0.915,-0.570
5236,-0.910,-0.585
5237,-0.915,-0.590
5238,-0.915,-0.580
5239,-0.905,-0.565
5240,-0.895,-0.550
5241,-0.905,-0.570
5242,-0.895,-0.565
5243,-0.900,-0.585
5244,-0.925,-0.585
5245,-0.915,-0.570
5246,-0.920,-0.575
5247,-0.900,-0.540
5248,-0.885,-0.545
5249,-0.880,-0.545
5250,-0.885,-0.545
5251,-0.900,-0.560
5252,-0.910,-0.570
5253,-0.920,-0.585
5254,-0.915,-0.575
5255,-0.905,-0.565
5256,-0.880,-0.550
5257,-0.860,-0.545
5258,-0.855,-0.535
5259,-0.830,-0.560
5260,-0.825,-0.565
5261,-0.820,-0.570
5262,-0.805,-0.570
5263,-0.810,-0.560
5264,-0.790,-0.535
5265,-0.750,-0.520
5266,-0.705,-0.530
5267,-0.675,-0.530
5268,-0.680,-0.525
5269,-0.690,-0.525
5270,-0.685,-0.530
5271,-0.705,-0.515
5272,-0.725,-0.495
5273,-0.725,-0.465
5274,-0.715,-0.470
5275,-0.710,-0.475
5276,-0.740,-0.490
5277,-0.780,-0.495
5278,-0.835,-0.505
5279,-0.885,-0.520
5280,-0.910,-0.535
5281,-0.915,-0.525
5282,-0.895,-0.535
5283,-0.910,-0.540
5284,-0.925,-0.535
5285,-0.955,-0.555
5286,-0.965,-0.570
5287,-0.985,-0.565
5288,-0.975,-0.560
5289,-0.955,-0.550
5290,-0.940,-0.525
5291,-0.935,-0.525
5292,-0.940,-0.560
5293,-0.965,-0.570
5294,-0.970,-0.570
5295,-0.980,-0.550
5296,-0.970,-0.550
5297,-0.960,-0.540
5298,-0.935,-0.535
5299,-0.935,-0.535
5300,-0.930,-0.530
5301,-0.955,-0.540
5302,-0.975,-0.550
5303,-0.960,-0.550
5304,-0.975,-0.555
5305,-0.965,-0.555
5306,-0.930,-0.535
5307,-0.910,-0.520
5308,-0.900,-0.515
5309,-0.905,-0.515
5310,-0.910,-0.535
5311,-0.915,-0.540
5312,-0.900,-0.540
5313,-0.890,-0.510
5314,-0.850,-0.455
5315,-0.715,-0.365
5316,-0.470,-0.245
5317,-0.125,-0.050
5318,0.235,0.180
5319,0.635,0.365
5320,1.035,0.465
5321,1.295,0.475
5322,1.230,0.405
5323,0.805,0.255
5324,0.065,-0.060
5325,-0.185,-0.170
5326,-1.395,-0.925
5327,-1.680,-1.290
5328,-1.635,-1.385
5329,-1.445,-1.260
5330,-1.255,-1.035
5331,-1.155,-0.835
5332,-1.095,-0.720
5333,-1.045,-0.655
5334,-0.990,-0.625
5335,-0.955,-0.620
5336,-0.935,-0.600
5337,-0.940,-0.590
5338,-0.945,-0.565
5339,-0.940,-0.550
5340,-0.940,-0.530
5341,-0.925,-0.520
5342,-0.920,-0.510
5343,-0.940,-0.550
5344,-0.945,-0.545
5345,-0.940,-0.520
5346,-0.925,-0.515
5347,-0.915,-0.480
5348,-0.905,-0.475
5349,-0.905,-0.475
5350,-0.900,-0.490
5351,-0.910,-0.510
5352,-0.920,-0.520
5353,-0.935,-0.510
5354,-0.945,-0.515
5355,-0.930,-0.505
5356,-0.920,-0.480
5357,-0.910,-0.475
5358,-0.900,-0.465
5359,-0.905,-0.490
5360,-0.925,-0.495
5361,-0.930,-0.500
5362,-0.945,-0.485
5363,-0.930,-0.470
5364,-0.905,-0.465
5365,-0.910,-0.450
5366,-0.925,-0.455
5367,-0.900,-0.460
5368,-0.910,-0.470
5369,-0.915,-0.480
5370,-0.915,-0.475
5371,-0.900,-0.480
5372,-0.895,-0.455
5373,-0.870,-0.430
5374,-0.875,-0.425
5375,-0.870,-0.425
5376,-0.865,-0.450
5377,-0.870,-0.460
5378,-0.865,-0.445
5379,-0.855,-0.420
5380,-0.845,-0.395
5381,-0.810,-0.390
5382,-0.795,-0.385
5383,-0.785,-0.375
5384,-0.785,-0.370
5385,-0.775,-0.370
5386,-0.765,-0.370
5387,-0.740,-0.355
5388,-0.735,-0.345
5389,-0.710,-0.330
5390,-0.680,-0.305
5391,-0.660,-0.300
5392,-0.640,-0.285
5393,-0.640,-0.275
5394,-0.645,-0.290
5395,-0.610,-0.285
5396,-0.600,-0.270
5397,-0.575,-0.255
5398,-0.550,-0.240
5399,-0.510,-0.230
5400,-0.500,-0.230
5401,-0.505,-0.235
5402,-0.510,-0.240
5403,-0.535,-0.245
5404,-0.515,-0.260
5405,-0.520,-0.240
5406,-0.510,-0.240
5407,-0.505,-0.225
5408,-0.525,-0.270
5409,-0.550,-0.285
5410,-0.590,-0.310
5411,-0.640,-0.340
5412,-0.665,-0.350
5413,-0.680,-0.350
5414,-0.690,-0.350
5415,-0.690,-0.360
5416,-0.715,-0.385
5417,-0.740,-0.395
5418,-0.770,-0.430
5419,-0.800,-0.450
5420,-0.815,-0.455
5421,-0.820,-0.450
5422,-0.810,-0.450
5423,-0.820,-0.440
5424,-0.805,-0.445
5425,-0.815,-0.445
5426,-0.825,-0.460
5427,-0.825,-0.470
5428,-0.840,-0.485
5429,-0.850,-0.485
5430,-0.840,-0.475
5431,-0.835,-0.460
5432,-0.820,-0.460
5433,-0.830,-0.470
5434,-0.835,-0.465
5435,-0.845,-0.490
5436,-0.855,-0.480
5437,-0.865,-0.470
5438,-0.865,-0.465
5439,-0.860,-0.470
5440,-0.830,-0.445
5441,-0.830,-0.460
5442,-0.820,-0.475
5443,-0.825,-0.470
5444,-0.840,-0.485
5445,-0.835,-0.480
5446,-0.840,-0.480
5447,-0.820,-0.455
5448,-0.800,-0.420
5449,-0.805,-0.435
5450,-0.800,-0.440
5451,-0.800,-0.445
5452,-0.805,-0.455
5453,-0.805,-0.460
5454,-0.815,-0.450
5455,-0.800,-0.440
5456,-0.785,-0.425
5457,-0.775,-0.425
5458,-0.775,-0.420
5459,-0.770,-0.445
5460,-0.800,-0.445
5461,-0.815,-0.455
5462,-0.815,-0.445
5463,-0.820,-0.450
5464,-0.815,-0.430
5465,-0.790,-0.425
5466,-0.795,-0.430
5467,-0.805,-0.440
5468,-0.820,-0.440
5469,-0.845,-0.455
5470,-0.840,-0.460
5471,-0.860,-0.445
5472,-0.845,-0.440
5473,-0.830,-0.430
5474,-0.830,-0.430
5475,-0.835,-0.430
5476,-0.840,-0.475
5477,-0.865,-0.485
5478,-0.890,-0.475
5479,-0.890,-0.480
5480,-0.865,-0.465
5481,-0.860,-0.460
5482,-0.850,-0.470
5483,-0.850,-0.460
5484,-0.855,-0.475
5485,-0.875,-0.490
5486,-0.870,-0.500
5487,-0.870,-0.485
5488,-0.870,-0.475
5489,-0.855,-0.470
5490,-0.850,-0.465
5491,-0.855,-0.465
5492,-0.850,-0.475
5493,-0.870,-0.495
5494,-0.885,-0.485
5495,-0.890,-0.500
5496,-0.890,-0.500
5497,-0.870,-0.485
5498,-0.860,-0.460
5499,-0.850,-0.475
5500,-0.845,-0.485
5501,-0.865,-0.490
5502,-0.880,-0.490
5503,-0.885,-0.500
5504,-0.875,-0.490
5505,-0.880,-0.480
5506,-0.875,-0.480
5507,-0.850,-0.460
5508,-0.845,-0.475
5509,-0.850,-0.485
5510,-0.870,-0.490
5511,-0.885,-0.515
5512,-0.885,-0.515
5513,-0.885,-0.505
5514,-0.885,-0.495
5515,-0.880,-0.480
5516,-0.850,-0.480
5517,-0.860,-0.500
5518,-0.870,-0.505
5519,-0.870,-0.520
5520,-0.900,-0.510
5521,-0.900,-0.495
5522,-0.875,-0.495
5523,-0.860,-0.470
5524,-0.850,-0.475
5525,-0.850,-0.465
5526,-0.855,-0.495
5527,-0.865,-0.505
5528,-0.870,-0.500
5529,-0.880,-0.495
5530,-0.860,-0.485
5531,-0.855,-0.480
5532,-0.835,-0.480
5533,-0.850,-0.485
5534,-0.850,-0.510
5535,-0.850,-0.510
5536,-0.870,-0.510
5537,-0.870,-0.510
5538,-0.855,-0.485
5539,-0.860,-0.485
5540,-0.840,-0.480
5541,-0.835,-0.480
5542,-0.845,-0.475
5543,-0.860,-0.485
5544,-0.870,-0.490
5545,-0.875,-0.500
5546,-0.865,-0.500
5547,-0.855,-0.465
5548,-0.830,-0.465
5549,-0.825,-0.470
5550,-0.830,-0.475
5551,-0.810,-0.480
5552,-0.810,-0.500
5553,-0.810,-0.505
5554,-0.790,-0.505
5555,-0.770,-0.480
5556,-0.745,-0.480
5557,-0.745,-0.450
5558,-0.720,-0.460
5559,-0.715,-0.465
5560,-0.690,-0.475
5561,-0.660,-0.470
5562,-0.660,-0.445
5563,-0.650,-0.430
5564,-0.670,-0.415
5565,-0.650,-0.415
5566,-0.660,-0.425
5567,-0.695,-0.440
5568,-0.710,-0.445
5569,-0.710,-0.435
5570,-0.725,-0.435
5571,-0.745,-0.435
5572,-0.760,-0.415
5573,-0.785,-0.440
5574,-0.825,-0.425
5575,-0.835,-0.445
5576,-0.860,-0.475
5577,-0.885,-0.480
5578,-0.930,-0.505
5579,-0.940,-0.495
5580,-0.935,-0.485
5581,-0.910,-0.480
5582,-0.905,-0.475
5583,-0.895,-0.485
5584,-0.910,-0.480
5585,-0.915,-0.495
5586,-0.930,-0.510
5587,-0.930,-0.515
5588,-0.930,-0.505
5589,-0.920,-0.495
5590,-0.900,-0.470
5591,-0.890,-0.475
5592,-0.905,-0.470
5593,-0.905,-0.485
5594,-0.910,-0.490
5595,-0.910,-0.500
5596,-0.905,-0.495
5597,-0.890,-0.485
5598,-0.880,-0.450
5599,-0.865,-0.450
5600,-0.865,-0.445
5601,-0.875,-0.475
5602,-0.890,-0.470
5603,-0.880,-0.495
5604,-0.875,-0.475
5605,-0.860,-0.465
5606,-0.830,-0.450
5607,-0.795,-0.405
5608,-0.725,-0.365
5609,-0.575,-0.300
5610,-0.315,-0.135
5611,0.045,0.090
5612,0.420,0.300
5613,0.840,0.425
5614,1.235,0.470
5615,1.380,0.465
5616,1.175,0.405
5617,0.570,0.215
5618,-0.240,-0.090
5619,-1.030,-0.525
5620,-1.525,-0.985
5621,-1.610,-1.245
5622,-1.405,-1.235
5623,-1.150,-1.035
5624,-1.010,-0.815
5625,-0.985,-0.750
5626,-0.995,-0.630
5627,-0.995,-0.625
5628,-0.955,-0.590
5629,-0.915,-0.565
5630,-0.875,-0.515
5631,-0.855,-0.495
5632,-0.860,-0.480
5633,-0.865,-0.475
5634,-0.865,-0.475
5635,-0.890,-0.485
5636,-0.890,-0.490
5637,-0.885,-0.475
5638,-0.885,-0.475
5639,-0.850,-0.460
5640,-0.860,-0.440
5641,-0.850,-0.455
5642,-0.860,-0.445
5643,-0.870,-0.460
5644,-0.870,-0.460
5645,-0.880,-0.470
5646,-0.885,-0.460
5647,-0.870,-0.450
5648,-0.855,-0.430
5649,-0.840,-0.420
5650,-0.840,-0.420
5651,-0.850,-0.425
5652,-0.860,-0.435
5653,-0.880,-0.435
5654,-0.875,-0.440
5655,-0.865,-0.440
5656,-0.870,-0.420
5657,-0.870,-0.415
5658,-0.860,-0.415
5659,-0.835,-0.425
5660,-0.850,-0.445
5661,-0.860,-0.445
5662,-0.870,-0.445
5663,-0.860,-0.435
5664,-0.825,-0.415
5665,-0.805,-0.390
5666,-0.810,-0.385
5667,-0.790,-0.395
5668,-0.805,-0.395
5669,-0.805,-0.415
5670,-0.800,-0.400
5671,-0.795,-0.385
5672,-0.775,-0.360
5673,-0.750,-0.355
5674,-0.750,-0.335
5675,-0.745,-0.345
5676,-0.725,-0.330
5677,-0.720,-0.340
5678,-0.735,-0.335
5679,-0.705,-0.320
5680,-0.675,-0.295
5681,-0.640,-0.285
5682,-0.610,-0.250
5683,-0.605,-0.255
5684,-0.575,-0.240
5685,-0.580,-0.250
5686,-0.565,-0.250
5687,-0.540,-0.235
5688,-0.535,-0.230
5689,-0.490,-0.195
5690,-0.475,-0.175
5691,-0.450,-0.180
5692,-0.435,-0.180
5693,-0.440,-0.185
5694,-0.430,-0.180
5695,-0.430,-0.180
5696,-0.435,-0.185
5697,-0.420,-0.165
5698,-0.410,-0.165
5699,-0.420,-0.175
5700,-0.425,-0.175
5701,-0.445,-0.200
5702,-0.480,-0.235
5703,-0.520,-0.265
5704,-0.555,-0.265
5705,-0.565,-0.275
5706,-0.585,-0.285
5707,-0.605,-0.305
5708,-0.635,-0.325
5709,-0.660,-0.350
5710,-0.710,-0.390
5711,-0.740,-0.410
5712,-0.765,-0.405
5713,-0.785,-0.415
5714,-0.795,-0.415
5715,-0.775,-0.425
5716,-0.785,-0.440
5717,-0.795,-0.450
5718,-0.820,-0.460
5719,-0.835,-0.480
5720,-0.845,-0.475
5721,-0.840,-0.480
5722,-0.835,-0.475
5723,-0.820,-0.450
5724,-0.840,-0.465
5725,-0.845,-0.475
5726,-0.825,-0.485
5727,-0.840,-0.490
5728,-0.845,-0.490
5729,-0.860,-0.485
5730,-0.845,-0.470
5731,-0.825,-0.470
5732,-0.815,-0.445
5733,-0.815,-0.465
5734,-0.820,-0.480
5735,-0.845,-0.475
5736,-0.840,-0.485
5737,-0.840,-0.480
5738,-0.840,-0.470
5739,-0.810,-0.435
5740,-0.805,-0.445
5741,-0.795,-0.455
5742,-0.790,-0.455
5743,-0.800,-0.465
5744,-0.820,-0.460
5745,-0.810,-0.470
5746,-0.820,-0.465
5747,-0.800,-0.445
5748,-0.800,-0.445
5749,-0.785,-0.430
5750,-0.780,-0.425
5751,-0.800,-0.445
5752,-0.810,-0.450
5753,-0.820,-0.460
5754,-0.820,-0.440
5755,-0.800,-0.450
5756,-0.790,-0.420
5757,-0.780,-0.425
5758,-0.790,-0.425
5759,-0.795,-0.430
5760,-0.825,-0.445
5761,-0.830,-0.460
5762,-0.845,-0.455
5763,-0.840,-0.450
5764,-0.825,-0.445
5765,-0.820,-0.435
5766,-0.825,-0.435
5767,-0.830,-0.455
5768,-0.835,-0.475
5769,-0.850,-0.480
5770,-0.855,-0.495
5771,-0.870,-0.475
5772,-0.855,-0.470
5773,-0.840,-0.445
5774,-0.845,-0.455
5775,-0.855,-0.465
5776,-0.845,-0.475
5777,-0.860,-0.495
5778,-0.870,-0.500
5779,-0.885,-0.495
5780,-0.885,-0.485
5781,-0.865,-0.475
5782,-0.845,-0.470
5783,-0.850,-0.485
5784,-0.845,-0.490
5785,-0.865,-0.500
5786,-0.880,-0.515
5787,-0.890,-0.510
5788,-0.890,-0.510
5789,-0.870,-0.485
5790,-0.860,-0.480
5791,-0.865,-0.485
5792,-0.860,-0.480
5793,-0.870,-0.500
5794,-0.885,-0.510
5795,-0.890,-0.510
5796,-0.895,-0.505
5797,-0.885,-0.495
5798,-0.870,-0.490
5799,-0.860,-0.480
5800,-0.865,-0.470
5801,-0.870,-0.495
5802,-0.885,-0.500
5803,-0.895,-0.520
5804,-0.890,-0.515
5805,-0.895,-0.510
5806,-0.885,-0.490
5807,-0.890,-0.475
5808,-0.880,-0.485
5809,-0.870,-0.485
5810,-0.875,-0.505
5811,-0.880,-0.515
5812,-0.890,-0.515
5813,-0.895,-0.495
5814,-0.900,-0.475
5815,-0.885,-0.470
5816,-0.870,-0.480
5817,-0.875,-0.470
5818,-0.875,-0.485
5819,-0.885,-0.505
5820,-0.900,-0.515
5821,-0.900,-0.490
5822,-0.890,-0.500
5823,-0.870,-0.490
5824,-0.865,-0.470
5825,-0.870,-0.475
5826,-0.865,-0.485
5827,-0.875,-0.500
5828,-0.885,-0.515
5829,-0.885,-0.495
5830,-0.900,-0.480
5831,-0.880,-0.475
5832,-0.855,-0.475
5833,-0.860,-0.465
5834,-0.870,-0.475
5835,-0.880,-0.490
5836,-0.890,-0.515
5837,-0.900,-0.510
5838,-0.895,-0.505
5839,-0.880,-0.480
5840,-0.885,-0.480
5841,-0.870,-0.470
5842,-0.885,-0.480
5843,-0.870,-0.485
5844,-0.880,-0.495
5845,-0.895,-0.500
5846,-0.890,-0.505
5847,-0.890,-0.485
5848,-0.880,-0.485
5849,-0.855,-0.465
5850,-0.855,-0.465
5851,-0.875,-0.475
5852,-0.885,-0.495
5853,-0.895,-0.505
5854,-0.895,-0.505
5855,-0.900,-0.490
5856,-0.880,-0.485
5857,-0.865,-0.475
5858,-0.855,-0.480
5859,-0.855,-0.480
5860,-0.865,-0.485
5861,-0.860,-0.490
5862,-0.855,-0.485
5863,-0.830,-0.480
5864,-0.795,-0.480
5865,-0.755,-0.450
5866,-0.750,-0.450
5867,-0.735,-0.450
5868,-0.735,-0.450
5869,-0.740,-0.465
5870,-0.730,-0.455
5871,-0.730,-0.440
5872,-0.715,-0.425
5873,-0.715,-0.420
5874,-0.720,-0.425
5875,-0.720,-0.435
5876,-0.750,-0.440
5877,-0.775,-0.435
5878,-0.785,-0.405
5879,-0.790,-0.400
5880,-0.785,-0.385
5881,-0.805,-0.390
5882,-0.810,-0.405
5883,-0.830,-0.420
5884,-0.865,-0.425
5885,-0.905,-0.470
5886,-0.925,-0.485
5887,-0.945,-0.485
5888,-0.945,-0.475
5889,-0.940,-0.465
5890,-0.935,-0.460
5891,-0.920,-0.460
5892,-0.930,-0.465
5893,-0.930,-0.460
5894,-0.955,-0.475
5895,-0.955,-0.480
5896,-0.965,-0.485
5897,-0.955,-0.465
5898,-0.925,-0.440
5899,-0.925,-0.430
5900,-0.925,-0.420
5901,-0.915,-0.435
5902,-0.930,-0.450
5903,-0.930,-0.475
5904,-0.935,-0.460
5905,-0.930,-0.455
5906,-0.920,-0.455
5907,-0.910,-0.435
5908,-0.915,-0.440
5909,-0.900,-0.435
5910,-0.885,-0.470
5911,-0.890,-0.460
5912,-0.890,-0.445
5913,-0.870,-0.425
5914,-0.865,-0.400
5915,-0.800,-0.355
5916,-0.695,-0.275
5917,-0.455,-0.155
5918,-0.130,0.030
5919,0.235,0.255
5920,0.630,0.405
5921,1.030,0.470
5922,1.320,0.495
5923,1.310,0.495
5924,0.895,0.380
5925,0.720,0.320
5926,-0.610,-0.180
5927,-1.275,-0.630
5928,-1.575,-1.025
5929,-1.540,-1.195
5930,-1.300,-1.110
5931,-1.080,-0.875
5932,-0.975,-0.660
5933,-0.975,-0.555
5934,-0.985,-0.520
5935,-0.985,-0.530
5936,-0.950,-0.515
5937,-0.925,-0.510
5938,-0.930,-0.475
5939,-0.920,-0.460
5940,-0.920,-0.430
5941,-0.925,-0.430
5942,-0.925,-0.435
5943,-0.930,-0.435
5944,-0.930,-0.445
5945,-0.940,-0.455
5946,-0.940,-0.435
5947,-0.930,-0.430
5948,-0.915,-0.410
5949,-0.900,-0.405
5950,-0.905,-0.400
5951,-0.915,-0.405
5952,-0.925,-0.410
5953,-0.925,-0.425
5954,-0.935,-0.415
5955,-0.945,-0.410
5956,-0.930,-0.400
5957,-0.900,-0.385
5958,-0.910,-0.380
5959,-0.905,-0.390
5960,-0.920,-0.415
5961,-0.925,-0.425
5962,-0.935,-0.415
5963,-0.925,-0.415
5964,-0.910,-0.400
5965,-0.895,-0.380
5966,-0.885,-0.375
5967,-0.880,-0.380
5968,-0.900,-0.390
5969,-0.900,-0.405
5970,-0.905,-0.410
5971,-0.910,-0.390
5972,-0.895,-0.375
5973,-0.880,-0.365
5974,-0.870,-0.350
5975,-0.855,-0.355
5976,-0.860,-0.345
5977,-0.855,-0.350
5978,-0.850,-0.360
5979,-0.855,-0.355
5980,-0.840,-0.340
5981,-0.835,-0.320
5982,-0.805,-0.305
5983,-0.780,-0.300
5984,-0.775,-0.305
5985,-0.785,-0.290
5986,-0.780,-0.295
5987,-0.755,-0.290
5988,-0.755,-0.265
5989,-0.720,-0.240
5990,-0.680,-0.220
5991,-0.650,-0.195
5992,-0.630,-0.195
5993,-0.625,-0.195
5994,-0.615,-0.190
5995,-0.610,-0.180
5996,-0.595,-0.180
5997,-0.560,-0.150
5998,-0.535,-0.130
5999,-0.510,-0.105
6000,-0.500,-0.100
6001,-0.480,-0.115
6002,-0.475,-0.120
6003,-0.480,-0.135
6004,-0.480,-0.130
6005,-0.465,-0.095
6006,-0.445,-0.095
6007,-0.460,-0.090
6008,-0.470,-0.105
6009,-0.480,-0.135
6010,-0.515,-0.155
6011,-0.545,-0.175
6012,-0.585,-0.190
6013,-0.620,-0.210
6014,-0.640,-0.220
6015,-0.660,-0.235
6016,-0.675,-0.250
6017,-0.695,-0.280
6018,-0.735,-0.300
6019,-0.770,-0.330
6020,-0.800,-0.345
6021,-0.810,-0.350
6022,-0.830,-0.355
6023,-0.830,-0.360
6024,-0.820,-0.350
6025,-0.815,-0.355
6026,-0.835,-0.370
6027,-0.850,-0.385
6028,-0.875,-0.400
6029,-0.885,-0.400
6030,-0.895,-0.395
6031,-0.870,-0.370
6032,-0.860,-0.360
6033,-0.850,-0.375
6034,-0.850,-0.375
6035,-0.865,-0.390
6036,-0.885,-0.410
6037,-0.885,-0.415
6038,-0.890,-0.410
6039,-0.890,-0.395
6040,-0.860,-0.380
6041,-0.845,-0.375
6042,-0.845,-0.375
6043,-0.860,-0.385
6044,-0.880,-0.385
6045,-0.870,-0.390
6046,-0.885,-0.390
6047,-0.875,-0.380
6048,-0.865,-0.370
6049,-0.855,-0.355
6050,-0.860,-0.350
6051,-0.855,-0.370
6052,-0.870,-0.395
6053,-0.875,-0.415
6054,-0.880,-0.390
6055,-0.870,-0.385
6056,-0.875,-0.360
6057,-0.850,-0.350
6058,-0.855,-0.355
6059,-0.860,-0.355
6060,-0.870,-0.380
6061,-0.880,-0.395
6062,-0.910,-0.385
6063,-0.900,-0.390
6064,-0.880,-0.360
6065,-0.885,-0.340
6066,-0.875,-0.360
6067,-0.885,-0.355
6068,-0.910,-0.380
6069,-0.920,-0.390
6070,-0.930,-0.405
6071,-0.945,-0.385
6072,-0.930,-0.385
6073,-0.900,-0.360
6074,-0.900,-0.360
6075,-0.900,-0.370
6076,-0.920,-0.380
6077,-0.930,-0.405
6078,-0.935,-0.405
6079,-0.940,-0.415
6080,-0.930,-0.395
6081,-0.930,-0.385
6082,-0.935,-0.370
6083,-0.920,-0.370
6084,-0.925,-0.390
6085,-0.940,-0.400
6086,-0.950,-0.405
6087,-0.965,-0.425
6088,-0.960,-0.420
6089,-0.940,-0.420
6090,-0.935,-0.400
6091,-0.925,-0.400
6092,-0.915,-0.390
6093,-0.925,-0.385
6094,-0.950,-0.410
6095,-0.965,-0.420
6096,-0.965,-0.420
6097,-0.960,-0.395
6098,-0.965,-0.365
6099,-0.945,-0.355
6100,-0.945,-0.365
6101,-0.950,-0.380
6102,-0.955,-0.390
6103,-0.955,-0.410
6104,-0.955,-0.415
6105,-0.955,-0.395
6106,-0.950,-0.400
6107,-0.940,-0.390
6108,-0.940,-0.400
6109,-0.940,-0.400
6110,-0.940,-0.405
6111,-0.960,-0.410
6112,-0.975,-0.420
6113,-0.985,-0.420
6114,-0.965,-0.390
6115,-0.950,-0.380
6116,-0.930,-0.375
6117,-0.945,-0.375
6118,-0.950,-0.385
6119,-0.965,-0.405
6120,-0.975,-0.410
6121,-0.965,-0.420
6122,-0.960,-0.410
6123,-0.940,-0.395
6124,-0.930,-0.385
6125,-0.930,-0.380
6126,-0.945,-0.405
6127,-0.955,-0.400
6128,-0.960,-0.415
6129,-0.965,-0.415
6130,-0.965,-0.395
6131,-0.950,-0.380
6132,-0.950,-0.355
6133,-0.935,-0.375
6134,-0.935,-0.375
6135,-0.950,-0.395
6136,-0.955,-0.405
6137,-0.970,-0.405
6138,-0.980,-0.410
6139,-0.970,-0.395
6140,-0.960,-0.385
6141,-0.940,-0.375
6142,-0.920,-0.385
6143,-0.940,-0.395
6144,-0.940,-0.405
6145,-0.945,-0.420
6146,-0.955,-0.415
6147,-0.940,-0.390
6148,-0.925,-0.385
6149,-0.895,-0.370
6150,-0.885,-0.365
6151,-0.845,-0.385
6152,-0.835,-0.395
6153,-0.840,-0.410
6154,-0.840,-0.400
6155,-0.835,-0.385
6156,-0.785,-0.370
6157,-0.750,-0.335
6158,-0.735,-0.315
6159,-0.725,-0.325
6160,-0.745,-0.360
6161,-0.780,-0.385
6162,-0.810,-0.390
6163,-0.820,-0.360
6164,-0.820,-0.340
6165,-0.800,-0.305
6166,-0.785,-0.280
6167,-0.805,-0.285
6168,-0.825,-0.305
6169,-0.880,-0.335
6170,-0.920,-0.360
6171,-0.945,-0.370
6172,-0.955,-0.375
6173,-0.970,-0.355
6174,-0.960,-0.350
6175,-0.960,-0.360
6176,-0.975,-0.380
6177,-0.985,-0.395
6178,-1.025,-0.400
6179,-1.015,-0.405
6180,-1.020,-0.405
6181,-1.015,-0.380
6182,-1.015,-0.350
6183,-0.990,-0.350
6184,-0.975,-0.360
6185,-0.980,-0.360
6186,-0.980,-0.395
6187,-0.995,-0.395
6188,-0.995,-0.385
6189,-0.980,-0.370
6190,-0.970,-0.355
6191,-0.955,-0.335
6192,-0.950,-0.345
6193,-0.970,-0.345
6194,-0.985,-0.365
6195,-0.965,-0.375
6196,-0.980,-0.360
6197,-0.950,-0.345
6198,-0.950,-0.330
6199,-0.915,-0.310
6200,-0.905,-0.315
6201,-0.900,-0.330
6202,-0.905,-0.300
6203,-0.825,-0.235
6204,-0.620,-0.115
6205,-0.270,0.100
6206,0.115,0.365
6207,0.525,0.570
6208,0.950,0.665
6209,1.230,0.685
6210,1.135,0.575
6211,0.660,0.365
6212,-0.130,0.030
6213,-0.935,-0.390
6214,-1.510,-0.805
6215,-1.675,-1.070
6216,-1.560,-1.120
6217,-1.370,-0.965
6218,-1.225,-0.780
6219,-1.195,-0.645
6220,-1.170,-0.550
6221,-1.105,-0.495
6222,-1.025,-0.440
6223,-0.950,-0.410
6224,-0.915,-0.380
6225,-0.910,-0.370
6226,-0.930,-0.370
6227,-0.955,-0.360
6228,-0.970,-0.365
6229,-0.960,-0.355
6230,-0.955,-0.335
6231,-0.945,-0.310
6232,-0.930,-0.310
6233,-0.920,-0.310
6234,-0.925,-0.320
6235,-0.940,-0.330
6236,-0.950,-0.335
6237,-0.960,-0.345
6238,-0.945,-0.315
6239,-0.930,-0.305
6240,-0.925,-0.290
6241,-0.910,-0.305
6242,-0.920,-0.280
6243,-0.930,-0.295
6244,-0.935,-0.310
6245,-0.950,-0.305
6246,-0.945,-0.320
6247,-0.930,-0.295
6248,-0.920,-0.280
6249,-0.910,-0.275
6250,-0.895,-0.280
6251,-0.905,-0.295
6252,-0.915,-0.295
6253,-0.940,-0.295
6254,-0.930,-0.295
6255,-0.940,-0.290
6256,-0.940,-0.265
6257,-0.915,-0.285
6258,-0.885,-0.260
6259,-0.880,-0.265
6260,-0.890,-0.250
6261,-0.880,-0.260
6262,-0.895,-0.260
6263,-0.895,-0.270
6264,-0.895,-0.245
6265,-0.855,-0.235
6266,-0.835,-0.205
6267,-0.830,-0.220
6268,-0.830,-0.225
6269,-0.825,-0.235
6270,-0.820,-0.235
6271,-0.805,-0.200
6272,-0.795,-0.190
6273,-0.765,-0.165
6274,-0.725,-0.145
6275,-0.715,-0.135
6276,-0.700,-0.125
6277,-0.700,-0.130
6278,-0.665,-0.125
6279,-0.660,-0.125
6280,-0.650,-0.105
6281,-0.630,-0.105
6282,-0.600,-0.070
6283,-0.570,-0.080
6284,-0.540,-0.075
6285,-0.525,-0.060
6286,-0.535,-0.060
6287,-0.545,-0.060
6288,-0.540,-0.060
6289,-0.535,-0.035
6290,-0.490,-0.040
6291,-0.500,-0.040
6292,-0.490,-0.035
6293,-0.520,-0.070
6294,-0.550,-0.085
6295,-0.580,-0.115
6296,-0.600,-0.115
6297,-0.625,-0.135
6298,-0.645,-0.130
6299,-0.660,-0.130
6300,-0.675,-0.135
6301,-0.705,-0.175
6302,-0.740,-0.215
6303,-0.780,-0.235
6304,-0.795,-0.265
6305,-0.800,-0.245
6306,-0.810,-0.250
6307,-0.800,-0.240
6308,-0.820,-0.260
6309,-0.830,-0.275
6310,-0.840,-0.290
6311,-0.855,-0.290
6312,-0.860,-0.295
6313,-0.865,-0.290
6314,-0.860,-0.275
6315,-0.850,-0.285
6316,-0.830,-0.285
6317,-0.830,-0.290
6318,-0.840,-0.285
6319,-0.855,-0.305
6320,-0.865,-0.310
6321,-0.880,-0.310
6322,-0.865,-0.295
6323,-0.840,-0.265
6324,-0.840,-0.280
6325,-0.825,-0.280
6326,-0.830,-0.305
6327,-0.840,-0.295
6328,-0.840,-0.290
6329,-0.850,-0.285
6330,-0.855,-0.280
6331,-0.840,-0.270
6332,-0.830,-0.260
6333,-0.820,-0.265
6334,-0.815,-0.270
6335,-0.825,-0.275
6336,-0.830,-0.265
6337,-0.830,-0.270
6338,-0.820,-0.270
6339,-0.800,-0.270
6340,-0.790,-0.240
6341,-0.775,-0.255
6342,-0.785,-0.250
6343,-0.785,-0.265
6344,-0.800,-0.260
6345,-0.805,-0.265
6346,-0.825,-0.265
6347,-0.830,-0.260
6348,-0.815,-0.250
6349,-0.800,-0.230
6350,-0.800,-0.230
6351,-0.795,-0.245
6352,-0.805,-0.255
6353,-0.825,-0.270
6354,-0.845,-0.275
6355,-0.855,-0.280
6356,-0.835,-0.270
6357,-0.830,-0.245
6358,-0.820,-0.240
6359,-0.820,-0.250
6360,-0.845,-0.280
6361,-0.855,-0.305
6362,-0.870,-0.295
6363,-0.870,-0.295
6364,-0.860,-0.270
6365,-0.840,-0.250
6366,-0.835,-0.255
6367,-0.840,-0.270
6368,-0.860,-0.285
6369,-0.865,-0.295
6370,-0.880,-0.305
6371,-0.880,-0.310
6372,-0.875,-0.290
6373,-0.870,-0.300
6374,-0.850,-0.270
6375,-0.845,-0.275
6376,-0.845,-0.285
6377,-0.870,-0.295
6378,-0.885,-0.305
6379,-0.885,-0.310
6380,-0.895,-0.300
6381,-0.885,-0.290
6382,-0.875,-0.295
6383,-0.855,-0.285
6384,-0.850,-0.295
6385,-0.850,-0.290
