'sample interval','MLII','V1'
'0.004 sec','mV','mV'
0,-0.100,0.060
1,-0.135,0.015
2,-0.150,-0.010
3,-0.150,-0.030
4,-0.145,-0.035
5,-0.150,-0.035
6,-0.175,-0.050
7,-0.195,-0.065
8,-0.195,-0.080
9,-0.200,-0.085
10,-0.205,-0.100
11,-0.195,-0.095
12,-0.190,-0.090
13,-0.195,-0.080
14,-0.195,-0.080
15,-0.205,-0.075
16,-0.210,-0.100
17,-0.205,-0.085
18,-0.205,-0.095
19,-0.210,-0.090
20,-0.210,-0.075
21,-0.205,-0.060
22,-0.185,-0.065
23,-0.175,-0.060
24,-0.180,-0.075
25,-0.185,-0.080
26,-0.190,-0.075
27,-0.200,-0.080
28,-0.185,-0.075
29,-0.185,-0.065
30,-0.160,-0.060
31,-0.155,-0.055
32,-0.150,-0.060
33,-0.160,-0.075
34,-0.170,-0.095
35,-0.165,-0.090
36,-0.155,-0.085
37,-0.140,-0.075
38,-0.135,-0.075
39,-0.140,-0.080
40,-0.150,-0.090
41,-0.160,-0.105
42,-0.180,-0.110
43,-0.195,-0.100
44,-0.185,-0.100
45,-0.185,-0.105
46,-0.170,-0.090
47,-0.165,-0.100
48,-0.170,-0.100
49,-0.180,-0.105
50,-0.180,-0.110
51,-0.200,-0.115
52,-0.195,-0.115
53,-0.175,-0.105
54,-0.190,-0.100
55,-0.175,-0.105
56,-0.180,-0.115
57,-0.180,-0.120
58,-0.185,-0.125
59,-0.195,-0.130
60,-0.200,-0.140
61,-0.200,-0.135
62,-0.205,-0.140
63,-0.195,-0.140
64,-0.190,-0.145
65,-0.190,-0.140
66,-0.200,-0.135
67,-0.210,-0.140
68,-0.220,-0.150
69,-0.225,-0.150
70,-0.205,-0.155
71,-0.195,-0.135
72,-0.185,-0.135
73,-0.180,-0.130
74,-0.190,-0.145
75,-0.200,-0.150
76,-0.230,-0.155
77,-0.235,-0.150
78,-0.230,-0.135
79,-0.215,-0.120
80,-0.190,-0.125
81,-0.185,-0.125
82,-0.200,-0.135
83,-0.230,-0.145
84,-0.240,-0.160
85,-0.245,-0.155
86,-0.235,-0.135
87,-0.220,-0.135
88,-0.205,-0.130
89,-0.200,-0.125
90,-0.205,-0.120
91,-0.225,-0.135
92,-0.235,-0.140
93,-0.220,-0.135
94,-0.225,-0.145
95,-0.205,-0.135
96,-0.210,-0.140
97,-0.200,-0.130
98,-0.195,-0.130
99,-0.200,-0.135
100,-0.200,-0.145
101,-0.215,-0.130
102,-0.210,-0.130
103,-0.215,-0.120
104,-0.210,-0.110
105,-0.185,-0.095
106,-0.175,-0.100
107,-0.155,-0.095
108,-0.140,-0.090
109,-0.120,-0.080
110,-0.115,-0.060
111,-0.105,-0.040
112,-0.090,-0.020
113,-0.060,-0.005
114,-0.030,0.010
115,-0.020,0.025
116,-0.020,0.030
117,-0.025,0.020
118,-0.040,0.000
119,-0.065,-0.005
120,-0.065,-0.015
121,-0.060,-0.025
122,-0.060,-0.045
123,-0.070,-0.065
124,-0.105,-0.085
125,-0.110,-0.100
126,-0.155,-0.100
127,-0.160,-0.105
128,-0.155,-0.100
129,-0.165,-0.095
130,-0.165,-0.095
131,-0.175,-0.110
132,-0.185,-0.125
133,-0.190,-0.135
134,-0.200,-0.140
135,-0.185,-0.125
136,-0.155,-0.105
137,-0.130,-0.105
138,-0.105,-0.065
139,-0.095,-0.055
140,-0.100,-0.035
141,-0.100,-0.030
142,-0.085,-0.010
143,-0.070,0.020
144,-0.040,0.060
145,0.000,0.110
146,0.040,0.155
147,0.085,0.180
148,0.130,0.195
149,0.195,0.200
150,0.215,0.195
151,0.315,0.240
152,0.365,0.285
153,0.405,0.345
154,0.445,0.430
155,0.520,0.535
156,0.665,0.680
157,0.870,0.850
158,1.155,1.045
159,1.440,1.170
160,1.670,1.120
161,1.760,0.895
162,1.650,0.530
163,1.345,0.195
164,0.855,-0.050
165,0.190,-0.215
166,-0.510,-0.350
167,-0.965,-0.465
168,-1.070,-0.500
169,-0.875,-0.470
170,-0.555,-0.360
171,-0.295,-0.240
172,-0.160,-0.135
173,-0.135,-0.075
174,-0.195,-0.075
175,-0.215,-0.070
176,-0.290,-0.090
177,-0.285,-0.090
178,-0.265,-0.060
179,-0.240,-0.055
180,-0.225,-0.050
181,-0.225,-0.055
182,-0.225,-0.065
183,-0.240,-0.070
184,-0.245,-0.070
185,-0.245,-0.075
186,-0.235,-0.070
187,-0.225,-0.070
188,-0.215,-0.050
189,-0.210,-0.045
190,-0.205,-0.055
191,-0.215,-0.055
192,-0.225,-0.065
193,-0.225,-0.065
194,-0.235,-0.055
195,-0.210,-0.045
196,-0.220,-0.025
197,-0.205,-0.015
198,-0.205,-0.010
199,-0.210,-0.025
200,-0.215,-0.035
201,-0.220,-0.060
202,-0.205,-0.040
203,-0.195,-0.020
204,-0.195,0.005
205,-0.170,0.025
206,-0.170,0.030
207,-0.150,0.040
208,-0.165,0.035
209,-0.165,0.045
210,-0.165,0.065
211,-0.155,0.100
212,-0.140,0.120
213,-0.115,0.150
214,-0.095,0.155
215,-0.095,0.150
216,-0.105,0.155
217,-0.110,0.145
218,-0.115,0.160
219,-0.125,0.175
220,-0.115,0.205
221,-0.110,0.220
222,-0.100,0.235
223,-0.085,0.240
224,-0.080,0.225
225,-0.080,0.220
226,-0.080,0.195
227,-0.060,0.190
228,-0.050,0.190
229,-0.035,0.185
230,-0.045,0.175
231,-0.060,0.145
232,-0.090,0.100
233,-0.125,0.080
234,-0.130,0.050
235,-0.120,0.025
236,-0.120,0.015
237,-0.120,0.020
238,-0.135,0.005
239,-0.155,-0.010
240,-0.180,-0.025
241,-0.180,-0.045
242,-0.185,-0.060
243,-0.180,-0.070
244,-0.185,-0.070
245,-0.180,-0.065
246,-0.185,-0.065
247,-0.190,-0.055
248,-0.190,-0.060
249,-0.190,-0.055
250,-0.195,-0.060
251,-0.205,-0.080
252,-0.205,-0.065
253,-0.210,-0.065
254,-0.205,-0.070
255,-0.190,-0.065
256,-0.175,-0.065
257,-0.170,-0.070
258,-0.185,-0.075
259,-0.190,-0.080
260,-0.195,-0.075
261,-0.195,-0.075
262,-0.185,-0.055
263,-0.170,-0.050
264,-0.170,-0.040
265,-0.165,-0.050
266,-0.170,-0.065
267,-0.180,-0.085
268,-0.190,-0.075
269,-0.180,-0.075
270,-0.175,-0.070
271,-0.165,-0.060
272,-0.155,-0.060
273,-0.160,-0.070
274,-0.175,-0.075
275,-0.185,-0.080
276,-0.185,-0.110
277,-0.190,-0.110
278,-0.185,-0.110
279,-0.170,-0.095
280,-0.170,-0.095
281,-0.180,-0.090
282,-0.185,-0.100
283,-0.190,-0.120
284,-0.195,-0.125
285,-0.210,-0.130
286,-0.215,-0.120
287,-0.205,-0.120
288,-0.200,-0.115
289,-0.200,-0.110
290,-0.190,-0.115
291,-0.210,-0.145
292,-0.210,-0.145
293,-0.215,-0.155
294,-0.225,-0.140
295,-0.230,-0.130
296,-0.230,-0.120
297,-0.215,-0.125
298,-0.235,-0.125
299,-0.225,-0.135
300,-0.230,-0.140
301,-0.240,-0.165
302,-0.250,-0.155
303,-0.250,-0.135
304,-0.245,-0.135
305,-0.230,-0.125
306,-0.220,-0.125
307,-0.220,-0.135
308,-0.240,-0.155
309,-0.250,-0.165
310,-0.255,-0.180
311,-0.260,-0.170
312,-0.245,-0.155
313,-0.245,-0.150
314,-0.250,-0.140
315,-0.235,-0.140
316,-0.250,-0.155
317,-0.255,-0.165
318,-0.260,-0.175
319,-0.260,-0.175
320,-0.250,-0.165
321,-0.245,-0.145
322,-0.250,-0.135
323,-0.240,-0.130
324,-0.250,-0.155
325,-0.260,-0.155
326,-0.270,-0.170
327,-0.260,-0.180
328,-0.255,-0.160
329,-0.250,-0.160
330,-0.265,-0.155
331,-0.260,-0.150
332,-0.250,-0.165
333,-0.255,-0.150
334,-0.260,-0.160
335,-0.260,-0.165
336,-0.270,-0.155
337,-0.265,-0.155
338,-0.260,-0.135
339,-0.275,-0.130
340,-0.260,-0.135
341,-0.255,-0.150
342,-0.255,-0.155
343,-0.270,-0.165
344,-0.270,-0.155
345,-0.275,-0.130
346,-0.270,-0.125
347,-0.250,-0.130
348,-0.240,-0.125
349,-0.220,-0.115
350,-0.220,-0.120
351,-0.225,-0.095
352,-0.220,-0.075
353,-0.195,-0.065
354,-0.160,-0.040
355,-0.135,-0.050
356,-0.120,-0.025
357,-0.110,-0.025
358,-0.125,-0.030
359,-0.140,-0.020
360,-0.160,-0.030
361,-0.170,-0.040
362,-0.160,-0.050
363,-0.160,-0.060
364,-0.170,-0.090
365,-0.195,-0.100
366,-0.225,-0.120
367,-0.250,-0.140
368,-0.260,-0.135
369,-0.265,-0.140
370,-0.280,-0.135
371,-0.295,-0.135
372,-0.315,-0.145
373,-0.325,-0.140
374,-0.330,-0.160
375,-0.330,-0.160
376,-0.310,-0.175
377,-0.325,-0.175
378,-0.320,-0.165
379,-0.320,-0.160
380,-0.310,-0.165
381,-0.305,-0.160
382,-0.305,-0.155
383,-0.300,-0.165
384,-0.310,-0.170
385,-0.315,-0.165
386,-0.325,-0.155
387,-0.315,-0.155
388,-0.315,-0.150
389,-0.305,-0.150
390,-0.290,-0.140
391,-0.290,-0.145
392,-0.295,-0.155
393,-0.280,-0.120
394,-0.265,-0.090
395,-0.230,-0.020
396,-0.135,0.080
397,0.045,0.200
398,0.290,0.330
399,0.595,0.440
400,0.700,0.475
401,1.200,0.285
402,1.320,-0.065
403,1.200,-0.480
404,0.815,-0.820
405,0.255,-1.045
406,-0.450,-1.160
407,-1.105,-1.220
408,-1.430,-1.220
409,-1.350,-1.095
410,-1.000,-0.905
411,-0.625,-0.675
412,-0.340,-0.445
413,-0.200,-0.240
414,-0.155,-0.090
415,-0.195,-0.035
416,-0.230,-0.010
417,-0.245,-0.005
418,-0.250,0.015
419,-0.225,0.045
420,-0.195,0.080
421,-0.180,0.105
422,-0.175,0.110
423,-0.180,0.115
424,-0.180,0.125
425,-0.185,0.130
426,-0.170,0.145
427,-0.180,0.145
428,-0.165,0.160
429,-0.150,0.165
430,-0.135,0.190
431,-0.135,0.210
432,-0.130,0.225
433,-0.140,0.225
434,-0.130,0.235
435,-0.120,0.245
436,-0.125,0.260
437,-0.110,0.280
438,-0.095,0.295
439,-0.090,0.310
440,-0.065,0.330
441,-0.045,0.350
442,-0.030,0.365
443,-0.035,0.385
444,-0.030,0.420
445,-0.010,0.455
446,0.010,0.490
447,0.040,0.520
448,0.055,0.535
449,0.080,0.570
450,0.085,0.580
451,0.090,0.625
452,0.090,0.660
453,0.125,0.685
454,0.155,0.725
455,0.175,0.755
456,0.185,0.780
457,0.200,0.800
458,0.185,0.805
459,0.175,0.815
460,0.180,0.820
461,0.180,0.830
462,0.190,0.840
463,0.195,0.845
464,0.200,0.835
465,0.185,0.820
466,0.180,0.790
467,0.160,0.765
468,0.155,0.720
469,0.135,0.680
470,0.120,0.620
471,0.105,0.565
472,0.070,0.505
473,0.040,0.455
474,0.020,0.385
475,0.015,0.360
476,-0.045,0.260
477,-0.090,0.215
478,-0.120,0.185
479,-0.135,0.135
480,-0.145,0.115
481,-0.150,0.070
482,-0.175,0.040
483,-0.205,0.010
484,-0.230,-0.010
485,-0.250,-0.025
486,-0.260,-0.030
487,-0.255,-0.030
488,-0.240,-0.030
489,-0.225,-0.025
490,-0.225,-0.025
491,-0.230,-0.030
492,-0.235,-0.045
493,-0.245,-0.055
494,-0.250,-0.035
495,-0.240,-0.030
496,-0.220,-0.015
497,-0.210,-0.010
498,-0.205,-0.020
499,-0.205,-0.020
500,-0.210,-0.025
501,-0.210,-0.025
502,-0.210,-0.030
503,-0.200,-0.020
504,-0.190,-0.020
505,-0.195,-0.005
506,-0.210,-0.005
507,-0.205,-0.015
508,-0.200,-0.030
509,-0.215,-0.040
510,-0.220,-0.050
511,-0.215,-0.055
512,-0.210,-0.040
513,-0.215,-0.030
514,-0.205,-0.025
515,-0.215,-0.030
516,-0.220,-0.055
517,-0.230,-0.060
518,-0.245,-0.075
519,-0.250,-0.080
520,-0.250,-0.080
521,-0.255,-0.070
522,-0.245,-0.075
523,-0.245,-0.085
524,-0.245,-0.095
525,-0.250,-0.100
526,-0.275,-0.105
527,-0.285,-0.110
528,-0.280,-0.110
529,-0.270,-0.110
530,-0.255,-0.110
531,-0.250,-0.110
532,-0.255,-0.110
533,-0.275,-0.125
534,-0.290,-0.125
535,-0.305,-0.125
536,-0.305,-0.130
537,-0.285,-0.115
538,-0.285,-0.105
539,-0.290,-0.110
540,-0.290,-0.125
541,-0.295,-0.130
542,-0.305,-0.150
543,-0.305,-0.160
544,-0.315,-0.160
545,-0.305,-0.160
546,-0.290,-0.160
547,-0.290,-0.140
548,-0.295,-0.135
549,-0.300,-0.145
550,-0.305,-0.145
551,-0.305,-0.160
552,-0.295,-0.155
553,-0.300,-0.150
554,-0.290,-0.135
555,-0.290,-0.135
556,-0.295,-0.135
557,-0.280,-0.130
558,-0.285,-0.155
559,-0.285,-0.165
560,-0.295,-0.165
561,-0.305,-0.155
562,-0.320,-0.160
563,-0.310,-0.150
564,-0.300,-0.145
565,-0.275,-0.145
566,-0.285,-0.150
567,-0.300,-0.170
568,-0.310,-0.165
569,-0.320,-0.160
570,-0.310,-0.155
571,-0.295,-0.150
572,-0.290,-0.145
573,-0.290,-0.155
574,-0.300,-0.165
575,-0.300,-0.175
576,-0.330,-0.190
577,-0.335,-0.180
578,-0.325,-0.175
579,-0.300,-0.160
580,-0.290,-0.170
581,-0.295,-0.165
582,-0.300,-0.185
583,-0.310,-0.185
584,-0.320,-0.195
585,-0.320,-0.190
586,-0.315,-0.175
587,-0.315,-0.165
588,-0.290,-0.150
589,-0.280,-0.130
590,-0.260,-0.125
591,-0.255,-0.115
592,-0.235,-0.120
593,-0.225,-0.115
594,-0.215,-0.110
595,-0.205,-0.075
596,-0.180,-0.055
597,-0.160,-0.050
598,-0.160,-0.045
599,-0.165,-0.055
600,-0.165,-0.060
601,-0.190,-0.090
602,-0.215,-0.100
603,-0.220,-0.115
604,-0.240,-0.125
605,-0.250,-0.130
606,-0.260,-0.145
607,-0.265,-0.150
608,-0.270,-0.155
609,-0.285,-0.180
610,-0.325,-0.180
611,-0.335,-0.200
612,-0.345,-0.205
613,-0.355,-0.205
614,-0.340,-0.205
615,-0.330,-0.215
616,-0.325,-0.220
617,-0.340,-0.230
618,-0.340,-0.225
619,-0.355,-0.220
620,-0.350,-0.205
621,-0.340,-0.200
622,-0.330,-0.190
623,-0.325,-0.210
624,-0.320,-0.205
625,-0.330,-0.205
626,-0.335,-0.205
627,-0.345,-0.195
628,-0.340,-0.185
629,-0.325,-0.170
630,-0.305,-0.160
631,-0.290,-0.160
632,-0.275,-0.165
633,-0.280,-0.145
634,-0.275,-0.120
635,-0.245,-0.055
636,-0.165,0.020
637,0.005,0.140
638,0.235,0.280
639,0.520,0.430
640,0.830,0.525
641,1.105,0.505
642,1.260,0.280
643,1.210,-0.040
644,0.885,-0.385
645,0.360,-0.655
646,-0.280,-0.845
647,-0.895,-0.955
648,-1.285,-1.030
649,-1.345,-1.030
650,-1.310,-1.030
651,-0.855,-0.825
652,-0.580,-0.625
653,-0.395,-0.395
654,-0.290,-0.205
655,-0.255,-0.085
656,-0.245,-0.045
657,-0.260,-0.035
658,-0.255,-0.040
659,-0.265,-0.040
660,-0.260,-0.035
661,-0.240,-0.015
662,-0.235,0.025
663,-0.225,0.020
664,-0.210,0.050
665,-0.185,0.050
666,-0.195,0.055
667,-0.200,0.060
668,-0.190,0.060
669,-0.205,0.080
670,-0.190,0.100
671,-0.175,0.115
672,-0.150,0.125
673,-0.135,0.140
674,-0.130,0.135
675,-0.125,0.140
676,-0.130,0.155
677,-0.115,0.170
678,-0.100,0.180
679,-0.080,0.210
680,-0.055,0.235
681,-0.055,0.255
682,-0.055,0.275
683,-0.045,0.285
684,-0.045,0.295
685,-0.030,0.320
686,-0.015,0.335
687,0.005,0.365
688,0.030,0.405
689,0.040,0.430
690,0.070,0.450
691,0.075,0.475
692,0.075,0.490
693,0.095,0.525
694,0.115,0.555
695,0.140,0.595
696,0.150,0.610
697,0.175,0.630
698,0.185,0.620
699,0.195,0.630
700,0.200,0.630
701,0.190,0.635
702,0.185,0.655
703,0.175,0.660
704,0.170,0.660
705,0.170,0.650
706,0.170,0.640
707,0.160,0.630
708,0.165,0.600
709,0.145,0.565
710,0.120,0.535
711,0.110,0.495
712,0.095,0.470
713,0.065,0.430
714,0.040,0.380
715,0.035,0.320
716,-0.010,0.265
717,-0.050,0.205
718,-0.100,0.160
719,-0.140,0.125
720,-0.175,0.085
721,-0.185,0.060
722,-0.200,0.040
723,-0.215,0.025
724,-0.240,-0.005
725,-0.255,-0.020
726,-0.295,-0.065
727,-0.305,-0.075
728,-0.310,-0.075
729,-0.295,-0.085
730,-0.280,-0.090
731,-0.285,-0.095
732,-0.300,-0.105
733,-0.300,-0.100
734,-0.300,-0.105
735,-0.300,-0.105
736,-0.300,-0.095
737,-0.285,-0.080
738,-0.275,-0.065
739,-0.265,-0.070
740,-0.275,-0.075
741,-0.275,-0.090
742,-0.275,-0.100
743,-0.280,-0.110
744,-0.265,-0.105
745,-0.265,-0.095
746,-0.260,-0.085
747,-0.245,-0.080
748,-0.245,-0.075
749,-0.245,-0.080
750,-0.240,-0.085
751,-0.270,-0.105
752,-0.280,-0.105
753,-0.280,-0.105
754,-0.275,-0.095
755,-0.260,-0.085
756,-0.260,-0.095
757,-0.265,-0.095
758,-0.275,-0.115
759,-0.280,-0.125
760,-0.305,-0.135
761,-0.310,-0.125
762,-0.300,-0.130
763,-0.295,-0.120
764,-0.285,-0.120
765,-0.295,-0.125
766,-0.305,-0.140
767,-0.320,-0.140
768,-0.330,-0.155
769,-0.345,-0.165
770,-0.335,-0.160
771,-0.320,-0.160
772,-0.325,-0.155
773,-0.330,-0.165
774,-0.325,-0.160
775,-0.330,-0.170
776,-0.335,-0.185
777,-0.335,-0.180
778,-0.345,-0.190
779,-0.335,-0.175
780,-0.320,-0.155
781,-0.320,-0.165
782,-0.330,-0.170
783,-0.335,-0.170
784,-0.340,-0.180
785,-0.340,-0.195
786,-0.350,-0.190
787,-0.345,-0.195
788,-0.350,-0.180
789,-0.340,-0.170
790,-0.340,-0.185
791,-0.340,-0.185
792,-0.345,-0.195
793,-0.355,-0.200
794,-0.360,-0.200
795,-0.355,-0.200
796,-0.350,-0.180
797,-0.340,-0.180
798,-0.330,-0.180
799,-0.330,-0.185
800,-0.340,-0.185
801,-0.360,-0.200
802,-0.365,-0.195
803,-0.365,-0.185
804,-0.360,-0.175
805,-0.340,-0.160
806,-0.340,-0.160
807,-0.335,-0.170
808,-0.340,-0.180
809,-0.355,-0.185
810,-0.355,-0.195
811,-0.340,-0.175
812,-0.320,-0.155
813,-0.290,-0.135
814,-0.275,-0.110
815,-0.250,-0.110
816,-0.245,-0.105
817,-0.250,-0.105
818,-0.245,-0.095
819,-0.235,-0.080
820,-0.220,-0.070
821,-0.205,-0.070
822,-0.205,-0.065
823,-0.210,-0.070
824,-0.230,-0.095
825,-0.235,-0.110
826,-0.260,-0.145
827,-0.275,-0.145
828,-0.290,-0.155
829,-0.305,-0.145
830,-0.310,-0.130
831,-0.320,-0.145
832,-0.330,-0.150
833,-0.345,-0.160
834,-0.365,-0.175
835,-0.395,-0.185
836,-0.405,-0.180
837,-0.405,-0.175
838,-0.395,-0.180
839,-0.380,-0.185
840,-0.370,-0.185
841,-0.380,-0.215
842,-0.385,-0.200
843,-0.390,-0.200
844,-0.395,-0.195
845,-0.400,-0.190
846,-0.390,-0.190
847,-0.375,-0.170
848,-0.375,-0.160
849,-0.360,-0.160
850,-0.360,-0.170
851,-0.375,-0.185
852,-0.380,-0.180
853,-0.375,-0.165
854,-0.350,-0.145
855,-0.335,-0.125
856,-0.310,-0.110
857,-0.300,-0.070
858,-0.245,-0.025
859,-0.170,0.045
860,-0.020,0.150
861,0.185,0.290
862,0.440,0.450
863,0.725,0.550
864,0.935,0.515
865,1.055,0.285
866,0.970,-0.055
867,0.635,-0.400
868,0.150,-0.680
869,-0.430,-0.850
870,-0.910,-0.955
871,-1.155,-1.025
872,-1.150,-1.025
873,-1.000,-0.950
874,-0.770,-0.800
875,-0.700,-0.740
876,-0.440,-0.385
877,-0.355,-0.205
878,-0.325,-0.085
879,-0.305,-0.035
880,-0.305,-0.015
881,-0.305,-0.010
882,-0.285,0.010
883,-0.290,0.015
884,-0.275,0.025
885,-0.280,0.040
886,-0.275,0.050
887,-0.265,0.065
888,-0.250,0.090
889,-0.235,0.095
890,-0.225,0.105
891,-0.225,0.105
892,-0.225,0.095
893,-0.215,0.100
894,-0.230,0.115
895,-0.225,0.130
896,-0.200,0.170
897,-0.170,0.200
898,-0.155,0.200
899,-0.150,0.220
900,-0.145,0.215
901,-0.155,0.230
902,-0.155,0.255
903,-0.145,0.270
904,-0.110,0.275
905,-0.090,0.305
906,-0.065,0.320
907,-0.055,0.340
908,-0.040,0.345
909,-0.035,0.370
910,-0.025,0.385
911,0.000,0.415
912,0.025,0.440
913,0.045,0.475
914,0.070,0.510
915,0.080,0.530
916,0.080,0.550
917,0.110,0.575
918,0.115,0.585
919,0.120,0.615
920,0.135,0.640
921,0.155,0.660
922,0.155,0.680
923,0.160,0.685
924,0.170,0.700
925,0.175,0.690
926,0.160,0.685
927,0.150,0.675
928,0.150,0.675
929,0.145,0.670
930,0.135,0.665
931,0.140,0.650
932,0.125,0.615
933,0.115,0.575
934,0.095,0.540
935,0.070,0.495
936,0.050,0.455
937,0.015,0.410
938,-0.010,0.365
939,-0.015,0.340
940,-0.055,0.275
941,-0.075,0.230
942,-0.110,0.180
943,-0.145,0.135
944,-0.180,0.110
945,-0.200,0.090
946,-0.215,0.065
947,-0.230,0.055
948,-0.240,0.030
949,-0.245,0.015
950,-0.255,0.000
951,-0.285,-0.030
952,-0.300,-0.045
953,-0.315,-0.035
954,-0.310,-0.045
955,-0.305,-0.040
956,-0.295,-0.040
957,-0.290,-0.040
958,-0.290,-0.055
959,-0.325,-0.060
960,-0.330,-0.060
961,-0.320,-0.065
962,-0.300,-0.045
963,-0.285,-0.040
964,-0.275,-0.020
965,-0.270,-0.030
966,-0.275,-0.030
967,-0.275,-0.035
968,-0.290,-0.030
969,-0.285,-0.035
970,-0.285,-0.025
971,-0.275,-0.030
972,-0.260,-0.025
973,-0.260,-0.045
974,-0.265,-0.040
975,-0.275,-0.050
976,-0.280,-0.060
977,-0.280,-0.055
978,-0.275,-0.050
979,-0.275,-0.055
980,-0.280,-0.045
981,-0.275,-0.055
982,-0.265,-0.055
983,-0.265,-0.075
984,-0.280,-0.085
985,-0.290,-0.080
986,-0.300,-0.080
987,-0.310,-0.075
988,-0.295,-0.070
989,-0.290,-0.070
990,-0.295,-0.080
991,-0.295,-0.090
992,-0.295,-0.110
993,-0.320,-0.125
994,-0.330,-0.110
995,-0.325,-0.105
996,-0.320,-0.090
997,-0.320,-0.090
998,-0.305,-0.100
999,-0.310,-0.110
1000,-0.315,-0.110
1001,-0.325,-0.135
1002,-0.340,-0.140
1003,-0.345,-0.125
1004,-0.340,-0.115
1005,-0.340,-0.110
1006,-0.320,-0.115
1007,-0.320,-0.120
1008,-0.330,-0.135
1009,-0.335,-0.130
1010,-0.340,-0.140
1011,-0.340,-0.140
1012,-0.330,-0.140
1013,-0.325,-0.125
1014,-0.325,-0.120
1015,-0.325,-0.135
1016,-0.330,-0.130
1017,-0.335,-0.150
1018,-0.340,-0.150
1019,-0.350,-0.145
1020,-0.345,-0.135
1021,-0.345,-0.125
1022,-0.335,-0.115
1023,-0.345,-0.120
1024,-0.340,-0.125
1025,-0.335,-0.120
1026,-0.330,-0.150
1027,-0.340,-0.150
1028,-0.345,-0.135
1029,-0.340,-0.130
1030,-0.345,-0.120
1031,-0.335,-0.110
1032,-0.315,-0.110
1033,-0.320,-0.115
1034,-0.325,-0.120
1035,-0.340,-0.125
1036,-0.330,-0.120
1037,-0.310,-0.100
1038,-0.295,-0.080
1039,-0.265,-0.060
1040,-0.240,-0.050
1041,-0.220,-0.045
1042,-0.225,-0.045
1043,-0.225,-0.045
1044,-0.225,-0.020
1045,-0.215,-0.005
1046,-0.200,-0.005
1047,-0.195,-0.010
1048,-0.200,-0.040
1049,-0.210,-0.045
1050,-0.215,-0.055
1051,-0.260,-0.100
1052,-0.285,-0.115
1053,-0.285,-0.120
1054,-0.300,-0.105
1055,-0.305,-0.110
1056,-0.310,-0.095
1057,-0.330,-0.105
1058,-0.340,-0.120
1059,-0.375,-0.145
1060,-0.385,-0.155
1061,-0.385,-0.155
1062,-0.375,-0.150
1063,-0.350,-0.130
1064,-0.340,-0.105
1065,-0.325,-0.095
1066,-0.305,-0.090
1067,-0.305,-0.080
1068,-0.285,-0.060
1069,-0.260,-0.040
1070,-0.240,0.000
1071,-0.220,0.030
1072,-0.175,0.080
1073,-0.135,0.115
1074,-0.090,0.145
1075,-0.070,0.160
1076,0.010,0.185
1077,0.080,0.215
1078,0.145,0.245
1079,0.210,0.290
1080,0.250,0.350
1081,0.315,0.435
1082,0.415,0.560
1083,0.590,0.720
1084,0.805,0.905
1085,1.090,1.055
1086,1.355,1.090
1087,1.520,0.925
1088,1.510,0.620
1089,1.265,0.285
1090,0.795,0.035
1091,0.150,-0.125
1092,-0.525,-0.285
1093,-1.015,-0.415
1094,-1.140,-0.470
1095,-0.980,-0.465
1096,-0.720,-0.390
1097,-0.495,-0.270
1098,-0.365,-0.185
1099,-0.320,-0.115
1100,-0.330,-0.100
1101,-0.370,-0.105
1102,-0.395,-0.105
1103,-0.400,-0.105
1104,-0.390,-0.100
1105,-0.380,-0.065
1106,-0.365,-0.065
1107,-0.360,-0.065
1108,-0.355,-0.060
1109,-0.365,-0.075
1110,-0.370,-0.075
1111,-0.370,-0.075
1112,-0.370,-0.060
1113,-0.365,-0.040
1114,-0.360,-0.030
1115,-0.345,-0.050
1116,-0.335,-0.050
1117,-0.340,-0.055
1118,-0.350,-0.065
1119,-0.360,-0.055
1120,-0.360,-0.050
1121,-0.350,-0.040
1122,-0.345,-0.030
1123,-0.325,-0.020
1124,-0.325,-0.025
1125,-0.330,-0.030
1126,-0.335,-0.025
1127,-0.345,-0.025
1128,-0.340,-0.015
1129,-0.335,0.000
1130,-0.320,0.010
1131,-0.310,0.030
1132,-0.310,0.035
1133,-0.315,0.040
1134,-0.315,0.035
1135,-0.325,0.045
1136,-0.305,0.070
1137,-0.295,0.085
1138,-0.275,0.100
1139,-0.255,0.120
1140,-0.265,0.130
1141,-0.270,0.155
1142,-0.275,0.150
1143,-0.265,0.165
1144,-0.265,0.185
1145,-0.260,0.185
1146,-0.250,0.195
1147,-0.250,0.205
1148,-0.240,0.230
1149,-0.245,0.230
1150,-0.240,0.235
1151,-0.245,0.225
1152,-0.240,0.200
1153,-0.235,0.190
1154,-0.230,0.190
1155,-0.225,0.190
1156,-0.205,0.180
1157,-0.200,0.165
1158,-0.210,0.120
1159,-0.220,0.110
1160,-0.245,0.070
1161,-0.265,0.065
1162,-0.270,0.045
1163,-0.265,0.045
1164,-0.255,0.040
1165,-0.260,0.025
1166,-0.265,0.000
1167,-0.280,-0.025
1168,-0.305,-0.045
1169,-0.310,-0.055
1170,-0.315,-0.065
1171,-0.305,-0.065
1172,-0.295,-0.055
1173,-0.285,-0.050
1174,-0.295,-0.060
1175,-0.300,-0.065
1176,-0.320,-0.090
1177,-0.325,-0.095
1178,-0.315,-0.085
1179,-0.300,-0.065
1180,-0.290,-0.055
1181,-0.290,-0.050
1182,-0.285,-0.055
1183,-0.295,-0.050
1184,-0.295,-0.055
1185,-0.295,-0.065
1186,-0.295,-0.060
1187,-0.280,-0.040
1188,-0.285,-0.025
1189,-0.265,-0.025
1190,-0.270,-0.030
1191,-0.270,-0.040
1192,-0.285,-0.045
1193,-0.280,-0.055
1194,-0.290,-0.045
1195,-0.285,-0.040
1196,-0.275,-0.025
1197,-0.285,-0.020
1198,-0.275,-0.040
1199,-0.275,-0.040
1200,-0.270,-0.050
1201,-0.295,-0.060
1202,-0.305,-0.065
1203,-0.310,-0.065
1204,-0.310,-0.055
1205,-0.300,-0.060
1206,-0.290,-0.050
1207,-0.290,-0.045
1208,-0.295,-0.060
1209,-0.300,-0.065
1210,-0.310,-0.070
1211,-0.325,-0.070
1212,-0.325,-0.070
1213,-0.320,-0.060
1214,-0.310,-0.055
1215,-0.310,-0.075
1216,-0.310,-0.090
1217,-0.320,-0.095
1218,-0.340,-0.105
1219,-0.360,-0.105
1220,-0.350,-0.115
1221,-0.335,-0.110
1222,-0.330,-0.105
1223,-0.310,-0.100
1224,-0.320,-0.110
1225,-0.325,-0.105
1226,-0.350,-0.110
1227,-0.370,-0.120
1228,-0.380,-0.125
1229,-0.380,-0.115
1230,-0.355,-0.115
1231,-0.345,-0.110
1232,-0.345,-0.110
1233,-0.355,-0.115
1234,-0.365,-0.130
1235,-0.380,-0.155
1236,-0.380,-0.155
1237,-0.370,-0.145
1238,-0.365,-0.135
1239,-0.355,-0.115
1240,-0.360,-0.115
1241,-0.365,-0.130
1242,-0.375,-0.140
1243,-0.375,-0.150
1244,-0.385,-0.155
1245,-0.385,-0.150
1246,-0.375,-0.140
1247,-0.385,-0.140
1248,-0.375,-0.135
1249,-0.375,-0.130
1250,-0.380,-0.135
1251,-0.375,-0.150
1252,-0.385,-0.155
1253,-0.390,-0.145
1254,-0.400,-0.130
1255,-0.400,-0.125
1256,-0.390,-0.130
1257,-0.365,-0.140
1258,-0.380,-0.135
1259,-0.385,-0.135
1260,-0.380,-0.140
1261,-0.390,-0.130
1262,-0.385,-0.115
1263,-0.375,-0.100
1264,-0.350,-0.085
1265,-0.320,-0.080
1266,-0.300,-0.065
1267,-0.300,-0.075
1268,-0.305,-0.065
1269,-0.290,-0.060
1270,-0.280,-0.050
1271,-0.260,-0.035
1272,-0.240,-0.010
1273,-0.230,-0.015
1274,-0.235,-0.015
1275,-0.240,-0.020
1276,-0.275,-0.050
1277,-0.295,-0.070
1278,-0.305,-0.090
1279,-0.310,-0.090
1280,-0.330,-0.080
1281,-0.325,-0.085
1282,-0.350,-0.090
1283,-0.350,-0.105
1284,-0.370,-0.125
1285,-0.390,-0.140
1286,-0.405,-0.145
1287,-0.405,-0.155
1288,-0.400,-0.145
1289,-0.390,-0.140
1290,-0.380,-0.140
1291,-0.355,-0.130
1292,-0.360,-0.140
1293,-0.350,-0.110
1294,-0.330,-0.100
1295,-0.315,-0.070
1296,-0.280,-0.040
1297,-0.255,-0.005
1298,-0.225,0.015
1299,-0.200,0.050
1300,-0.185,0.070
1301,-0.135,0.115
1302,-0.100,0.140
1303,-0.050,0.175
1304,0.020,0.190
1305,0.100,0.225
1306,0.185,0.265
1307,0.220,0.295
1308,0.240,0.345
1309,0.275,0.420
1310,0.375,0.540
1311,0.540,0.710
1312,0.800,0.925
1313,1.095,1.145
1314,1.375,1.250
1315,1.540,1.140
1316,1.535,0.860
1317,1.255,0.465
1318,0.770,0.140
1319,0.120,-0.080
1320,-0.550,-0.240
1321,-1.000,-0.365
1322,-1.145,-0.465
1323,-1.025,-0.490
1324,-0.790,-0.450
1325,-0.715,-0.425
1326,-0.430,-0.270
1327,-0.375,-0.175
1328,-0.375,-0.135
1329,-0.395,-0.115
1330,-0.415,-0.105
1331,-0.420,-0.105
1332,-0.420,-0.105
1333,-0.410,-0.105
1334,-0.405,-0.115
1335,-0.400,-0.120
1336,-0.405,-0.120
1337,-0.405,-0.105
1338,-0.390,-0.105
1339,-0.380,-0.090
1340,-0.380,-0.080
1341,-0.370,-0.080
1342,-0.360,-0.090
1343,-0.370,-0.095
1344,-0.375,-0.115
1345,-0.385,-0.110
1346,-0.400,-0.105
1347,-0.385,-0.080
1348,-0.365,-0.080
1349,-0.365,-0.085
1350,-0.360,-0.080
1351,-0.375,-0.105
1352,-0.390,-0.100
1353,-0.405,-0.090
1354,-0.390,-0.080
1355,-0.375,-0.060
1356,-0.365,-0.060
1357,-0.370,-0.060
1358,-0.375,-0.070
1359,-0.380,-0.065
1360,-0.395,-0.060
1361,-0.380,-0.050
1362,-0.370,-0.035
1363,-0.365,-0.025
1364,-0.330,0.010
1365,-0.330,0.000
1366,-0.335,0.000
1367,-0.330,0.005
1368,-0.325,-0.005
1369,-0.320,0.010
1370,-0.325,0.020
1371,-0.305,0.035
1372,-0.300,0.060
1373,-0.295,0.070
1374,-0.285,0.075
1375,-0.280,0.080
1376,-0.270,0.085
1377,-0.275,0.100
1378,-0.265,0.120
1379,-0.250,0.120
1380,-0.235,0.135
1381,-0.210,0.135
1382,-0.200,0.115
1383,-0.195,0.110
1384,-0.220,0.085
1385,-0.240,0.050
1386,-0.270,0.035
1387,-0.280,0.025
1388,-0.275,0.000
1389,-0.265,0.000
1390,-0.285,-0.025
1391,-0.295,-0.060
1392,-0.300,-0.075
1393,-0.335,-0.090
1394,-0.355,-0.090
1395,-0.350,-0.080
1396,-0.350,-0.080
1397,-0.340,-0.070
1398,-0.340,-0.070
1399,-0.345,-0.085
1400,-0.355,-0.085
1401,-0.360,-0.100
1402,-0.365,-0.105
1403,-0.370,-0.090
1404,-0.355,-0.095
1405,-0.340,-0.075
1406,-0.345,-0.075
1407,-0.345,-0.085
1408,-0.350,-0.085
1409,-0.350,-0.090
1410,-0.360,-0.095
1411,-0.355,-0.095
1412,-0.360,-0.075
1413,-0.350,-0.065
1414,-0.340,-0.055
1415,-0.340,-0.065
1416,-0.335,-0.080
1417,-0.325,-0.095
1418,-0.330,-0.100
1419,-0.340,-0.095
1420,-0.345,-0.090
1421,-0.345,-0.080
1422,-0.325,-0.075
1423,-0.320,-0.070
1424,-0.320,-0.080
1425,-0.315,-0.085
1426,-0.330,-0.100
1427,-0.350,-0.100
1428,-0.365,-0.100
1429,-0.345,-0.090
1430,-0.330,-0.085
1431,-0.325,-0.085
1432,-0.320,-0.085
1433,-0.335,-0.095
1434,-0.345,-0.100
1435,-0.350,-0.115
1436,-0.350,-0.120
1437,-0.355,-0.110
1438,-0.345,-0.120
1439,-0.340,-0.110
1440,-0.340,-0.115
1441,-0.360,-0.130
1442,-0.360,-0.145
1443,-0.375,-0.145
1444,-0.370,-0.145
1445,-0.370,-0.140
1446,-0.365,-0.135
1447,-0.365,-0.125
1448,-0.375,-0.140
1449,-0.370,-0.140
1450,-0.365,-0.145
1451,-0.375,-0.145
1452,-0.380,-0.150
1453,-0.380,-0.140
1454,-0.385,-0.140
1455,-0.385,-0.145
1456,-0.380,-0.135
1457,-0.370,-0.135
1458,-0.365,-0.140
1459,-0.365,-0.140
1460,-0.380,-0.155
1461,-0.395,-0.160
1462,-0.390,-0.150
1463,-0.390,-0.155
1464,-0.375,-0.145
1465,-0.360,-0.150
1466,-0.360,-0.150
1467,-0.365,-0.165
1468,-0.375,-0.175
1469,-0.395,-0.165
1470,-0.390,-0.165
1471,-0.380,-0.145
1472,-0.370,-0.130
1473,-0.355,-0.130
1474,-0.345,-0.150
1475,-0.340,-0.145
1476,-0.360,-0.140
1477,-0.360,-0.140
1478,-0.345,-0.115
1479,-0.320,-0.090
1480,-0.290,-0.065
1481,-0.270,-0.065
1482,-0.255,-0.050
1483,-0.245,-0.045
1484,-0.245,-0.040
1485,-0.245,-0.025
1486,-0.245,-0.030
1487,-0.255,-0.040
1488,-0.270,-0.055
1489,-0.270,-0.070
1490,-0.285,-0.085
1491,-0.295,-0.090
1492,-0.305,-0.110
1493,-0.325,-0.120
1494,-0.355,-0.125
1495,-0.365,-0.125
1496,-0.375,-0.120
1497,-0.385,-0.115
1498,-0.390,-0.125
1499,-0.400,-0.155
1500,-0.405,-0.160
1501,-0.405,-0.165
1502,-0.415,-0.170
1503,-0.400,-0.165
1504,-0.385,-0.155
1505,-0.380,-0.140
1506,-0.345,-0.120
1507,-0.320,-0.095
1508,-0.305,-0.075
1509,-0.290,-0.060
1510,-0.275,-0.035
1511,-0.255,-0.010
1512,-0.220,0.030
1513,-0.175,0.075
1514,-0.125,0.110
1515,-0.070,0.125
1516,-0.030,0.155
1517,0.030,0.175
1518,0.085,0.190
1519,0.140,0.210
1520,0.180,0.250
1521,0.205,0.290
1522,0.250,0.370
1523,0.355,0.485
1524,0.535,0.635
1525,0.605,0.685
1526,1.035,1.005
1527,1.310,1.165
1528,1.520,1.235
1529,1.610,1.120
1530,1.510,0.870
1531,1.155,0.560
1532,0.600,0.300
1533,-0.090,0.080
1534,-0.725,-0.105
1535,-1.085,-0.265
1536,-1.150,-0.385
1537,-1.010,-0.430
1538,-0.800,-0.410
1539,-0.605,-0.330
1540,-0.480,-0.260
1541,-0.415,-0.175
1542,-0.390,-0.140
1543,-0.410,-0.125
1544,-0.420,-0.125
1545,-0.430,-0.125
1546,-0.430,-0.125
1547,-0.415,-0.100
1548,-0.395,-0.090
1549,-0.380,-0.085
1550,-0.385,-0.080
1551,-0.395,-0.110
1552,-0.410,-0.110
1553,-0.405,-0.110
1554,-0.400,-0.100
1555,-0.400,-0.080
1556,-0.385,-0.085
1557,-0.375,-0.075
1558,-0.380,-0.070
1559,-0.385,-0.080
1560,-0.400,-0.095
1561,-0.405,-0.090
1562,-0.410,-0.085
1563,-0.390,-0.065
1564,-0.380,-0.065
1565,-0.370,-0.070
1566,-0.375,-0.070
1567,-0.380,-0.085
1568,-0.390,-0.090
1569,-0.380,-0.095
1570,-0.385,-0.075
1571,-0.375,-0.065
1572,-0.370,-0.040
1573,-0.355,-0.030
1574,-0.360,-0.045
1575,-0.360,-0.050
1576,-0.360,-0.065
1577,-0.370,-0.060
1578,-0.370,-0.050
1579,-0.360,-0.035
1580,-0.340,-0.015
1581,-0.320,0.000
1582,-0.315,0.005
1583,-0.310,0.015
1584,-0.310,0.010
1585,-0.310,0.020
1586,-0.305,0.035
1587,-0.300,0.045
1588,-0.300,0.075
1589,-0.290,0.100
1590,-0.275,0.100
1591,-0.265,0.110
1592,-0.270,0.100
1593,-0.255,0.105
1594,-0.245,0.105
1595,-0.245,0.130
1596,-0.245,0.135
1597,-0.225,0.150
1598,-0.205,0.145
1599,-0.205,0.120
1600,-0.200,0.115
1601,-0.230,0.075
1602,-0.255,0.045
1603,-0.285,0.035
1604,-0.285,0.025
1605,-0.275,0.015
1606,-0.285,0.015
1607,-0.275,0.000
1608,-0.300,-0.010
1609,-0.310,-0.030
1610,-0.340,-0.055
1611,-0.350,-0.055
1612,-0.345,-0.060
1613,-0.330,-0.055
1614,-0.345,-0.050
1615,-0.335,-0.050
1616,-0.335,-0.070
1617,-0.335,-0.060
1618,-0.345,-0.075
1619,-0.360,-0.070
1620,-0.350,-0.075
1621,-0.345,-0.070
1622,-0.335,-0.055
1623,-0.340,-0.045
1624,-0.340,-0.045
1625,-0.345,-0.055
1626,-0.335,-0.065
1627,-0.330,-0.060
1628,-0.325,-0.050
1629,-0.325,-0.045
1630,-0.325,-0.035
1631,-0.315,-0.025
1632,-0.305,-0.030
1633,-0.305,-0.035
1634,-0.315,-0.040
1635,-0.320,-0.050
1636,-0.325,-0.045
1637,-0.325,-0.045
1638,-0.320,-0.025
1639,-0.315,-0.010
1640,-0.305,-0.035
1641,-0.320,-0.035
1642,-0.305,-0.055
1643,-0.310,-0.055
1644,-0.320,-0.065
1645,-0.330,-0.060
1646,-0.340,-0.055
1647,-0.320,-0.050
1648,-0.310,-0.055
1649,-0.305,-0.065
1650,-0.305,-0.065
1651,-0.320,-0.080
1652,-0.335,-0.095
1653,-0.355,-0.090
1654,-0.345,-0.080
1655,-0.335,-0.075
1656,-0.325,-0.080
1657,-0.320,-0.080
1658,-0.335,-0.080
1659,-0.345,-0.095
1660,-0.365,-0.105
1661,-0.375,-0.115
1662,-0.380,-0.105
1663,-0.355,-0.115
1664,-0.355,-0.090
1665,-0.350,-0.090
1666,-0.360,-0.095
1667,-0.375,-0.100
1668,-0.380,-0.110
1669,-0.370,-0.125
1670,-0.365,-0.120
1671,-0.365,-0.110
1672,-0.360,-0.115
1673,-0.375,-0.115
1674,-0.365,-0.120
1675,-0.360,-0.125
1676,-0.365,-0.130
1677,-0.375,-0.130
1678,-0.375,-0.125
1679,-0.375,-0.110
1680,-0.365,-0.110
1681,-0.355,-0.110
1682,-0.350,-0.110
1683,-0.355,-0.125
1684,-0.355,-0.125
1685,-0.370,-0.130
1686,-0.380,-0.135
1687,-0.390,-0.125
1688,-0.370,-0.120
1689,-0.360,-0.110
1690,-0.350,-0.105
1691,-0.345,-0.105
1692,-0.350,-0.110
1693,-0.355,-0.120
1694,-0.365,-0.125
1695,-0.370,-0.125
1696,-0.365,-0.110
1697,-0.370,-0.100
1698,-0.365,-0.095
1699,-0.350,-0.105
1700,-0.350,-0.105
1701,-0.365,-0.130
1702,-0.380,-0.150
1703,-0.390,-0.140
1704,-0.365,-0.110
1705,-0.355,-0.105
1706,-0.335,-0.100
1707,-0.325,-0.115
1708,-0.325,-0.115
1709,-0.325,-0.110
1710,-0.315,-0.095
1711,-0.310,-0.070
1712,-0.295,-0.065
1713,-0.270,-0.055
1714,-0.250,-0.035
1715,-0.240,-0.035
1716,-0.220,-0.015
1717,-0.215,-0.005
1718,-0.225,0.000
1719,-0.230,-0.005
1720,-0.235,-0.010
1721,-0.235,-0.010
1722,-0.245,-0.020
1723,-0.245,-0.030
1724,-0.260,-0.050
1725,-0.260,-0.055
1726,-0.285,-0.090
1727,-0.310,-0.100
1728,-0.315,-0.100
1729,-0.320,-0.080
1730,-0.325,-0.080
1731,-0.335,-0.090
1732,-0.375,-0.105
1733,-0.375,-0.115
1734,-0.375,-0.120
1735,-0.380,-0.130
1736,-0.390,-0.125
1737,-0.370,-0.115
1738,-0.345,-0.100
1739,-0.320,-0.085
1740,-0.290,-0.070
1741,-0.265,-0.045
1742,-0.260,-0.015
1743,-0.245,-0.010
1744,-0.230,0.015
1745,-0.205,0.045
1746,-0.175,0.075
1747,-0.125,0.125
1748,-0.075,0.165
1749,-0.015,0.195
1750,0.005,0.210
1751,0.090,0.230
1752,0.140,0.240
1753,0.185,0.270
1754,0.225,0.320
1755,0.275,0.400
1756,0.365,0.500
1757,0.495,0.635
1758,0.700,0.800
1759,0.950,0.985
1760,1.210,1.145
1761,1.465,1.200
1762,1.615,1.105
1763,1.605,0.830
1764,1.420,0.490
1765,1.030,0.205
1766,0.445,0.015
1767,-0.225,-0.125
1768,-0.835,-0.285
1769,-1.090,-0.395
1770,-1.075,-0.450
1771,-0.860,-0.415
1772,-0.620,-0.330
1773,-0.440,-0.235
1774,-0.350,-0.140
1775,-0.330,-0.115
1776,-0.365,-0.060
1777,-0.380,-0.065
1778,-0.415,-0.065
1779,-0.405,-0.070
1780,-0.395,-0.060
1781,-0.375,-0.045
1782,-0.365,-0.040
1783,-0.360,-0.040
1784,-0.365,-0.050
1785,-0.375,-0.060
1786,-0.375,-0.065
1787,-0.375,-0.055
1788,-0.375,-0.045
1789,-0.365,-0.030
1790,-0.365,-0.030
1791,-0.355,-0.025
1792,-0.355,-0.040
1793,-0.365,-0.050
1794,-0.375,-0.055
1795,-0.380,-0.050
1796,-0.375,-0.030
1797,-0.375,-0.030
1798,-0.365,-0.010
1799,-0.360,-0.015
1800,-0.350,-0.010
1801,-0.360,-0.020
1802,-0.370,-0.025
1803,-0.375,-0.020
1804,-0.375,0.005
1805,-0.370,0.025
1806,-0.350,0.030
1807,-0.335,0.035
1808,-0.335,0.035
1809,-0.340,0.030
1810,-0.340,0.020
1811,-0.355,0.030
1812,-0.345,0.045
1813,-0.325,0.070
1814,-0.305,0.100
1815,-0.285,0.115
1816,-0.270,0.120
1817,-0.280,0.120
1818,-0.285,0.130
1819,-0.280,0.145
1820,-0.280,0.150
1821,-0.260,0.165
1822,-0.250,0.185
1823,-0.235,0.200
1824,-0.225,0.200
1825,-0.225,0.200
1826,-0.240,0.195
1827,-0.250,0.190
1828,-0.240,0.200
1829,-0.240,0.225
1830,-0.210,0.235
1831,-0.195,0.250
1832,-0.200,0.225
1833,-0.200,0.205
1834,-0.205,0.180
1835,-0.225,0.155
1836,-0.225,0.140
1837,-0.240,0.115
1838,-0.245,0.110
1839,-0.255,0.110
1840,-0.265,0.095
1841,-0.275,0.065
1842,-0.290,0.035
1843,-0.305,0.005
1844,-0.320,-0.010
1845,-0.330,-0.005
1846,-0.335,0.000
1847,-0.335,-0.005
1848,-0.330,0.010
1849,-0.325,0.000
1850,-0.320,-0.005
1851,-0.340,-0.040
1852,-0.345,-0.040
1853,-0.355,-0.035
1854,-0.355,-0.020
1855,-0.345,-0.010
1856,-0.340,0.010
1857,-0.325,-0.005
1858,-0.330,-0.005
1859,-0.335,-0.030
1860,-0.350,-0.040
1861,-0.350,-0.040
1862,-0.355,-0.035
1863,-0.340,-0.020
1864,-0.330,-0.005
1865,-0.320,0.000
1866,-0.310,-0.005
1867,-0.310,0.005
1868,-0.320,-0.005
1869,-0.340,-0.010
1870,-0.335,-0.010
1871,-0.320,-0.015
1872,-0.305,-0.010
1873,-0.305,-0.005
1874,-0.295,-0.010
1875,-0.290,-0.005
1876,-0.305,-0.005
1877,-0.310,-0.020
1878,-0.315,-0.025
1879,-0.320,-0.010
1880,-0.305,0.000
1881,-0.295,0.015
1882,-0.295,0.010
1883,-0.310,-0.005
1884,-0.320,-0.035
1885,-0.320,-0.040
1886,-0.320,-0.040
1887,-0.325,-0.025
1888,-0.315,-0.030
1889,-0.310,-0.035
1890,-0.315,-0.040
1891,-0.325,-0.040
1892,-0.325,-0.045
1893,-0.320,-0.050
1894,-0.325,-0.070
1895,-0.335,-0.065
1896,-0.340,-0.065
1897,-0.335,-0.065
1898,-0.320,-0.060
1899,-0.325,-0.060
1900,-0.330,-0.055
1901,-0.320,-0.085
1902,-0.325,-0.095
1903,-0.345,-0.105
1904,-0.350,-0.100
1905,-0.360,-0.095
1906,-0.350,-0.075
1907,-0.345,-0.075
1908,-0.330,-0.085
1909,-0.330,-0.100
1910,-0.340,-0.120
1911,-0.350,-0.110
1912,-0.360,-0.110
1913,-0.350,-0.090
1914,-0.340,-0.075
1915,-0.335,-0.080
1916,-0.330,-0.080
1917,-0.335,-0.095
1918,-0.365,-0.100
1919,-0.375,-0.110
1920,-0.375,-0.105
1921,-0.355,-0.095
1922,-0.335,-0.085
1923,-0.350,-0.070
1924,-0.350,-0.080
1925,-0.365,-0.075
1926,-0.365,-0.090
1927,-0.370,-0.100
1928,-0.365,-0.095
1929,-0.350,-0.085
1930,-0.335,-0.080
1931,-0.345,-0.070
1932,-0.335,-0.055
1933,-0.335,-0.060
1934,-0.335,-0.080
1935,-0.335,-0.105
1936,-0.335,-0.120
1937,-0.335,-0.115
1938,-0.325,-0.100
1939,-0.325,-0.080
1940,-0.320,-0.050
1941,-0.315,-0.055
1942,-0.320,-0.065
1943,-0.320,-0.100
1944,-0.315,-0.125
1945,-0.325,-0.115
1946,-0.320,-0.100
1947,-0.320,-0.090
1948,-0.315,-0.070
1949,-0.305,-0.075
1950,-0.295,-0.080
1951,-0.310,-0.095
1952,-0.310,-0.105
1953,-0.330,-0.105
1954,-0.340,-0.105
1955,-0.320,-0.075
1956,-0.295,-0.055
1957,-0.280,-0.045
1958,-0.265,-0.040
1959,-0.265,-0.040
1960,-0.250,-0.035
1961,-0.245,-0.005
1962,-0.230,0.010
1963,-0.205,0.035
1964,-0.180,0.045
1965,-0.160,0.055
1966,-0.145,0.040
1967,-0.145,0.025
1968,-0.150,0.015
1969,-0.150,0.025
1970,-0.165,0.035
1971,-0.175,0.045
1972,-0.180,0.025
1973,-0.180,-0.005
1974,-0.180,-0.030
1975,-0.185,-0.035
1976,-0.225,-0.045
1977,-0.245,-0.055
1978,-0.255,-0.055
1979,-0.250,-0.060
1980,-0.265,-0.065
1981,-0.290,-0.070
1982,-0.305,-0.095
1983,-0.310,-0.085
1984,-0.305,-0.095
1985,-0.305,-0.100
1986,-0.305,-0.090
1987,-0.295,-0.085
1988,-0.275,-0.065
1989,-0.255,-0.030
1990,-0.230,-0.005
1991,-0.205,0.010
1992,-0.185,0.015
1993,-0.165,0.020
1994,-0.150,0.050
1995,-0.135,0.090
1996,-0.090,0.145
1997,-0.040,0.195
1998,0.025,0.230
1999,0.095,0.250
2000,0.115,0.265
2001,0.215,0.285
2002,0.245,0.305
2003,0.265,0.350
2004,0.305,0.425
2005,0.380,0.535
2006,0.545,0.690
2007,0.765,0.875
2008,1.025,1.095
2009,1.290,1.280
2010,1.500,1.305
2011,1.570,1.120
2012,1.445,0.760
2013,1.110,0.345
2014,0.595,0.050
2015,-0.055,-0.125
2016,-0.655,-0.240
2017,-0.995,-0.350
2018,-1.030,-0.410
2019,-0.840,-0.410
2020,-0.590,-0.335
2021,-0.395,-0.220
2022,-0.295,-0.105
2023,-0.275,-0.045
2024,-0.300,-0.025
2025,-0.310,-0.020
2026,-0.355,-0.060
2027,-0.350,-0.050
2028,-0.335,-0.050
2029,-0.325,-0.020
2030,-0.315,-0.020
2031,-0.310,-0.010
2032,-0.305,-0.005
2033,-0.290,-0.005
2034,-0.290,-0.010
2035,-0.290,-0.020
2036,-0.310,-0.020
2037,-0.320,-0.020
2038,-0.300,-0.005
2039,-0.290,-0.015
2040,-0.290,-0.005
2041,-0.275,-0.015
2042,-0.270,-0.015
2043,-0.290,-0.010
2044,-0.300,-0.015
2045,-0.305,0.000
2046,-0.295,0.015
2047,-0.290,0.025
2048,-0.270,0.030
2049,-0.265,0.035
2050,-0.270,0.035
2051,-0.280,0.050
2052,-0.280,0.040
2053,-0.280,0.035
2054,-0.270,0.040
2055,-0.270,0.050
2056,-0.255,0.070
2057,-0.245,0.090
2058,-0.245,0.085
2059,-0.250,0.080
2060,-0.245,0.090
2061,-0.245,0.100
2062,-0.230,0.110
2063,-0.225,0.120
2064,-0.215,0.135
2065,-0.195,0.150
2066,-0.185,0.170
2067,-0.195,0.175
2068,-0.185,0.185
2069,-0.180,0.190
2070,-0.175,0.210
2071,-0.170,0.220
2072,-0.170,0.225
2073,-0.160,0.235
2074,-0.140,0.240
2075,-0.130,0.245
2076,-0.130,0.250
2077,-0.125,0.245
2078,-0.125,0.260
2079,-0.130,0.255
2080,-0.125,0.255
2081,-0.120,0.220
2082,-0.115,0.180
2083,-0.135,0.140
2084,-0.145,0.120
2085,-0.175,0.095
2086,-0.185,0.090
2087,-0.195,0.080
2088,-0.215,0.075
2089,-0.220,0.065
2090,-0.200,0.055
2091,-0.190,0.035
2092,-0.205,0.015
2093,-0.230,0.010
2094,-0.245,0.010
2095,-0.255,0.025
2096,-0.245,0.020
2097,-0.255,0.010
2098,-0.245,0.010
2099,-0.235,-0.005
2100,-0.235,0.000
2101,-0.255,-0.005
2102,-0.265,-0.020
2103,-0.270,-0.020
2104,-0.270,-0.010
2105,-0.250,-0.015
2106,-0.240,0.000
2107,-0.240,0.005
2108,-0.245,0.015
2109,-0.250,0.005
2110,-0.270,-0.010
2111,-0.275,-0.020
2112,-0.270,-0.020
2113,-0.260,-0.005
2114,-0.240,0.015
2115,-0.230,0.010
2116,-0.225,0.005
2117,-0.230,0.005
2118,-0.235,-0.005
2119,-0.240,-0.010
2120,-0.235,-0.010
2121,-0.240,-0.005
2122,-0.230,-0.005
2123,-0.230,-0.005
2124,-0.235,0.005
2125,-0.240,0.010
2126,-0.220,0.005
2127,-0.225,-0.005
2128,-0.245,-0.010
2129,-0.255,-0.010
2130,-0.230,-0.005
2131,-0.230,-0.005
2132,-0.225,0.000
2133,-0.215,-0.015
2134,-0.220,-0.025
2135,-0.230,-0.035
2136,-0.245,-0.030
2137,-0.250,-0.025
2138,-0.260,-0.035
2139,-0.240,-0.050
2140,-0.230,-0.050
2141,-0.240,-0.040
2142,-0.230,-0.050
2143,-0.245,-0.065
2144,-0.270,-0.075
2145,-0.280,-0.085
2146,-0.270,-0.085
2147,-0.265,-0.065
2148,-0.250,-0.050
2149,-0.245,-0.060
2150,-0.250,-0.070
2151,-0.265,-0.090
2152,-0.280,-0.095
2153,-0.290,-0.085
2154,-0.295,-0.065
2155,-0.285,-0.050
2156,-0.265,-0.055
2157,-0.260,-0.080
2158,-0.270,-0.090
2159,-0.275,-0.095
2160,-0.295,-0.100
2161,-0.305,-0.090
2162,-0.305,-0.085
2163,-0.290,-0.080
2164,-0.285,-0.085
2165,-0.290,-0.070
2166,-0.300,-0.075
2167,-0.300,-0.085
2168,-0.295,-0.115
2169,-0.290,-0.130
2170,-0.285,-0.130
2171,-0.285,-0.090
2172,-0.290,-0.080
2173,-0.285,-0.070
2174,-0.285,-0.090
2175,-0.280,-0.100
2176,-0.275,-0.120
2177,-0.275,-0.120
2178,-0.275,-0.115
2179,-0.285,-0.100
2180,-0.280,-0.085
2181,-0.275,-0.085
2182,-0.260,-0.085
2183,-0.260,-0.090
2184,-0.255,-0.095
2185,-0.270,-0.100
2186,-0.275,-0.095
2187,-0.285,-0.085
2188,-0.285,-0.080
2189,-0.270,-0.060
2190,-0.255,-0.075
2191,-0.255,-0.085
2192,-0.250,-0.085
2193,-0.265,-0.090
2194,-0.280,-0.085
2195,-0.280,-0.065
2196,-0.275,-0.075
2197,-0.260,-0.080
2198,-0.250,-0.075
2199,-0.250,-0.085
2200,-0.255,-0.080
2201,-0.265,-0.090
2202,-0.285,-0.110
2203,-0.280,-0.120
2204,-0.275,-0.120
2205,-0.265,-0.100
2206,-0.265,-0.090
2207,-0.275,-0.070
2208,-0.270,-0.075
2209,-0.275,-0.080
2210,-0.275,-0.085
2211,-0.285,-0.095
2212,-0.270,-0.085
2213,-0.245,-0.060
2214,-0.210,-0.030
2215,-0.210,-0.020
2216,-0.200,-0.015
2217,-0.195,-0.030
2218,-0.170,-0.025
2219,-0.155,-0.015
2220,-0.155,0.015
2221,-0.145,0.040
2222,-0.135,0.050
2223,-0.145,0.055
2224,-0.125,0.030
2225,-0.130,0.020
2226,-0.145,-0.030
2227,-0.170,-0.050
2228,-0.190,-0.065
2229,-0.210,-0.060
2230,-0.230,-0.050
2231,-0.225,-0.050
2232,-0.220,-0.055
2233,-0.220,-0.060
2234,-0.230,-0.070
2235,-0.270,-0.090
2236,-0.295,-0.100
2237,-0.310,-0.085
2238,-0.300,-0.085
2239,-0.270,-0.080
2240,-0.250,-0.065
2241,-0.235,-0.055
2242,-0.225,-0.050
2243,-0.235,-0.045
2244,-0.220,-0.035
2245,-0.195,-0.010
2246,-0.165,0.015
2247,-0.135,0.040
2248,-0.110,0.075
2249,-0.065,0.115
2250,-0.050,0.135
2251,-0.005,0.195
2252,0.055,0.220
2253,0.120,0.240
2254,0.190,0.265
2255,0.250,0.290
2256,0.305,0.330
2257,0.350,0.385
2258,0.400,0.460
2259,0.500,0.570
2260,0.650,0.720
2261,0.865,0.940
2262,1.115,1.145
2263,1.380,1.260
2264,1.540,1.140
2265,1.520,0.800
2266,1.315,0.375
2267,0.895,0.030
2268,0.305,-0.180
2269,-0.335,-0.280
2270,-0.825,-0.370
2271,-1.000,-0.410
2272,-0.895,-0.410
2273,-0.650,-0.330
2274,-0.390,-0.235
2275,-0.320,-0.200
2276,-0.215,-0.075
2277,-0.255,-0.055
2278,-0.290,-0.045
2279,-0.315,-0.035
2280,-0.300,-0.030
2281,-0.290,-0.015
2282,-0.270,-0.005
2283,-0.260,-0.010
2284,-0.270,-0.005
2285,-0.280,0.000
2286,-0.285,0.005
2287,-0.270,0.015
2288,-0.265,0.005
2289,-0.265,-0.005
2290,-0.255,0.010
2291,-0.255,-0.005
2292,-0.260,0.015
2293,-0.270,0.000
2294,-0.270,0.000
2295,-0.270,0.010
2296,-0.265,0.035
2297,-0.255,0.050
2298,-0.250,0.055
2299,-0.240,0.055
2300,-0.245,0.050
2301,-0.245,0.035
2302,-0.250,0.025
2303,-0.255,0.035
2304,-0.265,0.030
2305,-0.255,0.060
2306,-0.250,0.080
2307,-0.235,0.090
2308,-0.230,0.100
2309,-0.235,0.105
2310,-0.235,0.105
2311,-0.235,0.115
2312,-0.225,0.130
2313,-0.215,0.160
2314,-0.195,0.180
2315,-0.190,0.190
2316,-0.190,0.195
2317,-0.170,0.200
2318,-0.175,0.200
2319,-0.170,0.205
2320,-0.175,0.240
2321,-0.160,0.255
2322,-0.160,0.270
2323,-0.140,0.285
2324,-0.135,0.290
2325,-0.135,0.290
2326,-0.140,0.280
2327,-0.145,0.280
2328,-0.150,0.285
2329,-0.135,0.295
2330,-0.125,0.285
2331,-0.115,0.270
2332,-0.120,0.245
2333,-0.130,0.220
2334,-0.140,0.200
2335,-0.155,0.175
2336,-0.165,0.160
2337,-0.190,0.120
2338,-0.185,0.095
2339,-0.210,0.080
2340,-0.210,0.055
2341,-0.200,0.050
2342,-0.215,0.040
2343,-0.220,0.025
2344,-0.240,0.015
2345,-0.250,0.010
2346,-0.260,0.000
2347,-0.260,0.005
2348,-0.245,0.000
2349,-0.245,0.005
2350,-0.240,0.010
2351,-0.260,-0.010
2352,-0.270,-0.025
2353,-0.280,-0.025
2354,-0.270,-0.010
2355,-0.290,0.010
2356,-0.265,0.015
2357,-0.240,0.005
2358,-0.250,0.000
2359,-0.245,0.005
2360,-0.255,0.000
2361,-0.270,-0.010
2362,-0.275,-0.015
2363,-0.255,-0.020
2364,-0.240,-0.020
2365,-0.225,-0.020
2366,-0.230,-0.005
2367,-0.225,-0.005
2368,-0.225,-0.010
2369,-0.255,-0.005
2370,-0.245,-0.015
2371,-0.235,-0.010
2372,-0.225,-0.010
2373,-0.210,-0.010
2374,-0.220,-0.010
2375,-0.215,-0.020
2376,-0.230,-0.005
2377,-0.240,-0.005
2378,-0.245,-0.020
2379,-0.235,-0.020
2380,-0.225,-0.020
2381,-0.220,-0.010
2382,-0.225,-0.010
2383,-0.215,-0.025
2384,-0.225,-0.045
2385,-0.240,-0.050
2386,-0.245,-0.070
2387,-0.250,-0.065
2388,-0.250,-0.055
2389,-0.255,-0.050
2390,-0.245,-0.045
2391,-0.245,-0.040
2392,-0.235,-0.050
2393,-0.240,-0.070
2394,-0.255,-0.095
2395,-0.260,-0.095
2396,-0.260,-0.085
2397,-0.270,-0.085
2398,-0.260,-0.075
2399,-0.260,-0.075
2400,-0.265,-0.070
2401,-0.270,-0.095
2402,-0.270,-0.105
2403,-0.285,-0.105
2404,-0.295,-0.105
2405,-0.280,-0.100
2406,-0.280,-0.085
2407,-0.270,-0.070
2408,-0.265,-0.085
2409,-0.265,-0.090
2410,-0.280,-0.110
2411,-0.290,-0.125
2412,-0.300,-0.120
2413,-0.290,-0.120
2414,-0.280,-0.115
2415,-0.275,-0.105
2416,-0.270,-0.115
2417,-0.280,-0.125
2418,-0.295,-0.140
2419,-0.305,-0.140
2420,-0.300,-0.125
2421,-0.305,-0.105
2422,-0.290,-0.110
2423,-0.280,-0.110
2424,-0.285,-0.110
2425,-0.280,-0.110
2426,-0.295,-0.130
2427,-0.295,-0.130
2428,-0.300,-0.125
2429,-0.310,-0.120
2430,-0.290,-0.110
2431,-0.275,-0.100
2432,-0.275,-0.095
2433,-0.275,-0.100
2434,-0.275,-0.115
2435,-0.285,-0.120
2436,-0.290,-0.140
2437,-0.295,-0.130
2438,-0.290,-0.110
2439,-0.280,-0.095
2440,-0.275,-0.105
2441,-0.280,-0.130
2442,-0.275,-0.135
2443,-0.280,-0.145
2444,-0.285,-0.140
2445,-0.300,-0.135
2446,-0.295,-0.125
2447,-0.295,-0.120
2448,-0.280,-0.105
2449,-0.280,-0.105
2450,-0.275,-0.105
2451,-0.275,-0.115
2452,-0.300,-0.130
2453,-0.295,-0.140
2454,-0.300,-0.130
2455,-0.300,-0.135
2456,-0.295,-0.125
2457,-0.285,-0.115
2458,-0.285,-0.120
2459,-0.280,-0.120
2460,-0.295,-0.120
2461,-0.305,-0.120
2462,-0.305,-0.120
2463,-0.290,-0.120
2464,-0.285,-0.120
2465,-0.270,-0.105
2466,-0.270,-0.130
2467,-0.275,-0.120
2468,-0.280,-0.130
2469,-0.290,-0.130
2470,-0.285,-0.120
2471,-0.260,-0.105
2472,-0.240,-0.085
2473,-0.225,-0.075
2474,-0.215,-0.060
2475,-0.205,-0.055
2476,-0.200,-0.050
2477,-0.190,-0.040
2478,-0.175,-0.035
2479,-0.155,-0.015
2480,-0.140,0.000
2481,-0.140,0.020
2482,-0.135,0.010
2483,-0.145,0.000
2484,-0.175,-0.020
2485,-0.190,-0.040
2486,-0.185,-0.065
2487,-0.210,-0.090
2488,-0.220,-0.090
2489,-0.230,-0.095
2490,-0.245,-0.100
2491,-0.245,-0.095
2492,-0.250,-0.105
2493,-0.260,-0.110
2494,-0.300,-0.135
2495,-0.330,-0.145
2496,-0.335,-0.145
2497,-0.325,-0.145
2498,-0.305,-0.125
2499,-0.285,-0.125
2500,-0.290,-0.125
2501,-0.280,-0.125
2502,-0.275,-0.110
2503,-0.260,-0.095
2504,-0.245,-0.060
2505,-0.210,-0.035
2506,-0.165,-0.005
2507,-0.135,0.020
2508,-0.110,0.030
2509,-0.085,0.065
2510,-0.055,0.090
2511,-0.010,0.120
2512,0.040,0.165
2513,0.135,0.205
2514,0.205,0.245
2515,0.260,0.270
2516,0.290,0.290
2517,0.340,0.365
2518,0.425,0.450
2519,0.570,0.580
2520,0.780,0.745
2521,1.055,0.925
2522,1.350,1.085
2523,1.600,1.135
2524,1.705,0.970
2525,1.715,0.885
2526,1.245,0.340
2527,0.670,0.060
2528,-0.040,-0.130
2529,-0.670,-0.275
2530,-0.995,-0.400
2531,-1.010,-0.465
2532,-0.830,-0.470
2533,-0.600,-0.400
2534,-0.420,-0.295
2535,-0.335,-0.205
2536,-0.310,-0.140
2537,-0.320,-0.090
2538,-0.345,-0.085
2539,-0.365,-0.080
2540,-0.345,-0.080
2541,-0.320,-0.065
2542,-0.325,-0.065
2543,-0.310,-0.085
2544,-0.320,-0.100
2545,-0.340,-0.105
2546,-0.340,-0.090
2547,-0.330,-0.085
2548,-0.310,-0.050
2549,-0.305,-0.055
2550,-0.305,-0.050
2551,-0.315,-0.070
2552,-0.330,-0.080
2553,-0.325,-0.090
2554,-0.335,-0.070
2555,-0.320,-0.070
2556,-0.310,-0.060
2557,-0.300,-0.045
2558,-0.305,-0.040
2559,-0.310,-0.055
2560,-0.325,-0.065
2561,-0.325,-0.060
2562,-0.330,-0.060
2563,-0.320,-0.050
2564,-0.310,-0.035
2565,-0.305,-0.035
2566,-0.315,-0.035
2567,-0.300,-0.020
2568,-0.310,-0.035
2569,-0.310,-0.040
2570,-0.320,-0.035
2571,-0.310,-0.015
2572,-0.305,0.005
2573,-0.290,0.030
2574,-0.295,0.040
2575,-0.290,0.035
2576,-0.280,0.025
2577,-0.270,0.030
2578,-0.275,0.030
2579,-0.270,0.040
2580,-0.260,0.060
2581,-0.255,0.065
2582,-0.250,0.085
2583,-0.245,0.100
2584,-0.245,0.105
2585,-0.250,0.110
2586,-0.240,0.115
2587,-0.235,0.130
2588,-0.225,0.125
2589,-0.205,0.140
2590,-0.180,0.145
2591,-0.160,0.145
2592,-0.160,0.150
2593,-0.165,0.150
2594,-0.195,0.115
2595,-0.205,0.100
2596,-0.210,0.075
2597,-0.205,0.070
2598,-0.225,0.080
2599,-0.220,0.060
2600,-0.215,0.045
2601,-0.240,0.005
2602,-0.265,-0.015
2603,-0.290,-0.040
2604,-0.285,-0.035
2605,-0.275,-0.035
2606,-0.275,-0.025
2607,-0.270,-0.030
2608,-0.280,-0.040
2609,-0.280,-0.045
2610,-0.300,-0.065
2611,-0.300,-0.065
2612,-0.305,-0.065
2613,-0.295,-0.060
2614,-0.290,-0.050
2615,-0.280,-0.045
2616,-0.285,-0.045
2617,-0.295,-0.045
2618,-0.295,-0.060
2619,-0.300,-0.065
2620,-0.280,-0.065
2621,-0.280,-0.055
2622,-0.265,-0.040
2623,-0.285,-0.015
2624,-0.270,-0.025
2625,-0.270,-0.030
2626,-0.255,-0.035
2627,-0.250,-0.035
2628,-0.255,-0.030
2629,-0.265,-0.010
2630,-0.255,-0.015
2631,-0.245,-0.005
2632,-0.235,-0.020
2633,-0.240,-0.020
2634,-0.235,-0.025
2635,-0.235,-0.040
2636,-0.250,-0.045
2637,-0.260,-0.060
2638,-0.255,-0.045
2639,-0.250,-0.035
2640,-0.235,-0.025
2641,-0.220,-0.025
2642,-0.220,-0.025
2643,-0.230,-0.035
2644,-0.250,-0.050
2645,-0.260,-0.060
2646,-0.255,-0.055
2647,-0.255,-0.050
2648,-0.240,-0.055
2649,-0.235,-0.050
2650,-0.235,-0.060
2651,-0.260,-0.055
2652,-0.280,-0.065
2653,-0.305,-0.075
2654,-0.290,-0.070
2655,-0.285,-0.070
2656,-0.280,-0.060
2657,-0.270,-0.060
2658,-0.280,-0.045
2659,-0.285,-0.065
2660,-0.285,-0.075
2661,-0.285,-0.100
2662,-0.280,-0.100
2663,-0.285,-0.090
2664,-0.280,-0.095
2665,-0.285,-0.085
2666,-0.290,-0.075
2667,-0.290,-0.090
2668,-0.290,-0.100
2669,-0.305,-0.115
2670,-0.320,-0.120
2671,-0.310,-0.095
2672,-0.310,-0.090
2673,-0.295,-0.085
2674,-0.295,-0.090
2675,-0.290,-0.100
2676,-0.290,-0.115
2677,-0.300,-0.110
2678,-0.305,-0.115
2679,-0.305,-0.090
2680,-0.305,-0.085
2681,-0.295,-0.070
2682,-0.285,-0.060
2683,-0.285,-0.080
2684,-0.285,-0.085
2685,-0.295,-0.090
2686,-0.305,-0.105
2687,-0.305,-0.100
2688,-0.315,-0.090
2689,-0.300,-0.075
2690,-0.295,-0.055
2691,-0.290,-0.050
2692,-0.290,-0.065
2693,-0.305,-0.090
2694,-0.315,-0.095
2695,-0.310,-0.100
2696,-0.290,-0.085
2697,-0.275,-0.060
2698,-0.240,-0.035
2699,-0.230,-0.020
2700,-0.225,-0.015
2701,-0.225,-0.020
2702,-0.230,-0.030
2703,-0.215,-0.025
2704,-0.200,0.000
2705,-0.175,0.010
2706,-0.160,0.035
2707,-0.140,0.050
2708,-0.145,0.040
2709,-0.165,0.030
2710,-0.165,0.005
2711,-0.185,-0.015
2712,-0.205,-0.040
2713,-0.225,-0.045
2714,-0.240,-0.050
2715,-0.240,-0.050
2716,-0.250,-0.060
2717,-0.250,-0.050
2718,-0.255,-0.065
2719,-0.285,-0.085
2720,-0.320,-0.085
2721,-0.340,-0.085
2722,-0.340,-0.100
2723,-0.330,-0.095
2724,-0.300,-0.100
2725,-0.295,-0.105
2726,-0.280,-0.085
2727,-0.290,-0.075
2728,-0.280,-0.060
2729,-0.265,-0.040
2730,-0.235,-0.015
2731,-0.190,0.015
2732,-0.170,0.045
2733,-0.130,0.070
2734,-0.105,0.090
2735,-0.075,0.120
2736,-0.030,0.160
2737,0.030,0.195
2738,0.105,0.235
2739,0.175,0.285
2740,0.235,0.315
2741,0.280,0.345
2742,0.320,0.400
2743,0.395,0.505
2744,0.575,0.640
2745,0.835,0.840
2746,1.150,1.020
2747,1.455,1.120
2748,1.660,1.055
2749,1.660,0.780
2750,1.630,0.680
2751,0.945,0.130
2752,0.265,-0.100
2753,-0.470,-0.245
2754,-1.010,-0.360
2755,-1.145,-0.400
2756,-0.945,-0.395
2757,-0.620,-0.315
2758,-0.370,-0.220
2759,-0.245,-0.125
2760,-0.245,-0.075
2761,-0.305,-0.065
2762,-0.350,-0.055
2763,-0.360,-0.055
2764,-0.350,-0.035
2765,-0.315,-0.020
2766,-0.295,-0.015
2767,-0.320,-0.025
2768,-0.315,-0.025
2769,-0.315,-0.030
2770,-0.310,-0.020
2771,-0.310,-0.010
2772,-0.305,0.010
2773,-0.285,0.010
2774,-0.290,0.015
2775,-0.285,0.000
2776,-0.290,-0.015
2777,-0.295,-0.020
2778,-0.295,-0.015
2779,-0.300,0.010
2780,-0.295,0.035
2781,-0.285,0.035
2782,-0.280,0.030
2783,-0.285,0.010
2784,-0.280,0.015
2785,-0.280,0.015
2786,-0.280,0.020
2787,-0.290,0.030
2788,-0.285,0.040
2789,-0.275,0.060
2790,-0.260,0.080
2791,-0.265,0.095
2792,-0.245,0.105
2793,-0.235,0.115
2794,-0.235,0.110
2795,-0.240,0.120
2796,-0.245,0.130
2797,-0.225,0.160
2798,-0.215,0.190
2799,-0.190,0.205
2800,-0.180,0.210
2801,-0.180,0.210
2802,-0.190,0.215
2803,-0.185,0.200
2804,-0.195,0.210
2805,-0.175,0.240
2806,-0.155,0.255
2807,-0.145,0.270
2808,-0.145,0.275
2809,-0.140,0.275
2810,-0.145,0.255
2811,-0.150,0.255
2812,-0.155,0.245
2813,-0.150,0.250
2814,-0.150,0.235
2815,-0.140,0.235
2816,-0.145,0.200
2817,-0.150,0.175
2818,-0.170,0.140
2819,-0.195,0.110
2820,-0.220,0.090
2821,-0.225,0.075
2822,-0.235,0.060
2823,-0.245,0.050
2824,-0.250,0.040
2825,-0.255,0.030
2826,-0.260,0.000
2827,-0.270,-0.020
2828,-0.280,-0.035
2829,-0.280,-0.030
2830,-0.300,-0.025
2831,-0.295,-0.030
2832,-0.285,-0.030
2833,-0.280,-0.040
2834,-0.270,-0.040
2835,-0.285,-0.055
2836,-0.290,-0.060
2837,-0.300,-0.050
2838,-0.300,-0.045
2839,-0.295,-0.040
2840,-0.285,-0.030
2841,-0.280,-0.040
2842,-0.270,-0.035
2843,-0.285,-0.045
2844,-0.290,-0.050
2845,-0.300,-0.050
2846,-0.310,-0.055
2847,-0.295,-0.040
2848,-0.275,-0.030
2849,-0.265,-0.020
2850,-0.260,-0.015
2851,-0.275,-0.020
2852,-0.290,-0.020
2853,-0.290,-0.025
2854,-0.280,-0.025
2855,-0.280,-0.025
2856,-0.275,-0.025
2857,-0.255,-0.015
2858,-0.260,-0.030
2859,-0.260,-0.025
2860,-0.275,-0.040
2861,-0.275,-0.050
2862,-0.285,-0.050
2863,-0.270,-0.045
2864,-0.260,-0.035
2865,-0.260,-0.030
2866,-0.260,-0.045
2867,-0.255,-0.055
2868,-0.265,-0.055
2869,-0.275,-0.075
2870,-0.280,-0.075
2871,-0.280,-0.070
2872,-0.280,-0.065
2873,-0.280,-0.070
2874,-0.270,-0.065
2875,-0.270,-0.070
2876,-0.270,-0.070
2877,-0.275,-0.085
2878,-0.290,-0.080
2879,-0.290,-0.080
2880,-0.295,-0.070
2881,-0.285,-0.065
2882,-0.275,-0.055
2883,-0.280,-0.070
2884,-0.280,-0.085
2885,-0.285,-0.095
2886,-0.295,-0.105
2887,-0.315,-0.095
2888,-0.315,-0.080
2889,-0.310,-0.085
2890,-0.300,-0.080
2891,-0.290,-0.100
2892,-0.290,-0.100
2893,-0.305,-0.105
2894,-0.310,-0.105
2895,-0.320,-0.105
2896,-0.325,-0.095
2897,-0.320,-0.095
2898,-0.305,-0.085
2899,-0.290,-0.095
2900,-0.295,-0.100
2901,-0.290,-0.110
2902,-0.310,-0.110
2903,-0.310,-0.105
2904,-0.315,-0.105
2905,-0.305,-0.105
2906,-0.300,-0.100
2907,-0.290,-0.080
2908,-0.285,-0.095
2909,-0.295,-0.095
2910,-0.300,-0.110
2911,-0.310,-0.105
2912,-0.305,-0.095
2913,-0.295,-0.085
2914,-0.275,-0.075
2915,-0.270,-0.080
2916,-0.255,-0.090
2917,-0.270,-0.080
2918,-0.265,-0.105
2919,-0.265,-0.105
2920,-0.265,-0.115
2921,-0.245,-0.085
2922,-0.225,-0.060
2923,-0.205,-0.030
2924,-0.185,-0.025
2925,-0.180,-0.030
2926,-0.195,-0.030
2927,-0.210,-0.020
2928,-0.190,-0.020
2929,-0.180,0.000
2930,-0.170,0.030
2931,-0.160,0.035
2932,-0.155,0.050
2933,-0.160,0.030
2934,-0.160,0.005
2935,-0.165,-0.020
2936,-0.175,-0.030
2937,-0.190,-0.040
2938,-0.205,-0.040
2939,-0.205,-0.050
2940,-0.200,-0.050
2941,-0.180,-0.055
2942,-0.185,-0.060
2943,-0.200,-0.065
2944,-0.245,-0.085
2945,-0.300,-0.095
2946,-0.335,-0.110
2947,-0.355,-0.105
2948,-0.360,-0.110
2949,-0.345,-0.100
2950,-0.335,-0.105
2951,-0.310,-0.105
2952,-0.310,-0.115
2953,-0.325,-0.110
2954,-0.325,-0.115
2955,-0.310,-0.105
2956,-0.290,-0.105
2957,-0.265,-0.105
2958,-0.260,-0.095
2959,-0.250,-0.085
2960,-0.235,-0.100
2961,-0.255,-0.110
2962,-0.295,-0.105
2963,-0.325,-0.100
2964,-0.330,-0.090
2965,-0.320,-0.065
2966,-0.290,-0.060
2967,-0.260,-0.030
2968,-0.225,0.000
2969,-0.140,0.070
2970,0.010,0.160
2971,0.255,0.280
2972,0.560,0.420
2973,0.890,0.525
2974,1.180,0.475
2975,1.260,0.425
2976,1.275,-0.130
2977,0.950,-0.530
2978,0.430,-0.810
2979,-0.205,-0.975
2980,-0.835,-1.050
2981,-1.245,-1.055
2982,-1.325,-1.005
2983,-1.055,-0.885
2984,-0.700,-0.720
2985,-0.415,-0.515
2986,-0.235,-0.320
2987,-0.185,-0.165
2988,-0.195,-0.055
2989,-0.205,0.015
2990,-0.215,0.060
2991,-0.200,0.075
2992,-0.190,0.060
2993,-0.165,0.070
2994,-0.145,0.075
2995,-0.125,0.080
2996,-0.110,0.095
2997,-0.130,0.110
2998,-0.150,0.135
2999,-0.165,0.130
3000,-0.165,0.125
3001,-0.130,0.140
3002,-0.095,0.145
3003,-0.065,0.150
3004,-0.085,0.155
3005,-0.110,0.185
3006,-0.135,0.210
3007,-0.120,0.250
3008,-0.095,0.255
3009,-0.090,0.265
3010,-0.075,0.265
3011,-0.070,0.290
3012,-0.050,0.305
3013,-0.030,0.330
3014,0.000,0.370
3015,0.025,0.405
3016,0.045,0.440
3017,0.060,0.445
3018,0.075,0.455
3019,0.085,0.470
3020,0.095,0.505
3021,0.110,0.550
3022,0.135,0.580
3023,0.175,0.610
3024,0.200,0.650
3025,0.210,0.660
3026,0.225,0.700
3027,0.240,0.720
3028,0.245,0.745
3029,0.260,0.760
3030,0.270,0.775
3031,0.295,0.800
3032,0.300,0.815
3033,0.280,0.835
3034,0.280,0.830
3035,0.290,0.825
3036,0.300,0.810
3037,0.295,0.795
3038,0.280,0.780
3039,0.235,0.770
3040,0.225,0.730
3041,0.230,0.680
3042,0.210,0.640
3043,0.190,0.585
3044,0.150,0.535
3045,0.125,0.480
3046,0.090,0.425
3047,0.055,0.370
3048,0.045,0.330
3049,0.035,0.280
3050,0.030,0.260
3051,-0.045,0.170
3052,-0.095,0.115
3053,-0.115,0.075
3054,-0.135,0.055
3055,-0.135,0.035
3056,-0.125,0.035
3057,-0.135,0.030
3058,-0.155,0.020
3059,-0.200,0.010
3060,-0.240,0.000
3061,-0.245,-0.010
3062,-0.260,-0.025
3063,-0.250,-0.040
3064,-0.260,-0.060
3065,-0.245,-0.050
3066,-0.240,-0.040
3067,-0.230,-0.040
3068,-0.235,-0.035
3069,-0.250,-0.045
3070,-0.265,-0.035
3071,-0.270,-0.040
3072,-0.260,-0.025
3073,-0.260,-0.015
3074,-0.240,-0.010
3075,-0.245,-0.015
3076,-0.235,-0.015
3077,-0.225,-0.020
3078,-0.245,-0.015
3079,-0.260,0.000
3080,-0.260,0.005
3081,-0.245,0.010
3082,-0.230,-0.005
3083,-0.220,-0.030
3084,-0.225,-0.030
3085,-0.225,-0.035
3086,-0.225,-0.050
3087,-0.225,-0.045
3088,-0.235,-0.045
3089,-0.220,-0.035
3090,-0.205,-0.035
3091,-0.195,-0.035
3092,-0.195,-0.040
3093,-0.230,-0.055
3094,-0.270,-0.065
3095,-0.270,-0.070
3096,-0.270,-0.075
3097,-0.250,-0.070
3098,-0.250,-0.075
3099,-0.255,-0.065
3100,-0.260,-0.065
3101,-0.270,-0.090
3102,-0.290,-0.110
3103,-0.305,-0.110
3104,-0.305,-0.115
3105,-0.305,-0.100
3106,-0.285,-0.085
3107,-0.280,-0.085
3108,-0.290,-0.090
3109,-0.310,-0.110
3110,-0.320,-0.125
3111,-0.315,-0.135
3112,-0.300,-0.135
3113,-0.310,-0.135
3114,-0.305,-0.130
3115,-0.290,-0.110
3116,-0.275,-0.110
3117,-0.285,-0.130
3118,-0.310,-0.140
3119,-0.320,-0.150
3120,-0.325,-0.160
3121,-0.315,-0.150
3122,-0.310,-0.135
3123,-0.310,-0.120
3124,-0.320,-0.125
3125,-0.320,-0.135
3126,-0.305,-0.145
3127,-0.300,-0.145
3128,-0.300,-0.140
3129,-0.315,-0.145
3130,-0.320,-0.135
3131,-0.315,-0.130
3132,-0.320,-0.110
3133,-0.305,-0.120
3134,-0.305,-0.125
3135,-0.315,-0.140
3136,-0.325,-0.145
3137,-0.330,-0.150
3138,-0.340,-0.145
3139,-0.335,-0.130
3140,-0.335,-0.120
3141,-0.310,-0.125
3142,-0.300,-0.135
3143,-0.305,-0.135
3144,-0.325,-0.145
3145,-0.335,-0.150
3146,-0.320,-0.140
3147,-0.300,-0.135
3148,-0.285,-0.120
3149,-0.260,-0.100
3150,-0.250,-0.095
3151,-0.240,-0.070
3152,-0.240,-0.060
3153,-0.225,-0.065
3154,-0.195,-0.055
3155,-0.165,-0.045
3156,-0.170,-0.035
3157,-0.200,-0.035
3158,-0.205,-0.035
3159,-0.210,-0.045
3160,-0.195,-0.060
3161,-0.185,-0.065
3162,-0.200,-0.070
3163,-0.210,-0.085
3164,-0.230,-0.085
3165,-0.225,-0.090
3166,-0.235,-0.105
3167,-0.250,-0.095
3168,-0.260,-0.105
3169,-0.270,-0.120
3170,-0.300,-0.120
3171,-0.315,-0.145
3172,-0.330,-0.140
3173,-0.330,-0.150
3174,-0.345,-0.150
3175,-0.340,-0.160
3176,-0.340,-0.165
3177,-0.340,-0.170
3178,-0.350,-0.185
3179,-0.355,-0.175
3180,-0.335,-0.180
3181,-0.325,-0.160
3182,-0.325,-0.135
3183,-0.325,-0.150
3184,-0.345,-0.140
3185,-0.365,-0.155
3186,-0.375,-0.165
3187,-0.360,-0.185
3188,-0.355,-0.165
3189,-0.355,-0.145
3190,-0.350,-0.130
3191,-0.350,-0.125
3192,-0.340,-0.135
3193,-0.345,-0.130
3194,-0.340,-0.115
3195,-0.325,-0.090
3196,-0.270,-0.025
3197,-0.155,0.065
3198,0.050,0.185
3199,0.320,0.305
3200,0.405,0.345
3201,0.905,0.485
3202,1.120,0.390
3203,1.205,0.115
3204,1.060,-0.260
3205,0.705,-0.625
3206,0.200,-0.870
3207,-0.380,-1.030
3208,-0.945,-1.105
3209,-1.335,-1.130
3210,-1.320,-1.085
3211,-1.065,-0.975
3212,-0.740,-0.795
3213,-0.465,-0.575
3214,-0.280,-0.365
3215,-0.215,-0.185
3216,-0.220,-0.065
3217,-0.250,-0.030
3218,-0.280,-0.010
3219,-0.290,0.000
3220,-0.290,-0.005
3221,-0.265,0.020
3222,-0.255,0.050
3223,-0.235,0.080
3224,-0.225,0.085
3225,-0.220,0.090
3226,-0.215,0.110
3227,-0.215,0.120
3228,-0.210,0.120
3229,-0.195,0.135
3230,-0.185,0.135
3231,-0.190,0.150
3232,-0.190,0.165
3233,-0.190,0.165
3234,-0.175,0.170
3235,-0.155,0.170
3236,-0.145,0.175
3237,-0.140,0.195
3238,-0.130,0.220
3239,-0.120,0.245
3240,-0.130,0.280
3241,-0.110,0.290
3242,-0.080,0.305
3243,-0.070,0.320
3244,-0.055,0.320
3245,-0.065,0.340
3246,-0.065,0.375
3247,-0.050,0.425
3248,-0.020,0.460
3249,0.010,0.495
3250,0.015,0.500
3251,0.045,0.535
3252,0.050,0.550
3253,0.060,0.585
3254,0.075,0.625
3255,0.105,0.665
3256,0.125,0.695
3257,0.160,0.730
3258,0.185,0.740
3259,0.190,0.745
3260,0.190,0.750
3261,0.190,0.760
3262,0.205,0.760
3263,0.210,0.775
3264,0.225,0.785
3265,0.235,0.800
3266,0.235,0.790
3267,0.235,0.780
3268,0.225,0.745
3269,0.210,0.705
3270,0.190,0.655
3271,0.185,0.620
3272,0.155,0.595
3273,0.145,0.540
3274,0.125,0.510
3275,0.115,0.495
3276,0.055,0.390
3277,0.030,0.325
3278,0.020,0.260
3279,-0.005,0.205
3280,-0.050,0.165
3281,-0.100,0.135
3282,-0.160,0.095
3283,-0.185,0.060
3284,-0.185,0.030
3285,-0.200,-0.005
3286,-0.220,-0.025
3287,-0.230,-0.045
3288,-0.255,-0.045
3289,-0.255,-0.050
3290,-0.245,-0.040
3291,-0.230,-0.045
3292,-0.230,-0.060
3293,-0.250,-0.075
3294,-0.260,-0.095
3295,-0.250,-0.095
3296,-0.240,-0.095
3297,-0.240,-0.090
3298,-0.245,-0.070
3299,-0.235,-0.065
3300,-0.230,-0.065
3301,-0.225,-0.065
3302,-0.255,-0.085
3303,-0.265,-0.085
3304,-0.275,-0.075
3305,-0.260,-0.065
3306,-0.250,-0.050
3307,-0.220,-0.030
3308,-0.225,-0.050
3309,-0.225,-0.045
3310,-0.240,-0.055
3311,-0.250,-0.065
3312,-0.245,-0.065
3313,-0.245,-0.060
3314,-0.230,-0.050
3315,-0.225,-0.050
3316,-0.220,-0.055
3317,-0.205,-0.060
3318,-0.235,-0.070
3319,-0.230,-0.085
3320,-0.235,-0.095
3321,-0.245,-0.105
3322,-0.235,-0.100
3323,-0.220,-0.095
3324,-0.225,-0.085
3325,-0.225,-0.090
3326,-0.230,-0.115
3327,-0.240,-0.120
3328,-0.250,-0.145
3329,-0.265,-0.145
3330,-0.270,-0.150
3331,-0.275,-0.135
3332,-0.260,-0.120
3333,-0.245,-0.120
3334,-0.245,-0.140
3335,-0.250,-0.145
3336,-0.260,-0.160
3337,-0.260,-0.145
3338,-0.270,-0.125
3339,-0.290,-0.120
3340,-0.295,-0.105
3341,-0.295,-0.115
3342,-0.295,-0.125
3343,-0.295,-0.145
3344,-0.295,-0.180
3345,-0.295,-0.190
3346,-0.295,-0.180
3347,-0.285,-0.175
3348,-0.285,-0.170
3349,-0.275,-0.160
3350,-0.275,-0.155
3351,-0.290,-0.170
3352,-0.305,-0.180
3353,-0.310,-0.190
3354,-0.325,-0.200
3355,-0.330,-0.190
3356,-0.315,-0.180
3357,-0.310,-0.165
3358,-0.300,-0.170
3359,-0.320,-0.170
3360,-0.320,-0.180
3361,-0.320,-0.185
3362,-0.335,-0.190
3363,-0.335,-0.175
3364,-0.340,-0.160
3365,-0.345,-0.145
3366,-0.330,-0.145
3367,-0.325,-0.160
3368,-0.330,-0.180
3369,-0.325,-0.195
3370,-0.325,-0.200
3371,-0.330,-0.190
3372,-0.325,-0.170
3373,-0.310,-0.160
3374,-0.295,-0.150
3375,-0.280,-0.160
3376,-0.270,-0.155
3377,-0.270,-0.160
3378,-0.275,-0.170
3379,-0.265,-0.145
3380,-0.255,-0.130
3381,-0.220,-0.110
3382,-0.185,-0.100
3383,-0.160,-0.085
3384,-0.150,-0.065
3385,-0.150,-0.065
3386,-0.155,-0.055
3387,-0.175,-0.060
3388,-0.185,-0.055
3389,-0.170,-0.060
3390,-0.185,-0.065
3391,-0.190,-0.095
3392,-0.210,-0.110
3393,-0.220,-0.130
3394,-0.250,-0.150
3395,-0.275,-0.150
3396,-0.285,-0.135
3397,-0.295,-0.140
3398,-0.310,-0.150
3399,-0.330,-0.160
3400,-0.335,-0.165
3401,-0.350,-0.195
3402,-0.370,-0.220
3403,-0.380,-0.230
3404,-0.375,-0.235
3405,-0.370,-0.220
3406,-0.365,-0.205
3407,-0.360,-0.195
3408,-0.355,-0.190
3409,-0.340,-0.190
3410,-0.335,-0.195
3411,-0.340,-0.205
3412,-0.335,-0.215
3413,-0.355,-0.205
3414,-0.345,-0.180
3415,-0.340,-0.170
3416,-0.315,-0.160
3417,-0.310,-0.170
3418,-0.305,-0.165
3419,-0.320,-0.170
3420,-0.335,-0.150
3421,-0.285,-0.095
3422,-0.185,-0.015
3423,-0.005,0.090
3424,0.240,0.225
3425,0.325,0.275
3426,0.860,0.505
3427,1.145,0.520
3428,1.285,0.340
3429,1.180,0.000
3430,0.790,-0.395
3431,0.165,-0.710
3432,-0.545,-0.920
3433,-1.130,-1.015
3434,-1.440,-1.075
3435,-1.360,-1.080
3436,-1.070,-1.015
3437,-0.750,-0.875
3438,-0.500,-0.670
3439,-0.340,-0.455
3440,-0.260,-0.270
3441,-0.235,-0.140
3442,-0.240,-0.095
3443,-0.255,-0.080
3444,-0.260,-0.070
3445,-0.250,-0.070
3446,-0.235,-0.055
3447,-0.245,-0.020
3448,-0.240,0.010
3449,-0.220,0.030
3450,-0.215,0.035
3451,-0.190,0.030
3452,-0.180,0.030
3453,-0.185,0.035
3454,-0.190,0.055
3455,-0.180,0.080
3456,-0.155,0.085
3457,-0.135,0.085
3458,-0.115,0.080
3459,-0.120,0.075
3460,-0.115,0.100
3461,-0.115,0.100
3462,-0.100,0.115
3463,-0.105,0.120
3464,-0.105,0.130
3465,-0.110,0.160
3466,-0.095,0.205
3467,-0.075,0.220
3468,-0.050,0.230
3469,-0.040,0.240
3470,-0.045,0.235
3471,-0.040,0.265
3472,-0.010,0.295
3473,0.025,0.320
3474,0.050,0.365
3475,0.060,0.385
3476,0.090,0.400
3477,0.090,0.425
3478,0.105,0.440
3479,0.115,0.475
3480,0.140,0.505
3481,0.160,0.550
3482,0.185,0.585
3483,0.215,0.600
3484,0.215,0.595
3485,0.225,0.585
3486,0.225,0.585
3487,0.220,0.595
3488,0.225,0.595
3489,0.235,0.605
3490,0.240,0.610
3491,0.250,0.605
3492,0.245,0.595
3493,0.245,0.580
3494,0.220,0.535
3495,0.210,0.495
3496,0.180,0.470
3497,0.170,0.435
3498,0.145,0.390
3499,0.125,0.355
3500,0.120,0.340
3501,0.065,0.240
3502,0.020,0.175
3503,-0.015,0.125
3504,-0.065,0.080
3505,-0.100,0.055
3506,-0.115,0.025
3507,-0.140,0.015
3508,-0.165,-0.010
3509,-0.185,-0.030
3510,-0.205,-0.070
3511,-0.240,-0.095
3512,-0.250,-0.120
3513,-0.265,-0.130
3514,-0.260,-0.130
3515,-0.245,-0.120
3516,-0.240,-0.125
3517,-0.240,-0.130
3518,-0.240,-0.140
3519,-0.260,-0.155
3520,-0.270,-0.165
3521,-0.270,-0.155
3522,-0.275,-0.140
3523,-0.260,-0.130
3524,-0.245,-0.115
3525,-0.235,-0.120
3526,-0.240,-0.125
3527,-0.245,-0.120
3528,-0.255,-0.145
3529,-0.265,-0.130
3530,-0.265,-0.115
3531,-0.260,-0.125
3532,-0.265,-0.105
3533,-0.245,-0.115
3534,-0.245,-0.120
3535,-0.245,-0.130
3536,-0.250,-0.145
3537,-0.235,-0.155
3538,-0.250,-0.155
3539,-0.260,-0.145
3540,-0.265,-0.130
3541,-0.280,-0.125
3542,-0.275,-0.140
3543,-0.265,-0.150
3544,-0.280,-0.150
3545,-0.305,-0.160
3546,-0.310,-0.170
3547,-0.330,-0.155
3548,-0.325,-0.155
3549,-0.300,-0.150
3550,-0.295,-0.150
3551,-0.305,-0.150
3552,-0.315,-0.175
3553,-0.325,-0.180
3554,-0.330,-0.190
3555,-0.325,-0.180
3556,-0.325,-0.180
3557,-0.300,-0.185
3558,-0.310,-0.195
3559,-0.305,-0.205
3560,-0.315,-0.210
3561,-0.325,-0.215
3562,-0.345,-0.215
3563,-0.340,-0.215
3564,-0.325,-0.200
3565,-0.315,-0.215
3566,-0.310,-0.220
3567,-0.315,-0.215
3568,-0.315,-0.220
3569,-0.345,-0.235
3570,-0.345,-0.225
3571,-0.345,-0.235
3572,-0.340,-0.225
3573,-0.335,-0.215
3574,-0.325,-0.210
3575,-0.325,-0.215
3576,-0.335,-0.205
3577,-0.325,-0.220
3578,-0.310,-0.250
3579,-0.335,-0.240
3580,-0.360,-0.230
3581,-0.365,-0.210
3582,-0.370,-0.195
3583,-0.345,-0.200
3584,-0.320,-0.200
3585,-0.305,-0.210
3586,-0.295,-0.205
3587,-0.280,-0.195
3588,-0.285,-0.190
3589,-0.280,-0.160
3590,-0.250,-0.150
3591,-0.215,-0.125
3592,-0.205,-0.115
3593,-0.190,-0.120
3594,-0.200,-0.125
3595,-0.215,-0.135
3596,-0.235,-0.135
3597,-0.260,-0.145
3598,-0.250,-0.150
3599,-0.240,-0.155
3600,-0.235,-0.160
3601,-0.270,-0.165
3602,-0.305,-0.185
3603,-0.325,-0.205
3604,-0.345,-0.205
3605,-0.345,-0.220
3606,-0.350,-0.215
3607,-0.355,-0.215
3608,-0.375,-0.235
3609,-0.385,-0.245
3610,-0.385,-0.255
3611,-0.385,-0.275
3612,-0.390,-0.275
3613,-0.380,-0.285
3614,-0.370,-0.260
3615,-0.365,-0.245
3616,-0.360,-0.235
3617,-0.380,-0.255
3618,-0.375,-0.250
3619,-0.370,-0.260
3620,-0.360,-0.270
3621,-0.365,-0.255
3622,-0.355,-0.250
3623,-0.360,-0.235
3624,-0.345,-0.220
3625,-0.340,-0.210
3626,-0.325,-0.210
3627,-0.325,-0.210
3628,-0.325,-0.220
3629,-0.320,-0.205
3630,-0.270,-0.155
3631,-0.170,-0.080
3632,-0.005,0.010
3633,0.210,0.160
3634,0.480,0.305
3635,0.795,0.430
3636,1.100,0.485
3637,1.260,0.350
3638,1.165,0.065
3639,0.765,-0.290
3640,0.110,-0.605
3641,-0.630,-0.815
3642,-1.210,-0.955
3643,-1.445,-1.050
3644,-1.310,-1.065
3645,-1.015,-1.000
3646,-0.720,-0.850
3647,-0.480,-0.620
3648,-0.335,-0.400
3649,-0.285,-0.225
3650,-0.275,-0.185
3651,-0.290,-0.110
3652,-0.300,-0.100
3653,-0.310,-0.110
3654,-0.295,-0.085
3655,-0.270,-0.060
3656,-0.265,-0.040
3657,-0.270,-0.015
3658,-0.265,-0.010
3659,-0.255,-0.010
3660,-0.235,-0.010
3661,-0.225,-0.010
3662,-0.220,-0.005
3663,-0.210,0.010
3664,-0.220,0.025
3665,-0.205,0.035
3666,-0.175,0.055
3667,-0.160,0.055
3668,-0.145,0.070
3669,-0.140,0.070
3670,-0.155,0.080
3671,-0.150,0.095
3672,-0.150,0.135
3673,-0.120,0.165
3674,-0.090,0.180
3675,-0.080,0.185
3676,-0.055,0.200
3677,-0.040,0.210
3678,-0.030,0.210
3679,-0.030,0.235
3680,-0.010,0.275
3681,0.025,0.305
3682,0.055,0.340
3683,0.085,0.375
3684,0.095,0.410
3685,0.105,0.430
3686,0.115,0.440
3687,0.125,0.465
3688,0.140,0.485
3689,0.170,0.525
3690,0.175,0.550
3691,0.190,0.575
3692,0.195,0.575
3693,0.195,0.580
3694,0.200,0.565
3695,0.205,0.570
3696,0.200,0.560
3697,0.200,0.570
3698,0.200,0.570
3699,0.200,0.555
3700,0.195,0.550
3701,0.170,0.505
3702,0.155,0.475
3703,0.130,0.430
3704,0.095,0.400
3705,0.055,0.360
3706,0.040,0.310
3707,0.010,0.260
3708,-0.030,0.215
3709,-0.060,0.175
3710,-0.105,0.120
3711,-0.150,0.065
3712,-0.190,0.015
3713,-0.230,0.010
3714,-0.235,-0.005
3715,-0.245,-0.030
3716,-0.260,-0.060
3717,-0.280,-0.085
3718,-0.280,-0.105
3719,-0.305,-0.120
3720,-0.310,-0.140
3721,-0.325,-0.135
3722,-0.335,-0.130
3723,-0.325,-0.140
3724,-0.320,-0.125
3725,-0.310,-0.125
3726,-0.325,-0.140
3727,-0.330,-0.140
3728,-0.345,-0.160
3729,-0.330,-0.145
3730,-0.330,-0.140
3731,-0.310,-0.130
3732,-0.305,-0.120
3733,-0.300,-0.110
3734,-0.295,-0.105
3735,-0.290,-0.115
3736,-0.310,-0.120
3737,-0.310,-0.145
3738,-0.320,-0.145
3739,-0.320,-0.145
3740,-0.310,-0.115
3741,-0.290,-0.105
3742,-0.305,-0.110
3743,-0.295,-0.125
3744,-0.300,-0.140
3745,-0.310,-0.140
3746,-0.320,-0.140
3747,-0.320,-0.135
3748,-0.315,-0.130
3749,-0.300,-0.135
3750,-0.295,-0.140
3751,-0.295,-0.150
3752,-0.300,-0.160
3753,-0.330,-0.170
3754,-0.350,-0.185
3755,-0.355,-0.180
3756,-0.365,-0.180
3757,-0.355,-0.170
3758,-0.345,-0.160
3759,-0.350,-0.160
3760,-0.350,-0.180
3761,-0.370,-0.195
3762,-0.390,-0.210
3763,-0.385,-0.200
3764,-0.385,-0.185
3765,-0.390,-0.180
3766,-0.390,-0.165
3767,-0.380,-0.175
3768,-0.385,-0.190
3769,-0.390,-0.205
3770,-0.395,-0.210
3771,-0.400,-0.210
3772,-0.395,-0.195
3773,-0.400,-0.200
3774,-0.400,-0.185
3775,-0.390,-0.180
3776,-0.380,-0.190
3777,-0.385,-0.215
3778,-0.385,-0.220
3779,-0.385,-0.215
3780,-0.395,-0.205
3781,-0.390,-0.195
3782,-0.385,-0.190
3783,-0.370,-0.180
3784,-0.355,-0.190
3785,-0.345,-0.190
3786,-0.360,-0.200
3787,-0.365,-0.205
3788,-0.355,-0.195
3789,-0.325,-0.170
3790,-0.310,-0.150
3791,-0.265,-0.135
3792,-0.255,-0.130
3793,-0.245,-0.130
3794,-0.260,-0.140
3795,-0.265,-0.140
3796,-0.270,-0.120
3797,-0.265,-0.105
3798,-0.255,-0.120
3799,-0.240,-0.115
3800,-0.235,-0.115
3801,-0.240,-0.135
3802,-0.265,-0.160
3803,-0.295,-0.175
3804,-0.335,-0.190
3805,-0.350,-0.190
3806,-0.345,-0.185
3807,-0.345,-0.175
3808,-0.325,-0.180
3809,-0.325,-0.190
3810,-0.355,-0.210
3811,-0.390,-0.225
3812,-0.415,-0.250
3813,-0.420,-0.240
3814,-0.415,-0.215
3815,-0.405,-0.210
3816,-0.385,-0.190
3817,-0.370,-0.175
3818,-0.345,-0.165
3819,-0.325,-0.170
3820,-0.300,-0.165
3821,-0.290,-0.140
3822,-0.275,-0.095
3823,-0.245,-0.055
3824,-0.195,-0.020
3825,-0.175,-0.005
3826,-0.090,0.040
3827,-0.045,0.055
3828,-0.010,0.080
3829,0.045,0.110
3830,0.110,0.140
3831,0.165,0.175
3832,0.220,0.205
3833,0.280,0.270
3834,0.380,0.355
3835,0.545,0.490
3836,0.770,0.660
3837,1.050,0.860
3838,1.350,1.045
3839,1.600,1.105
3840,1.680,0.980
3841,1.585,0.685
3842,1.190,0.330
3843,0.610,0.025
3844,-0.130,-0.185
3845,-0.805,-0.350
3846,-1.165,-0.480
3847,-1.170,-0.565
3848,-0.945,-0.570
3849,-0.660,-0.480
3850,-0.580,-0.445
3851,-0.360,-0.270
3852,-0.345,-0.200
3853,-0.370,-0.180
3854,-0.400,-0.175
3855,-0.415,-0.185
3856,-0.410,-0.185
3857,-0.400,-0.165
3858,-0.410,-0.160
3859,-0.405,-0.150
3860,-0.390,-0.155
3861,-0.380,-0.165
3862,-0.370,-0.175
3863,-0.375,-0.165
3864,-0.370,-0.170
3865,-0.365,-0.160
3866,-0.370,-0.170
3867,-0.360,-0.155
3868,-0.350,-0.165
3869,-0.345,-0.175
3870,-0.350,-0.175
3871,-0.360,-0.170
3872,-0.360,-0.150
3873,-0.355,-0.150
3874,-0.350,-0.150
3875,-0.345,-0.150
3876,-0.330,-0.160
3877,-0.340,-0.155
3878,-0.345,-0.165
3879,-0.350,-0.155
3880,-0.345,-0.150
3881,-0.340,-0.140
3882,-0.335,-0.130
3883,-0.325,-0.105
3884,-0.320,-0.100
3885,-0.325,-0.100
3886,-0.335,-0.110
3887,-0.335,-0.110
3888,-0.335,-0.100
3889,-0.320,-0.085
3890,-0.290,-0.060
3891,-0.275,-0.040
3892,-0.280,-0.040
3893,-0.275,-0.020
3894,-0.275,-0.010
3895,-0.275,-0.005
3896,-0.280,0.000
3897,-0.260,0.025
3898,-0.250,0.040
3899,-0.235,0.040
3900,-0.225,0.050
3901,-0.235,0.055
3902,-0.230,0.050
3903,-0.240,0.055
3904,-0.235,0.080
3905,-0.235,0.070
3906,-0.220,0.085
3907,-0.215,0.110
3908,-0.205,0.090
3909,-0.205,0.090
3910,-0.215,0.065
3911,-0.225,0.030
3912,-0.235,0.010
3913,-0.245,-0.020
3914,-0.260,-0.050
3915,-0.270,-0.060
3916,-0.275,-0.065
3917,-0.280,-0.085
3918,-0.280,-0.110
3919,-0.295,-0.130
3920,-0.315,-0.150
3921,-0.330,-0.165
3922,-0.345,-0.155
3923,-0.345,-0.140
3924,-0.355,-0.140
3925,-0.345,-0.140
3926,-0.330,-0.145
3927,-0.330,-0.165
3928,-0.335,-0.170
3929,-0.345,-0.175
3930,-0.365,-0.160
3931,-0.355,-0.155
3932,-0.335,-0.145
3933,-0.325,-0.135
3934,-0.320,-0.140
3935,-0.315,-0.145
3936,-0.320,-0.155
3937,-0.330,-0.165
3938,-0.340,-0.160
3939,-0.345,-0.135
3940,-0.330,-0.130
3941,-0.310,-0.125
3942,-0.305,-0.125
3943,-0.290,-0.135
3944,-0.305,-0.150
3945,-0.340,-0.155
3946,-0.330,-0.145
3947,-0.320,-0.130
3948,-0.305,-0.140
3949,-0.295,-0.135
3950,-0.295,-0.125
3951,-0.315,-0.120
3952,-0.330,-0.130
3953,-0.330,-0.145
3954,-0.330,-0.150
3955,-0.330,-0.165
3956,-0.330,-0.155
3957,-0.325,-0.140
3958,-0.325,-0.145
3959,-0.330,-0.140
3960,-0.335,-0.145
3961,-0.355,-0.155
3962,-0.370,-0.155
3963,-0.385,-0.160
3964,-0.385,-0.160
3965,-0.370,-0.165
3966,-0.365,-0.155
3967,-0.360,-0.160
3968,-0.360,-0.175
3969,-0.360,-0.180
3970,-0.370,-0.190
3971,-0.365,-0.190
3972,-0.370,-0.185
3973,-0.370,-0.180
3974,-0.360,-0.170
3975,-0.345,-0.175
3976,-0.350,-0.185
3977,-0.360,-0.185
3978,-0.375,-0.200
3979,-0.395,-0.200
3980,-0.405,-0.200
3981,-0.390,-0.190
3982,-0.370,-0.185
3983,-0.360,-0.180
3984,-0.355,-0.185
3985,-0.370,-0.200
3986,-0.385,-0.200
3987,-0.385,-0.200
3988,-0.385,-0.190
3989,-0.375,-0.185
3990,-0.365,-0.190
3991,-0.350,-0.190
3992,-0.350,-0.200
3993,-0.360,-0.190
3994,-0.370,-0.195
3995,-0.365,-0.205
3996,-0.370,-0.205
3997,-0.375,-0.205
3998,-0.385,-0.185
3999,-0.365,-0.160
4000,-0.360,-0.150
4001,-0.340,-0.145
4002,-0.330,-0.150
4003,-0.320,-0.165
4004,-0.320,-0.140
4005,-0.305,-0.140
4006,-0.280,-0.120
4007,-0.275,-0.100
4008,-0.245,-0.095
4009,-0.240,-0.085
4010,-0.245,-0.075
4011,-0.250,-0.090
4012,-0.250,-0.110
4013,-0.265,-0.110
4014,-0.270,-0.125
4015,-0.275,-0.130
4016,-0.290,-0.140
4017,-0.300,-0.145
4018,-0.315,-0.150
4019,-0.325,-0.170
4020,-0.325,-0.180
4021,-0.340,-0.175
4022,-0.360,-0.185
4023,-0.385,-0.200
4024,-0.395,-0.185
4025,-0.395,-0.180
4026,-0.385,-0.200
4027,-0.390,-0.195
4028,-0.395,-0.190
4029,-0.375,-0.200
4030,-0.390,-0.180
4031,-0.365,-0.165
4032,-0.340,-0.145
4033,-0.305,-0.120
4034,-0.280,-0.115
4035,-0.270,-0.085
4036,-0.260,-0.075
4037,-0.235,-0.040
4038,-0.205,0.005
4039,-0.165,0.045
4040,-0.110,0.075
4041,-0.050,0.125
4042,0.010,0.140
4043,0.070,0.155
4044,0.125,0.180
4045,0.165,0.185
4046,0.205,0.235
4047,0.255,0.320
4048,0.375,0.425
4049,0.560,0.575
4050,0.635,0.630
4051,1.105,0.935
4052,1.400,1.055
4053,1.585,1.030
4054,1.620,0.825
4055,1.430,0.510
4056,1.040,0.165
4057,0.460,-0.075
4058,-0.210,-0.235
4059,-0.825,-0.390
4060,-1.140,-0.500
4061,-1.120,-0.545
4062,-0.905,-0.525
4063,-0.630,-0.440
4064,-0.435,-0.310
4065,-0.350,-0.210
4066,-0.350,-0.140
4067,-0.385,-0.125
4068,-0.420,-0.120
4069,-0.430,-0.130
4070,-0.430,-0.135
4071,-0.435,-0.160
4072,-0.440,-0.150
4073,-0.435,-0.145
4074,-0.415,-0.135
4075,-0.415,-0.125
4076,-0.400,-0.130
4077,-0.405,-0.130
4078,-0.420,-0.135
4079,-0.430,-0.150
4080,-0.425,-0.145
4081,-0.405,-0.150
4082,-0.395,-0.140
4083,-0.385,-0.125
4084,-0.380,-0.110
4085,-0.390,-0.115
4086,-0.415,-0.120
4087,-0.435,-0.130
4088,-0.445,-0.115
4089,-0.425,-0.120
4090,-0.415,-0.095
4091,-0.395,-0.080
4092,-0.405,-0.085
4093,-0.400,-0.085
4094,-0.415,-0.095
4095,-0.425,-0.090
4096,-0.420,-0.080
4097,-0.425,-0.060
4098,-0.415,-0.040
4099,-0.400,-0.025
4100,-0.395,-0.020
4101,-0.385,0.000
4102,-0.375,0.000
4103,-0.375,0.005
4104,-0.370,0.010
4105,-0.360,0.035
4106,-0.340,0.055
4107,-0.315,0.075
4108,-0.295,0.080
4109,-0.290,0.080
4110,-0.275,0.100
4111,-0.265,0.095
4112,-0.265,0.090
4113,-0.260,0.100
4114,-0.265,0.115
4115,-0.240,0.145
4116,-0.235,0.170
4117,-0.220,0.175
4118,-0.215,0.170
4119,-0.210,0.155
4120,-0.200,0.145
4121,-0.210,0.130
4122,-0.210,0.140
4123,-0.215,0.135
4124,-0.210,0.130
4125,-0.205,0.125
4126,-0.210,0.090
4127,-0.235,0.055
4128,-0.250,0.020
4129,-0.270,-0.005
4130,-0.295,-0.010
4131,-0.305,-0.010
4132,-0.305,-0.015
4133,-0.305,-0.040
4134,-0.305,-0.055
4135,-0.325,-0.075
4136,-0.340,-0.095
4137,-0.355,-0.115
4138,-0.350,-0.115
4139,-0.350,-0.110
4140,-0.345,-0.100
4141,-0.345,-0.095
4142,-0.345,-0.110
4143,-0.345,-0.100
4144,-0.360,-0.110
4145,-0.375,-0.125
4146,-0.380,-0.130
4147,-0.380,-0.115
4148,-0.375,-0.100
4149,-0.380,-0.090
4150,-0.375,-0.080
4151,-0.370,-0.085
4152,-0.375,-0.095
4153,-0.380,-0.110
4154,-0.400,-0.100
4155,-0.405,-0.095
4156,-0.395,-0.080
4157,-0.385,-0.080
4158,-0.370,-0.080
4159,-0.375,-0.080
4160,-0.375,-0.085
4161,-0.375,-0.090
4162,-0.365,-0.100
4163,-0.375,-0.105
4164,-0.375,-0.095
4165,-0.370,-0.095
4166,-0.360,-0.090
4167,-0.350,-0.100
4168,-0.340,-0.105
4169,-0.350,-0.100
4170,-0.350,-0.110
4171,-0.355,-0.135
4172,-0.355,-0.130
4173,-0.350,-0.110
4174,-0.345,-0.110
4175,-0.335,-0.105
4176,-0.325,-0.110
4177,-0.330,-0.125
4178,-0.330,-0.130
4179,-0.335,-0.135
4180,-0.350,-0.125
4181,-0.350,-0.125
4182,-0.340,-0.115
4183,-0.330,-0.125
4184,-0.325,-0.130
4185,-0.335,-0.115
4186,-0.355,-0.115
4187,-0.360,-0.130
4188,-0.370,-0.140
4189,-0.375,-0.160
4190,-0.345,-0.165
4191,-0.335,-0.170
4192,-0.345,-0.170
4193,-0.345,-0.160
4194,-0.350,-0.185
4195,-0.360,-0.190
4196,-0.365,-0.200
4197,-0.360,-0.190
4198,-0.345,-0.170
4199,-0.355,-0.175
4200,-0.360,-0.170
4201,-0.380,-0.170
4202,-0.395,-0.160
4203,-0.405,-0.185
4204,-0.400,-0.195
4205,-0.410,-0.185
4206,-0.400,-0.180
4207,-0.405,-0.165
4208,-0.400,-0.165
4209,-0.405,-0.165
4210,-0.400,-0.170
4211,-0.395,-0.175
4212,-0.395,-0.180
4213,-0.410,-0.170
4214,-0.400,-0.170
4215,-0.405,-0.165
4216,-0.395,-0.170
4217,-0.400,-0.165
4218,-0.385,-0.165
4219,-0.385,-0.155
4220,-0.385,-0.170
4221,-0.385,-0.175
4222,-0.395,-0.165
4223,-0.385,-0.170
4224,-0.365,-0.145
4225,-0.350,-0.135
4226,-0.320,-0.135
4227,-0.305,-0.130
4228,-0.300,-0.125
4229,-0.295,-0.115
4230,-0.275,-0.105
4231,-0.250,-0.080
4232,-0.230,-0.055
4233,-0.215,-0.040
4234,-0.215,-0.045
4235,-0.230,-0.050
4236,-0.240,-0.060
4237,-0.245,-0.085
4238,-0.255,-0.080
4239,-0.270,-0.095
4240,-0.275,-0.100
4241,-0.290,-0.115
4242,-0.310,-0.120
4243,-0.310,-0.125
4244,-0.325,-0.120
4245,-0.335,-0.135
4246,-0.355,-0.155
4247,-0.385,-0.160
4248,-0.410,-0.170
4249,-0.415,-0.175
4250,-0.410,-0.170
4251,-0.390,-0.165
4252,-0.360,-0.155
4253,-0.345,-0.155
4254,-0.325,-0.150
4255,-0.345,-0.130
4256,-0.320,-0.120
4257,-0.290,-0.095
4258,-0.245,-0.065
4259,-0.210,-0.035
4260,-0.185,0.000
4261,-0.155,0.025
4262,-0.125,0.065
4263,-0.095,0.100
4264,-0.050,0.145
4265,0.010,0.170
4266,0.095,0.200
4267,0.170,0.225
4268,0.225,0.260
4269,0.260,0.295
4270,0.300,0.365
4271,0.420,0.475
4272,0.610,0.645
4273,0.860,0.860
4274,1.145,1.070
4275,1.230,1.125
4276,1.505,1.080
4277,1.465,0.795
4278,1.205,0.400
4279,0.795,0.065
4280,0.245,-0.155
4281,-0.355,-0.290
4282,-0.830,-0.395
4283,-1.025,-0.470
4284,-0.985,-0.500
4285,-0.765,-0.460
4286,-0.545,-0.385
4287,-0.420,-0.295
4288,-0.370,-0.205
4289,-0.370,-0.165
4290,-0.385,-0.140
4291,-0.400,-0.130
4292,-0.410,-0.120
4293,-0.405,-0.125
4294,-0.410,-0.115
4295,-0.410,-0.120
4296,-0.400,-0.135
4297,-0.395,-0.125
4298,-0.395,-0.120
4299,-0.390,-0.115
4300,-0.390,-0.110
4301,-0.380,-0.115
4302,-0.380,-0.125
4303,-0.375,-0.130
4304,-0.385,-0.140
4305,-0.395,-0.140
4306,-0.395,-0.130
4307,-0.385,-0.115
4308,-0.370,-0.115
4309,-0.360,-0.120
4310,-0.355,-0.115
4311,-0.360,-0.125
4312,-0.375,-0.120
4313,-0.395,-0.125
4314,-0.405,-0.105
4315,-0.400,-0.090
4316,-0.390,-0.075
4317,-0.370,-0.075
4318,-0.360,-0.075
4319,-0.360,-0.080
4320,-0.365,-0.075
4321,-0.380,-0.055
4322,-0.375,-0.035
4323,-0.360,-0.005
4324,-0.325,0.020
4325,-0.315,0.020
4326,-0.295,0.030
4327,-0.295,0.035
4328,-0.310,0.020
4329,-0.310,0.020
4330,-0.290,0.035
4331,-0.255,0.065
4332,-0.210,0.085
4333,-0.205,0.095
4334,-0.205,0.095
4335,-0.225,0.080
4336,-0.255,0.080
4337,-0.280,0.085
4338,-0.280,0.110
4339,-0.280,0.140
4340,-0.260,0.145
4341,-0.235,0.165
4342,-0.215,0.160
4343,-0.205,0.150
4344,-0.210,0.125
4345,-0.225,0.105
4346,-0.225,0.085
4347,-0.235,0.075
4348,-0.230,0.065
4349,-0.235,0.050
4350,-0.235,0.040
4351,-0.250,0.025
4352,-0.260,0.010
4353,-0.275,-0.015
4354,-0.295,-0.055
4355,-0.310,-0.080
4356,-0.325,-0.090
4357,-0.320,-0.080
4358,-0.310,-0.090
4359,-0.300,-0.095
4360,-0.290,-0.100
4361,-0.305,-0.120
4362,-0.335,-0.135
4363,-0.360,-0.120
4364,-0.365,-0.115
4365,-0.360,-0.100
4366,-0.340,-0.090
4367,-0.325,-0.090
4368,-0.325,-0.095
4369,-0.345,-0.105
4370,-0.340,-0.110
4371,-0.350,-0.105
4372,-0.350,-0.100
4373,-0.330,-0.085
4374,-0.325,-0.070
4375,-0.315,-0.065
4376,-0.310,-0.065
4377,-0.310,-0.085
4378,-0.325,-0.115
4379,-0.335,-0.110
4380,-0.325,-0.110
4381,-0.320,-0.100
4382,-0.315,-0.095
4383,-0.305,-0.090
4384,-0.315,-0.105
4385,-0.305,-0.100
4386,-0.295,-0.110
4387,-0.295,-0.115
4388,-0.310,-0.120
4389,-0.320,-0.090
4390,-0.325,-0.105
4391,-0.325,-0.110
4392,-0.315,-0.110
4393,-0.315,-0.125
4394,-0.305,-0.130
4395,-0.310,-0.140
4396,-0.310,-0.135
4397,-0.315,-0.135
4398,-0.315,-0.140
4399,-0.330,-0.125
4400,-0.335,-0.120
4401,-0.320,-0.145
4402,-0.320,-0.150
4403,-0.315,-0.155
4404,-0.325,-0.155
4405,-0.340,-0.155
4406,-0.340,-0.160
4407,-0.335,-0.155
4408,-0.330,-0.155
4409,-0.325,-0.150
4410,-0.315,-0.155
4411,-0.330,-0.150
4412,-0.340,-0.150
4413,-0.340,-0.165
4414,-0.360,-0.175
4415,-0.350,-0.185
4416,-0.340,-0.180
4417,-0.335,-0.175
4418,-0.340,-0.175
4419,-0.350,-0.190
4420,-0.375,-0.200
4421,-0.375,-0.215
4422,-0.375,-0.205
4423,-0.365,-0.200
4424,-0.360,-0.205
4425,-0.355,-0.200
4426,-0.360,-0.205
4427,-0.365,-0.200
4428,-0.365,-0.210
4429,-0.380,-0.215
4430,-0.375,-0.220
4431,-0.370,-0.200
4432,-0.370,-0.190
4433,-0.365,-0.180
4434,-0.365,-0.170
4435,-0.365,-0.180
4436,-0.375,-0.190
4437,-0.365,-0.205
4438,-0.375,-0.215
4439,-0.375,-0.210
4440,-0.365,-0.205
4441,-0.355,-0.185
4442,-0.365,-0.175
4443,-0.380,-0.180
4444,-0.390,-0.210
4445,-0.405,-0.230
4446,-0.405,-0.225
4447,-0.405,-0.235
4448,-0.400,-0.215
4449,-0.380,-0.200
4450,-0.375,-0.195
4451,-0.350,-0.195
4452,-0.340,-0.195
4453,-0.345,-0.190
4454,-0.355,-0.180
4455,-0.350,-0.155
4456,-0.315,-0.135
4457,-0.295,-0.115
4458,-0.255,-0.095
4459,-0.240,-0.075
4460,-0.230,-0.070
4461,-0.245,-0.085
4462,-0.250,-0.100
4463,-0.255,-0.110
4464,-0.250,-0.110
4465,-0.260,-0.105
4466,-0.270,-0.120
4467,-0.300,-0.140
4468,-0.325,-0.150
4469,-0.340,-0.155
4470,-0.350,-0.170
4471,-0.350,-0.195
4472,-0.370,-0.200
4473,-0.385,-0.210
4474,-0.395,-0.210
4475,-0.405,-0.205
4476,-0.425,-0.215
4477,-0.415,-0.230
4478,-0.430,-0.240
4479,-0.430,-0.225
4480,-0.425,-0.225
4481,-0.420,-0.215
4482,-0.405,-0.215
4483,-0.400,-0.205
4484,-0.385,-0.205
4485,-0.375,-0.195
4486,-0.375,-0.200
4487,-0.385,-0.205
4488,-0.395,-0.200
4489,-0.395,-0.200
4490,-0.385,-0.195
4491,-0.375,-0.185
4492,-0.370,-0.180
4493,-0.345,-0.180
4494,-0.325,-0.180
4495,-0.320,-0.180
4496,-0.290,-0.135
4497,-0.230,-0.075
4498,-0.095,0.025
4499,0.100,0.145
4500,0.175,0.190
4501,0.650,0.405
4502,0.890,0.440
4503,1.015,0.265
4504,0.945,-0.075
4505,0.665,-0.485
4506,0.200,-0.805
4507,-0.345,-1.015
4508,-0.860,-1.110
4509,-1.195,-1.150
4510,-1.210,-1.115
4511,-1.020,-1.020
4512,-0.745,-0.850
4513,-0.515,-0.630
4514,-0.355,-0.425
4515,-0.310,-0.240
4516,-0.300,-0.115
4517,-0.300,-0.060
4518,-0.310,-0.035
4519,-0.300,-0.035
4520,-0.290,-0.035
4521,-0.285,-0.030
4522,-0.285,0.000
4523,-0.275,0.030
4524,-0.260,0.050
4525,-0.255,0.065
4526,-0.245,0.060
4527,-0.240,0.055
4528,-0.235,0.050
4529,-0.240,0.055
4530,-0.245,0.080
4531,-0.235,0.115
4532,-0.235,0.135
4533,-0.210,0.150
4534,-0.190,0.155
4535,-0.180,0.145
4536,-0.190,0.145
4537,-0.195,0.145
4538,-0.195,0.180
4539,-0.180,0.200
4540,-0.150,0.230
4541,-0.110,0.275
4542,-0.095,0.295
4543,-0.100,0.315
4544,-0.080,0.310
4545,-0.075,0.320
4546,-0.055,0.355
4547,-0.040,0.405
4548,-0.010,0.450
4549,0.010,0.495
4550,0.020,0.510
4551,0.040,0.545
4552,0.065,0.575
4553,0.070,0.595
4554,0.080,0.630
4555,0.085,0.650
4556,0.100,0.665
4557,0.115,0.695
4558,0.130,0.705
4559,0.145,0.725
4560,0.135,0.735
4561,0.140,0.730
4562,0.120,0.710
4563,0.110,0.710
4564,0.095,0.700
4565,0.085,0.690
4566,0.080,0.675
4567,0.095,0.635
4568,0.080,0.605
4569,0.050,0.545
4570,0.020,0.475
4571,-0.025,0.400
4572,-0.040,0.335
4573,-0.065,0.295
4574,-0.090,0.245
4575,-0.100,0.225
4576,-0.140,0.155
4577,-0.175,0.110
4578,-0.205,0.070
4579,-0.230,0.030
4580,-0.245,0.015
4581,-0.260,0.000
4582,-0.275,-0.005
4583,-0.270,-0.005
4584,-0.280,-0.035
4585,-0.285,-0.065
4586,-0.290,-0.080
4587,-0.295,-0.105
4588,-0.305,-0.100
4589,-0.300,-0.085
4590,-0.310,-0.080
4591,-0.305,-0.070
4592,-0.300,-0.070
4593,-0.295,-0.060
4594,-0.300,-0.065
4595,-0.315,-0.070
4596,-0.310,-0.080
4597,-0.320,-0.075
4598,-0.295,-0.085
4599,-0.285,-0.065
4600,-0.280,-0.060
4601,-0.270,-0.060
4602,-0.275,-0.065
4603,-0.285,-0.080
4604,-0.310,-0.085
4605,-0.320,-0.070
4606,-0.310,-0.070
4607,-0.300,-0.045
4608,-0.280,-0.040
4609,-0.275,-0.055
4610,-0.285,-0.065
4611,-0.295,-0.080
4612,-0.305,-0.090
4613,-0.310,-0.100
4614,-0.310,-0.090
4615,-0.305,-0.080
4616,-0.290,-0.075
4617,-0.295,-0.090
4618,-0.300,-0.090
4619,-0.320,-0.090
4620,-0.325,-0.105
4621,-0.330,-0.125
4622,-0.340,-0.120
4623,-0.340,-0.130
4624,-0.340,-0.120
4625,-0.345,-0.115
4626,-0.335,-0.120
4627,-0.355,-0.130
4628,-0.355,-0.140
4629,-0.355,-0.155
4630,-0.355,-0.150
4631,-0.360,-0.150
4632,-0.355,-0.140
4633,-0.360,-0.145
4634,-0.355,-0.140
4635,-0.355,-0.160
4636,-0.350,-0.165
4637,-0.355,-0.185
4638,-0.355,-0.185
4639,-0.370,-0.180
4640,-0.380,-0.170
4641,-0.390,-0.160
4642,-0.385,-0.160
4643,-0.395,-0.170
4644,-0.380,-0.180
4645,-0.385,-0.180
4646,-0.385,-0.190
4647,-0.395,-0.180
4648,-0.395,-0.175
4649,-0.380,-0.165
4650,-0.370,-0.170
4651,-0.365,-0.170
4652,-0.370,-0.175
4653,-0.365,-0.195
4654,-0.380,-0.210
4655,-0.385,-0.200
4656,-0.385,-0.190
4657,-0.375,-0.170
4658,-0.365,-0.180
4659,-0.355,-0.190
4660,-0.365,-0.200
4661,-0.385,-0.205
4662,-0.390,-0.210
4663,-0.385,-0.215
4664,-0.380,-0.205
4665,-0.370,-0.195
4666,-0.360,-0.185
4667,-0.365,-0.175
4668,-0.360,-0.185
4669,-0.365,-0.195
4670,-0.370,-0.195
4671,-0.380,-0.195
4672,-0.380,-0.200
4673,-0.385,-0.190
4674,-0.380,-0.190
4675,-0.375,-0.185
4676,-0.355,-0.170
4677,-0.360,-0.170
4678,-0.365,-0.190
4679,-0.370,-0.195
4680,-0.365,-0.210
4681,-0.365,-0.205
4682,-0.355,-0.195
4683,-0.335,-0.170
4684,-0.330,-0.165
4685,-0.315,-0.155
4686,-0.305,-0.160
4687,-0.300,-0.160
4688,-0.305,-0.160
4689,-0.295,-0.145
4690,-0.280,-0.115
4691,-0.255,-0.095
4692,-0.230,-0.085
4693,-0.215,-0.065
4694,-0.220,-0.065
4695,-0.230,-0.070
4696,-0.250,-0.075
4697,-0.260,-0.080
4698,-0.270,-0.085
4699,-0.255,-0.080
4700,-0.255,-0.085
4701,-0.265,-0.115
4702,-0.290,-0.130
4703,-0.315,-0.150
4704,-0.340,-0.165
4705,-0.365,-0.150
4706,-0.370,-0.140
4707,-0.395,-0.145
4708,-0.395,-0.155
4709,-0.395,-0.180
4710,-0.410,-0.190
4711,-0.410,-0.205
4712,-0.415,-0.210
4713,-0.410,-0.225
4714,-0.405,-0.220
4715,-0.410,-0.225
4716,-0.415,-0.215
4717,-0.405,-0.200
4718,-0.400,-0.210
4719,-0.410,-0.215
4720,-0.405,-0.225
4721,-0.400,-0.245
4722,-0.400,-0.235
4723,-0.395,-0.210
4724,-0.385,-0.205
4725,-0.380,-0.195
4726,-0.365,-0.195
4727,-0.355,-0.185
4728,-0.330,-0.185
4729,-0.300,-0.155
4730,-0.255,-0.105
4731,-0.125,-0.020
4732,0.045,0.090
4733,0.295,0.240
4734,0.575,0.355
4735,0.820,0.380
4736,0.960,0.215
4737,0.915,-0.145
4738,0.645,-0.565
4739,0.200,-0.910
4740,-0.360,-1.100
4741,-0.890,-1.165
4742,-1.150,-1.175
4743,-1.145,-1.105
4744,-0.925,-0.985
4745,-0.645,-0.805
4746,-0.430,-0.595
4747,-0.320,-0.360
4748,-0.275,-0.195
4749,-0.290,-0.105
4750,-0.300,-0.075
4751,-0.310,-0.045
4752,-0.300,-0.035
4753,-0.295,-0.015
4754,-0.280,-0.020
4755,-0.265,-0.005
4756,-0.275,0.020
4757,-0.265,0.055
4758,-0.260,0.070
4759,-0.245,0.080
4760,-0.230,0.090
4761,-0.225,0.080
4762,-0.240,0.075
4763,-0.235,0.090
4764,-0.240,0.130
4765,-0.225,0.140
4766,-0.195,0.165
4767,-0.185,0.175
4768,-0.170,0.170
4769,-0.160,0.170
4770,-0.170,0.175
4771,-0.150,0.190
4772,-0.155,0.215
4773,-0.145,0.245
4774,-0.125,0.280
4775,-0.115,0.290
4776,-0.075,0.315
4777,-0.075,0.340
4778,-0.065,0.360
4779,-0.060,0.380
4780,-0.050,0.400
4781,-0.025,0.440
4782,-0.010,0.480
4783,0.025,0.515
4784,0.040,0.535
4785,0.055,0.560
4786,0.060,0.585
4787,0.075,0.600
4788,0.080,0.630
4789,0.090,0.660
4790,0.105,0.685
4791,0.110,0.715
4792,0.130,0.735
4793,0.135,0.740
4794,0.135,0.760
4795,0.125,0.745
4796,0.110,0.745
4797,0.100,0.730
4798,0.090,0.715
4799,0.085,0.710
4800,0.095,0.705
4801,0.090,0.665
4802,0.085,0.625
4803,0.070,0.565
4804,0.040,0.510
4805,0.015,0.465
4806,-0.015,0.425
4807,-0.040,0.385
4808,-0.065,0.350
4809,-0.065,0.300
4810,-0.095,0.245
4811,-0.130,0.185
4812,-0.165,0.125
4813,-0.200,0.080
4814,-0.240,0.045
4815,-0.245,0.030
4816,-0.255,0.000
4817,-0.255,0.005
4818,-0.270,-0.010
4819,-0.280,-0.050
4820,-0.300,-0.070
4821,-0.320,-0.085
4822,-0.340,-0.090
4823,-0.330,-0.085
4824,-0.315,-0.080
4825,-0.305,-0.080
4826,-0.300,-0.105
4827,-0.305,-0.100
4828,-0.320,-0.105
4829,-0.330,-0.110
4830,-0.340,-0.110
4831,-0.330,-0.090
4832,-0.310,-0.075
4833,-0.295,-0.060
4834,-0.295,-0.050
4835,-0.295,-0.060
4836,-0.295,-0.075
4837,-0.290,-0.085
4838,-0.310,-0.080
4839,-0.315,-0.090
4840,-0.310,-0.085
4841,-0.295,-0.065
4842,-0.290,-0.055
4843,-0.285,-0.070
4844,-0.290,-0.075
4845,-0.300,-0.085
4846,-0.310,-0.095
4847,-0.305,-0.075
4848,-0.295,-0.070
4849,-0.310,-0.060
4850,-0.305,-0.055
4851,-0.290,-0.070
4852,-0.290,-0.105
4853,-0.300,-0.120
4854,-0.305,-0.140
4855,-0.315,-0.125
4856,-0.325,-0.130
4857,-0.320,-0.125
4858,-0.320,-0.125
4859,-0.310,-0.135
4860,-0.305,-0.150
4861,-0.310,-0.165
4862,-0.345,-0.170
4863,-0.350,-0.170
4864,-0.350,-0.170
4865,-0.350,-0.150
4866,-0.350,-0.140
4867,-0.325,-0.150
4868,-0.325,-0.165
4869,-0.330,-0.170
4870,-0.345,-0.180
4871,-0.365,-0.195
4872,-0.380,-0.190
4873,-0.375,-0.190
4874,-0.360,-0.165
4875,-0.355,-0.170
4876,-0.340,-0.165
4877,-0.355,-0.175
4878,-0.375,-0.180
4879,-0.385,-0.195
4880,-0.385,-0.190
4881,-0.375,-0.185
4882,-0.375,-0.180
4883,-0.360,-0.175
4884,-0.355,-0.170
4885,-0.370,-0.170
4886,-0.375,-0.180
4887,-0.380,-0.200
4888,-0.385,-0.205
4889,-0.395,-0.195
4890,-0.380,-0.180
4891,-0.375,-0.175
4892,-0.365,-0.175
4893,-0.365,-0.195
4894,-0.375,-0.200
4895,-0.380,-0.210
4896,-0.390,-0.230
4897,-0.390,-0.210
4898,-0.375,-0.195
4899,-0.375,-0.190
4900,-0.365,-0.180
4901,-0.370,-0.170
4902,-0.365,-0.180
4903,-0.375,-0.190
4904,-0.370,-0.195
4905,-0.385,-0.190
4906,-0.385,-0.190
4907,-0.375,-0.175
4908,-0.370,-0.175
4909,-0.365,-0.175
4910,-0.370,-0.190
4911,-0.355,-0.200
4912,-0.365,-0.205
4913,-0.380,-0.190
4914,-0.390,-0.170
4915,-0.370,-0.175
4916,-0.365,-0.170
4917,-0.355,-0.170
4918,-0.355,-0.180
4919,-0.355,-0.185
4920,-0.370,-0.180
4921,-0.375,-0.200
4922,-0.380,-0.200
4923,-0.370,-0.180
4924,-0.370,-0.165
4925,-0.365,-0.160
4926,-0.345,-0.175
4927,-0.340,-0.180
4928,-0.340,-0.195
4929,-0.335,-0.205
4930,-0.315,-0.200
4931,-0.300,-0.175
4932,-0.275,-0.150
4933,-0.255,-0.125
4934,-0.235,-0.105
4935,-0.220,-0.090
4936,-0.225,-0.090
4937,-0.235,-0.075
4938,-0.245,-0.085
4939,-0.250,-0.090
4940,-0.240,-0.075
4941,-0.235,-0.070
4942,-0.235,-0.075
4943,-0.245,-0.100
4944,-0.280,-0.135
4945,-0.310,-0.165
4946,-0.315,-0.175
4947,-0.325,-0.165
4948,-0.325,-0.150
4949,-0.340,-0.145
4950,-0.350,-0.155
4951,-0.360,-0.180
4952,-0.370,-0.195
4953,-0.380,-0.220
4954,-0.380,-0.220
4955,-0.385,-0.220
4956,-0.385,-0.220
4957,-0.380,-0.215
4958,-0.365,-0.210
4959,-0.370,-0.195
4960,-0.375,-0.200
4961,-0.370,-0.205
4962,-0.375,-0.210
4963,-0.385,-0.215
4964,-0.385,-0.215
4965,-0.370,-0.215
4966,-0.365,-0.195
4967,-0.350,-0.180
4968,-0.335,-0.175
4969,-0.340,-0.170
4970,-0.330,-0.185
4971,-0.320,-0.185
4972,-0.300,-0.175
4973,-0.275,-0.150
4974,-0.205,-0.095
4975,-0.180,-0.075
4976,0.090,0.050
4977,0.300,0.145
4978,0.525,0.225
4979,0.755,0.255
4980,0.900,0.160
4981,0.890,-0.095
4982,0.700,-0.415
4983,0.325,-0.735
4984,-0.165,-0.970
4985,-0.665,-1.085
4986,-1.025,-1.135
4987,-1.105,-1.100
4988,-0.945,-1.000
4989,-0.705,-0.830
4990,-0.455,-0.640
4991,-0.305,-0.435
4992,-0.260,-0.270
4993,-0.250,-0.150
4994,-0.285,-0.095
4995,-0.300,-0.080
4996,-0.300,-0.080
4997,-0.285,-0.060
4998,-0.260,-0.040
4999,-0.245,-0.015
5000,-0.235,-0.005
5001,-0.240,0.030
5002,-0.235,0.035
5003,-0.225,0.040
5004,-0.225,0.040
5005,-0.220,0.040
5006,-0.215,0.060
5007,-0.205,0.085
5008,-0.190,0.100
5009,-0.175,0.110
5010,-0.170,0.135
5011,-0.165,0.135
5012,-0.165,0.135
5013,-0.160,0.150
5014,-0.160,0.160
5015,-0.145,0.190
5016,-0.115,0.240
5017,-0.100,0.265
5018,-0.085,0.280
5019,-0.075,0.285
5020,-0.080,0.290
5021,-0.070,0.310
5022,-0.060,0.340
5023,-0.050,0.370
5024,-0.020,0.410
5025,-0.010,0.430
5026,0.015,0.475
5027,0.030,0.490
5028,0.045,0.510
5029,0.060,0.540
5030,0.060,0.575
5031,0.080,0.610
5032,0.090,0.655
5033,0.105,0.670
5034,0.120,0.685
5035,0.130,0.705
5036,0.125,0.710
5037,0.110,0.715
5038,0.110,0.715
5039,0.110,0.720
5040,0.095,0.720
5041,0.105,0.730
5042,0.105,0.720
5043,0.100,0.695
5044,0.085,0.645
5045,0.070,0.590
5046,0.050,0.555
5047,0.030,0.510
5048,0.005,0.465
5049,-0.010,0.415
5050,-0.005,0.400
5051,-0.040,0.305
5052,-0.065,0.240
5053,-0.105,0.180
5054,-0.145,0.125
5055,-0.175,0.090
5056,-0.195,0.065
5057,-0.200,0.035
5058,-0.225,-0.005
5059,-0.235,-0.020
5060,-0.245,-0.040
5061,-0.255,-0.070
5062,-0.280,-0.085
5063,-0.285,-0.090
5064,-0.280,-0.090
5065,-0.295,-0.090
5066,-0.285,-0.090
5067,-0.290,-0.080
5068,-0.290,-0.090
5069,-0.290,-0.100
5070,-0.290,-0.105
5071,-0.300,-0.100
5072,-0.290,-0.100
5073,-0.285,-0.100
5074,-0.275,-0.085
5075,-0.270,-0.080
5076,-0.255,-0.085
5077,-0.250,-0.090
5078,-0.255,-0.105
5079,-0.260,-0.105
5080,-0.285,-0.105
5081,-0.275,-0.105
5082,-0.265,-0.085
5083,-0.265,-0.080
5084,-0.250,-0.085
5085,-0.245,-0.090
5086,-0.245,-0.080
5087,-0.275,-0.105
5088,-0.290,-0.115
5089,-0.290,-0.135
5090,-0.275,-0.120
5091,-0.270,-0.105
5092,-0.255,-0.095
5093,-0.260,-0.105
5094,-0.275,-0.115
5095,-0.285,-0.135
5096,-0.305,-0.155
5097,-0.305,-0.150
5098,-0.315,-0.150
5099,-0.300,-0.140
5100,-0.290,-0.135
5101,-0.300,-0.120
5102,-0.315,-0.135
5103,-0.320,-0.160
5104,-0.330,-0.165
5105,-0.320,-0.185
5106,-0.325,-0.180
5107,-0.320,-0.175
5108,-0.310,-0.160
5109,-0.315,-0.160
5110,-0.325,-0.160
5111,-0.335,-0.175
5112,-0.335,-0.180
5113,-0.340,-0.195
5114,-0.340,-0.195
5115,-0.340,-0.190
5116,-0.335,-0.185
5117,-0.335,-0.185
5118,-0.335,-0.185
5119,-0.335,-0.195
5120,-0.345,-0.210
5121,-0.365,-0.195
5122,-0.345,-0.200
5123,-0.340,-0.195
5124,-0.345,-0.195
5125,-0.340,-0.185
5126,-0.330,-0.195
5127,-0.325,-0.200
5128,-0.335,-0.205
5129,-0.335,-0.210
5130,-0.345,-0.220
5131,-0.355,-0.215
5132,-0.345,-0.195
5133,-0.330,-0.195
5134,-0.325,-0.195
5135,-0.330,-0.190
5136,-0.340,-0.200
5137,-0.345,-0.215
5138,-0.340,-0.205
5139,-0.340,-0.195
5140,-0.340,-0.190
5141,-0.335,-0.190
5142,-0.325,-0.195
5143,-0.320,-0.200
5144,-0.325,-0.195
5145,-0.335,-0.210
5146,-0.345,-0.215
5147,-0.350,-0.200
5148,-0.345,-0.190
5149,-0.335,-0.185
5150,-0.335,-0.180
5151,-0.325,-0.175
5152,-0.325,-0.185
5153,-0.345,-0.200
5154,-0.345,-0.200
5155,-0.350,-0.210
5156,-0.340,-0.205
5157,-0.325,-0.175
5158,-0.320,-0.190
5159,-0.315,-0.190
5160,-0.315,-0.180
5161,-0.320,-0.190
5162,-0.315,-0.200
5163,-0.310,-0.195
5164,-0.315,-0.185
5165,-0.290,-0.165
5166,-0.265,-0.145
5167,-0.270,-0.135
5168,-0.250,-0.125
5169,-0.235,-0.130
5170,-0.235,-0.125
5171,-0.210,-0.115
5172,-0.205,-0.100
5173,-0.200,-0.075
5174,-0.200,-0.065
5175,-0.205,-0.065
5176,-0.195,-0.055
5177,-0.200,-0.065
5178,-0.220,-0.085
5179,-0.240,-0.110
5180,-0.265,-0.115
5181,-0.290,-0.130
5182,-0.290,-0.140
5183,-0.305,-0.120
5184,-0.300,-0.125
5185,-0.300,-0.150
5186,-0.310,-0.175
5187,-0.335,-0.195
5188,-0.360,-0.215
5189,-0.380,-0.195
5190,-0.385,-0.200
5191,-0.375,-0.195
5192,-0.365,-0.205
5193,-0.355,-0.210
5194,-0.355,-0.210
5195,-0.365,-0.215
5196,-0.370,-0.225
5197,-0.375,-0.220
5198,-0.380,-0.210
5199,-0.360,-0.190
5200,-0.360,-0.180
5201,-0.350,-0.190
5202,-0.340,-0.200
5203,-0.345,-0.215
5204,-0.355,-0.205
5205,-0.340,-0.200
5206,-0.335,-0.195
5207,-0.310,-0.180
5208,-0.290,-0.170
5209,-0.280,-0.160
5210,-0.240,-0.130
5211,-0.185,-0.090
5212,-0.095,-0.035
5213,0.065,0.040
5214,0.270,0.150
5215,0.505,0.265
5216,0.720,0.360
5217,0.865,0.335
5218,0.900,0.160
5219,0.730,-0.150
5220,0.420,-0.500
5221,0.000,-0.815
5222,-0.465,-1.020
5223,-0.845,-1.140
5224,-1.065,-1.190
5225,-1.100,-1.195
5226,-0.875,-1.080
5227,-0.640,-0.925
5228,-0.450,-0.750
5229,-0.345,-0.545
5230,-0.300,-0.370
5231,-0.280,-0.225
5232,-0.270,-0.140
5233,-0.280,-0.085
5234,-0.265,-0.055
5235,-0.250,-0.055
5236,-0.245,-0.045
5237,-0.235,-0.025
5238,-0.230,-0.005
5239,-0.240,0.020
5240,-0.235,0.055
5241,-0.200,0.075
5242,-0.190,0.100
5243,-0.180,0.105
5244,-0.180,0.100
5245,-0.185,0.100
5246,-0.180,0.105
5247,-0.180,0.115
5248,-0.175,0.125
5249,-0.150,0.150
5250,-0.140,0.155
5251,-0.110,0.175
5252,-0.105,0.180
5253,-0.110,0.195
5254,-0.115,0.215
5255,-0.125,0.245
5256,-0.100,0.245
5257,-0.065,0.280
5258,-0.055,0.310
5259,-0.045,0.320
5260,-0.040,0.330
5261,-0.030,0.340
5262,-0.030,0.350
5263,-0.005,0.365
5264,0.005,0.395
5265,0.020,0.435
5266,0.050,0.470
5267,0.065,0.520
5268,0.085,0.545
5269,0.100,0.585
5270,0.105,0.620
5271,0.105,0.645
5272,0.125,0.675
5273,0.135,0.700
5274,0.140,0.715
5275,0.145,0.715
5276,0.150,0.715
5277,0.155,0.710
5278,0.155,0.715
5279,0.130,0.715
5280,0.125,0.710
5281,0.110,0.720
5282,0.105,0.710
5283,0.125,0.710
5284,0.130,0.705
5285,0.125,0.650
5286,0.105,0.605
5287,0.070,0.545
5288,0.040,0.490
5289,0.005,0.445
5290,0.000,0.405
5291,-0.015,0.355
5292,-0.030,0.315
5293,-0.050,0.255
5294,-0.090,0.205
5295,-0.120,0.160
5296,-0.155,0.120
5297,-0.180,0.085
5298,-0.190,0.070
5299,-0.195,0.050
5300,-0.190,0.040
5301,-0.210,0.000
5302,-0.220,-0.020
5303,-0.240,-0.040
5304,-0.265,-0.065
5305,-0.260,-0.065
5306,-0.255,-0.070
5307,-0.250,-0.060
5308,-0.240,-0.065
5309,-0.250,-0.065
5310,-0.255,-0.080
5311,-0.265,-0.075
5312,-0.275,-0.100
5313,-0.260,-0.100
5314,-0.260,-0.090
5315,-0.255,-0.085
5316,-0.245,-0.075
5317,-0.240,-0.070
5318,-0.230,-0.075
5319,-0.235,-0.080
5320,-0.230,-0.090
5321,-0.225,-0.085
5322,-0.230,-0.080
5323,-0.240,-0.070
5324,-0.235,-0.070
5325,-0.235,-0.065
5326,-0.230,-0.060
5327,-0.220,-0.075
5328,-0.230,-0.085
5329,-0.230,-0.090
5330,-0.240,-0.110
5331,-0.255,-0.100
5332,-0.250,-0.085
5333,-0.250,-0.085
5334,-0.250,-0.080
5335,-0.250,-0.080
5336,-0.260,-0.095
5337,-0.270,-0.105
5338,-0.280,-0.130
5339,-0.285,-0.140
5340,-0.295,-0.155
5341,-0.275,-0.145
5342,-0.275,-0.140
5343,-0.270,-0.145
5344,-0.270,-0.145
5345,-0.285,-0.165
5346,-0.305,-0.170
5347,-0.305,-0.165
5348,-0.310,-0.165
5349,-0.300,-0.170
5350,-0.295,-0.170
5351,-0.290,-0.180
5352,-0.285,-0.170
5353,-0.290,-0.175
5354,-0.300,-0.190
5355,-0.305,-0.185
5356,-0.310,-0.190
5357,-0.310,-0.175
5358,-0.305,-0.170
5359,-0.305,-0.175
5360,-0.300,-0.175
5361,-0.295,-0.185
5362,-0.310,-0.185
5363,-0.315,-0.200
5364,-0.315,-0.195
5365,-0.320,-0.195
5366,-0.315,-0.195
5367,-0.320,-0.195
5368,-0.305,-0.205
5369,-0.300,-0.200
5370,-0.305,-0.205
5371,-0.315,-0.215
5372,-0.325,-0.200
5373,-0.325,-0.205
5374,-0.320,-0.195
5375,-0.310,-0.195
5376,-0.310,-0.190
5377,-0.310,-0.185
5378,-0.315,-0.205
5379,-0.330,-0.220
5380,-0.320,-0.230
5381,-0.320,-0.220
5382,-0.320,-0.220
5383,-0.320,-0.205
5384,-0.315,-0.200
5385,-0.315,-0.195
5386,-0.300,-0.200
5387,-0.300,-0.220
5388,-0.305,-0.225
5389,-0.315,-0.230
5390,-0.305,-0.210
5391,-0.315,-0.190
5392,-0.325,-0.190
5393,-0.315,-0.180
5394,-0.310,-0.185
5395,-0.315,-0.205
5396,-0.325,-0.210
5397,-0.315,-0.220
5398,-0.315,-0.220
5399,-0.315,-0.210
5400,-0.310,-0.205
5401,-0.275,-0.185
5402,-0.265,-0.195
5403,-0.265,-0.180
5404,-0.255,-0.180
5405,-0.250,-0.170
5406,-0.255,-0.155
5407,-0.240,-0.125
5408,-0.210,-0.095
5409,-0.205,-0.085
5410,-0.195,-0.085
5411,-0.185,-0.090
5412,-0.195,-0.105
5413,-0.205,-0.115
5414,-0.200,-0.125
5415,-0.210,-0.110
5416,-0.215,-0.125
5417,-0.235,-0.120
5418,-0.245,-0.140
5419,-0.255,-0.150
5420,-0.275,-0.160
5421,-0.295,-0.190
5422,-0.320,-0.190
5423,-0.330,-0.200
5424,-0.345,-0.190
5425,-0.355,-0.195
5426,-0.345,-0.200
5427,-0.350,-0.215
5428,-0.350,-0.225
5429,-0.360,-0.245
5430,-0.360,-0.255
5431,-0.370,-0.250
5432,-0.365,-0.235
5433,-0.355,-0.225
5434,-0.355,-0.215
5435,-0.345,-0.210
5436,-0.340,-0.210
5437,-0.355,-0.225
5438,-0.365,-0.225
5439,-0.365,-0.225
5440,-0.355,-0.230
5441,-0.335,-0.205
5442,-0.315,-0.210
5443,-0.305,-0.205
5444,-0.295,-0.215
5445,-0.295,-0.205
5446,-0.305,-0.200
5447,-0.265,-0.175
5448,-0.200,-0.130
5449,-0.080,-0.050
5450,-0.040,-0.025
5451,0.280,0.110
5452,0.520,0.200
5453,0.755,0.265
5454,0.895,0.230
5455,0.905,0.060
5456,0.720,-0.225
5457,0.375,-0.540
5458,-0.090,-0.820
5459,-0.555,-1.015
5460,-0.920,-1.115
5461,-1.080,-1.140
5462,-1.030,-1.130
5463,-0.830,-1.045
5464,-0.640,-0.915
5465,-0.455,-0.735
5466,-0.340,-0.545
5467,-0.280,-0.385
5468,-0.255,-0.275
5469,-0.260,-0.200
5470,-0.265,-0.160
5471,-0.275,-0.125
5472,-0.275,-0.095
5473,-0.270,-0.065
5474,-0.270,-0.035
5475,-0.275,-0.030
5476,-0.240,-0.005
5477,-0.235,-0.010
5478,-0.225,-0.020
5479,-0.235,-0.025
5480,-0.240,-0.020
5481,-0.230,0.000
5482,-0.220,0.015
5483,-0.210,0.030
5484,-0.205,0.040
5485,-0.180,0.045
5486,-0.170,0.045
5487,-0.170,0.060
5488,-0.165,0.060
5489,-0.175,0.095
5490,-0.150,0.115
5491,-0.135,0.140
5492,-0.115,0.165
5493,-0.100,0.180
5494,-0.085,0.175
5495,-0.085,0.185
5496,-0.075,0.185
5497,-0.075,0.210
5498,-0.065,0.230
5499,-0.035,0.245
5500,-0.025,0.260
5501,0.000,0.300
5502,0.005,0.325
5503,0.005,0.340
5504,0.015,0.365
5505,0.030,0.395
5506,0.050,0.425
5507,0.070,0.450
5508,0.095,0.480
5509,0.120,0.500
5510,0.120,0.525
5511,0.130,0.545
5512,0.125,0.540
5513,0.130,0.555
5514,0.135,0.565
5515,0.130,0.580
5516,0.155,0.590
5517,0.155,0.600
5518,0.155,0.590
5519,0.155,0.585
5520,0.145,0.575
5521,0.130,0.545
5522,0.115,0.515
5523,0.105,0.485
5524,0.115,0.465
5525,0.115,0.455
5526,0.090,0.405
5527,0.055,0.360
5528,0.020,0.300
5529,-0.015,0.240
5530,-0.035,0.175
5531,-0.075,0.135
5532,-0.095,0.100
5533,-0.110,0.065
5534,-0.120,0.035
5535,-0.150,-0.010
5536,-0.170,-0.050
5537,-0.195,-0.075
5538,-0.230,-0.105
5539,-0.250,-0.130
5540,-0.260,-0.135
5541,-0.265,-0.145
5542,-0.255,-0.145
5543,-0.255,-0.155
5544,-0.255,-0.165
5545,-0.265,-0.200
5546,-0.275,-0.200
5547,-0.290,-0.220
5548,-0.290,-0.210
5549,-0.275,-0.195
5550,-0.270,-0.190
5551,-0.255,-0.175
5552,-0.260,-0.165
5553,-0.260,-0.170
5554,-0.280,-0.190
5555,-0.265,-0.195
5556,-0.280,-0.195
5557,-0.260,-0.190
5558,-0.250,-0.185
5559,-0.245,-0.185
5560,-0.245,-0.195
5561,-0.260,-0.190
5562,-0.255,-0.190
5563,-0.265,-0.200
5564,-0.260,-0.190
5565,-0.260,-0.185
5566,-0.240,-0.190
5567,-0.245,-0.190
5568,-0.250,-0.180
5569,-0.255,-0.175
5570,-0.250,-0.195
5571,-0.245,-0.210
5572,-0.260,-0.215
5573,-0.275,-0.210
5574,-0.270,-0.205
5575,-0.265,-0.200
5576,-0.260,-0.180
5577,-0.265,-0.195
5578,-0.260,-0.200
5579,-0.275,-0.235
5580,-0.290,-0.235
5581,-0.305,-0.240
5582,-0.310,-0.240
5583,-0.300,-0.215
5584,-0.290,-0.205
5585,-0.285,-0.215
5586,-0.275,-0.220
5587,-0.290,-0.245
5588,-0.295,-0.265
5589,-0.310,-0.270
5590,-0.315,-0.260
5591,-0.300,-0.260
5592,-0.300,-0.250
5593,-0.290,-0.240
5594,-0.295,-0.235
5595,-0.310,-0.240
5596,-0.315,-0.260
5597,-0.315,-0.260
5598,-0.320,-0.260
5599,-0.320,-0.260
5600,-0.315,-0.265
5601,-0.310,-0.235
5602,-0.305,-0.230
5603,-0.300,-0.235
5604,-0.300,-0.250
5605,-0.300,-0.260
5606,-0.315,-0.270
5607,-0.305,-0.265
5608,-0.310,-0.265
5609,-0.305,-0.260
5610,-0.300,-0.245
5611,-0.285,-0.240
5612,-0.280,-0.250
5613,-0.285,-0.250
5614,-0.290,-0.250
5615,-0.285,-0.230
5616,-0.265,-0.210
5617,-0.230,-0.195
5618,-0.210,-0.185
5619,-0.190,-0.175
5620,-0.185,-0.175
5621,-0.175,-0.170
5622,-0.170,-0.160
5623,-0.170,-0.150
5624,-0.170,-0.140
5625,-0.170,-0.135
5626,-0.160,-0.130
5627,-0.175,-0.135
5628,-0.195,-0.150
5629,-0.205,-0.175
5630,-0.220,-0.190
5631,-0.240,-0.195
5632,-0.255,-0.210
5633,-0.255,-0.200
5634,-0.250,-0.200
5635,-0.270,-0.205
5636,-0.295,-0.230
5637,-0.320,-0.240
5638,-0.345,-0.255
5639,-0.350,-0.270
5640,-0.345,-0.265
5641,-0.335,-0.245
5642,-0.330,-0.245
5643,-0.320,-0.245
5644,-0.320,-0.255
5645,-0.330,-0.265
5646,-0.330,-0.270
5647,-0.335,-0.265
5648,-0.330,-0.265
5649,-0.330,-0.245
5650,-0.325,-0.240
5651,-0.335,-0.235
5652,-0.330,-0.245
5653,-0.305,-0.250
5654,-0.310,-0.255
5655,-0.295,-0.255
5656,-0.295,-0.230
5657,-0.280,-0.215
5658,-0.255,-0.190
5659,-0.215,-0.170
5660,-0.115,-0.110
5661,0.020,-0.040
5662,0.210,0.050
5663,0.440,0.170
5664,0.690,0.295
5665,0.905,0.390
5666,1.015,0.375
5667,0.885,0.175
5668,0.540,-0.110
5669,0.025,-0.440
5670,-0.555,-0.710
5671,-0.990,-0.905
5672,-1.145,-0.990
5673,-1.050,-1.030
5674,-0.810,-0.985
5675,-0.735,-0.960
5676,-0.375,-0.700
5677,-0.265,-0.510
5678,-0.225,-0.345
5679,-0.235,-0.225
5680,-0.255,-0.160
5681,-0.260,-0.125
5682,-0.255,-0.105
5683,-0.240,-0.080
5684,-0.220,-0.055
5685,-0.200,-0.045
5686,-0.195,-0.045
5687,-0.195,-0.035
5688,-0.195,-0.040
5689,-0.195,-0.015
5690,-0.195,0.000
5691,-0.180,0.020
5692,-0.175,0.030
5693,-0.160,0.045
5694,-0.140,0.050
5695,-0.130,0.055
5696,-0.145,0.055
5697,-0.135,0.060
5698,-0.135,0.080
5699,-0.115,0.095
5700,-0.105,0.100
5701,-0.085,0.140
5702,-0.070,0.155
5703,-0.055,0.170
5704,-0.045,0.175
5705,-0.055,0.185
5706,-0.050,0.215
5707,-0.030,0.235
5708,-0.005,0.250
5709,0.035,0.255
5710,0.050,0.270
5711,0.065,0.290
5712,0.070,0.315
5713,0.075,0.335
5714,0.095,0.375
5715,0.110,0.415
5716,0.135,0.450
5717,0.155,0.475
5718,0.180,0.505
5719,0.190,0.525
5720,0.190,0.540
5721,0.195,0.550
5722,0.195,0.565
5723,0.190,0.600
5724,0.195,0.605
5725,0.205,0.600
5726,0.190,0.620
5727,0.195,0.615
5728,0.195,0.610
5729,0.190,0.595
5730,0.175,0.585
5731,0.170,0.565
5732,0.155,0.545
5733,0.145,0.525
5734,0.135,0.500
5735,0.105,0.455
5736,0.080,0.390
5737,0.055,0.330
5738,0.020,0.270
5739,-0.020,0.225
5740,-0.050,0.185
5741,-0.085,0.140
5742,-0.090,0.110
5743,-0.100,0.080
5744,-0.120,0.050
5745,-0.150,0.010
5746,-0.190,-0.025
5747,-0.220,-0.045
5748,-0.220,-0.040
5749,-0.220,-0.030
5750,-0.220,-0.035
5751,-0.215,-0.030
5752,-0.225,-0.060
5753,-0.230,-0.075
5754,-0.235,-0.090
5755,-0.250,-0.105
5756,-0.250,-0.125
5757,-0.250,-0.140
5758,-0.230,-0.125
5759,-0.230,-0.120
5760,-0.230,-0.110
5761,-0.220,-0.100
5762,-0.220,-0.110
5763,-0.225,-0.120
5764,-0.220,-0.115
5765,-0.220,-0.110
5766,-0.210,-0.085
5767,-0.215,-0.085
5768,-0.205,-0.080
5769,-0.205,-0.095
5770,-0.215,-0.100
5771,-0.210,-0.110
5772,-0.215,-0.105
5773,-0.230,-0.110
5774,-0.225,-0.110
5775,-0.230,-0.100
5776,-0.210,-0.095
5777,-0.220,-0.085
5778,-0.230,-0.085
5779,-0.230,-0.075
5780,-0.230,-0.090
5781,-0.245,-0.110
5782,-0.240,-0.125
5783,-0.250,-0.140
5784,-0.255,-0.145
5785,-0.245,-0.130
5786,-0.240,-0.140
5787,-0.245,-0.155
5788,-0.255,-0.180
5789,-0.280,-0.190
5790,-0.280,-0.185
5791,-0.285,-0.175
5792,-0.280,-0.170
5793,-0.265,-0.155
5794,-0.265,-0.155
5795,-0.280,-0.170
5796,-0.300,-0.185
5797,-0.305,-0.175
5798,-0.310,-0.175
5799,-0.300,-0.175
5800,-0.290,-0.180
5801,-0.290,-0.170
5802,-0.285,-0.180
5803,-0.290,-0.190
5804,-0.305,-0.195
5805,-0.305,-0.190
5806,-0.315,-0.195
5807,-0.315,-0.185
5808,-0.305,-0.175
5809,-0.305,-0.160
5810,-0.300,-0.155
5811,-0.300,-0.165
5812,-0.310,-0.185
5813,-0.310,-0.195
5814,-0.315,-0.210
5815,-0.305,-0.205
5816,-0.305,-0.190
5817,-0.315,-0.190
5818,-0.310,-0.185
5819,-0.290,-0.185
5820,-0.295,-0.195
5821,-0.295,-0.210
5822,-0.295,-0.215
5823,-0.290,-0.220
5824,-0.290,-0.200
5825,-0.285,-0.190
5826,-0.250,-0.160
5827,-0.245,-0.145
5828,-0.225,-0.140
5829,-0.230,-0.130
5830,-0.215,-0.135
5831,-0.215,-0.125
5832,-0.215,-0.100
5833,-0.200,-0.075
5834,-0.180,-0.055
5835,-0.165,-0.045
5836,-0.175,-0.045
5837,-0.200,-0.065
5838,-0.210,-0.095
5839,-0.235,-0.115
5840,-0.245,-0.110
5841,-0.250,-0.120
5842,-0.250,-0.120
5843,-0.270,-0.130
5844,-0.270,-0.140
5845,-0.280,-0.150
5846,-0.305,-0.160
5847,-0.340,-0.185
5848,-0.355,-0.185
5849,-0.350,-0.190
5850,-0.350,-0.200
5851,-0.330,-0.210
5852,-0.340,-0.225
5853,-0.335,-0.240
5854,-0.345,-0.250
5855,-0.350,-0.250
5856,-0.350,-0.240
5857,-0.355,-0.235
5858,-0.340,-0.215
5859,-0.335,-0.205
5860,-0.330,-0.215
5861,-0.325,-0.210
5862,-0.340,-0.225
5863,-0.325,-0.235
5864,-0.330,-0.240
5865,-0.315,-0.225
5866,-0.285,-0.200
5867,-0.265,-0.195
5868,-0.240,-0.185
5869,-0.195,-0.155
5870,-0.135,-0.110
5871,-0.030,-0.045
5872,0.115,0.055
5873,0.295,0.165
5874,0.510,0.290
5875,0.580,0.325
5876,0.770,0.285
5877,0.725,0.025
5878,0.475,-0.360
5879,0.100,-0.725
5880,-0.345,-0.995
5881,-0.755,-1.125
5882,-0.995,-1.175
5883,-0.990,-1.145
5884,-0.815,-1.070
5885,-0.585,-0.940
5886,-0.410,-0.760
5887,-0.320,-0.565
5888,-0.295,-0.365
5889,-0.280,-0.225
5890,-0.295,-0.140
5891,-0.285,-0.095
5892,-0.275,-0.075
5893,-0.255,-0.055
5894,-0.245,-0.035
5895,-0.250,-0.030
5896,-0.240,-0.025
5897,-0.240,-0.010
5898,-0.240,0.010
5899,-0.220,0.030
5900,-0.215,0.040
5901,-0.195,0.055
5902,-0.175,0.065
5903,-0.165,0.070
5904,-0.170,0.065
5905,-0.175,0.055
5906,-0.195,0.085
5907,-0.175,0.115
5908,-0.180,0.145
5909,-0.165,0.160
5910,-0.140,0.160
5911,-0.125,0.180
5912,-0.115,0.190
5913,-0.120,0.200
5914,-0.115,0.220
5915,-0.105,0.245
5916,-0.085,0.275
5917,-0.065,0.300
5918,-0.050,0.325
5919,-0.025,0.345
5920,-0.020,0.375
5921,-0.020,0.400
5922,-0.005,0.400
5923,0.000,0.440
5924,0.025,0.465
5925,0.045,0.485
5926,0.085,0.550
5927,0.095,0.575
5928,0.105,0.605
5929,0.090,0.625
5930,0.090,0.635
5931,0.100,0.650
5932,0.105,0.675
5933,0.130,0.685
5934,0.140,0.700
5935,0.140,0.710
5936,0.140,0.720
5937,0.135,0.720
5938,0.120,0.710
5939,0.115,0.700
5940,0.100,0.680
5941,0.100,0.675
5942,0.075,0.650
5943,0.085,0.615
5944,0.070,0.560
5945,0.035,0.500
5946,0.010,0.435
5947,-0.010,0.380
5948,-0.045,0.320
5949,-0.070,0.285
5950,-0.075,0.270
5951,-0.110,0.195
5952,-0.125,0.150
5953,-0.160,0.110
5954,-0.185,0.075
5955,-0.220,0.040
5956,-0.230,0.010
5957,-0.250,-0.020
5958,-0.240,-0.050
5959,-0.250,-0.060
5960,-0.255,-0.080
5961,-0.250,-0.095
5962,-0.265,-0.110
5963,-0.275,-0.125
5964,-0.290,-0.140
5965,-0.300,-0.125
5966,-0.270,-0.120
5967,-0.280,-0.105
5968,-0.270,-0.090
5969,-0.270,-0.110
5970,-0.290,-0.105
5971,-0.300,-0.115
5972,-0.305,-0.115
5973,-0.310,-0.105
5974,-0.300,-0.090
5975,-0.295,-0.085
5976,-0.290,-0.075
5977,-0.280,-0.075
5978,-0.285,-0.095
5979,-0.275,-0.095
5980,-0.285,-0.100
5981,-0.280,-0.090
5982,-0.285,-0.095
5983,-0.280,-0.085
5984,-0.275,-0.075
5985,-0.265,-0.075
5986,-0.275,-0.085
5987,-0.270,-0.100
5988,-0.280,-0.105
5989,-0.300,-0.105
5990,-0.300,-0.105
5991,-0.295,-0.100
5992,-0.305,-0.105
5993,-0.295,-0.115
5994,-0.290,-0.145
5995,-0.295,-0.160
5996,-0.305,-0.165
5997,-0.320,-0.170
5998,-0.330,-0.180
5999,-0.325,-0.165
6000,-0.315,-0.170
6001,-0.310,-0.160
6002,-0.305,-0.170
6003,-0.310,-0.180
6004,-0.325,-0.185
6005,-0.340,-0.200
6006,-0.345,-0.195
6007,-0.340,-0.195
6008,-0.330,-0.195
6009,-0.330,-0.190
6010,-0.325,-0.185
6011,-0.320,-0.190
6012,-0.340,-0.200
6013,-0.350,-0.205
6014,-0.345,-0.215
6015,-0.345,-0.200
6016,-0.335,-0.205
6017,-0.330,-0.195
6018,-0.320,-0.190
6019,-0.325,-0.190
6020,-0.335,-0.190
6021,-0.340,-0.205
6022,-0.340,-0.210
6023,-0.345,-0.215
6024,-0.330,-0.220
6025,-0.330,-0.215
6026,-0.325,-0.200
6027,-0.320,-0.200
6028,-0.315,-0.205
6029,-0.315,-0.205
6030,-0.335,-0.210
6031,-0.340,-0.200
6032,-0.330,-0.180
6033,-0.330,-0.185
6034,-0.320,-0.210
6035,-0.305,-0.225
6036,-0.285,-0.225
6037,-0.280,-0.200
6038,-0.280,-0.190
6039,-0.270,-0.180
6040,-0.265,-0.155
6041,-0.255,-0.150
6042,-0.220,-0.130
6043,-0.200,-0.115
6044,-0.195,-0.100
6045,-0.190,-0.095
6046,-0.220,-0.105
6047,-0.235,-0.105
6048,-0.240,-0.105
6049,-0.240,-0.125
6050,-0.245,-0.135
6051,-0.255,-0.150
6052,-0.280,-0.170
6053,-0.305,-0.180
6054,-0.325,-0.200
6055,-0.340,-0.210
6056,-0.370,-0.200
6057,-0.370,-0.195
6058,-0.380,-0.195
6059,-0.370,-0.200
6060,-0.360,-0.200
6061,-0.370,-0.210
6062,-0.365,-0.230
6063,-0.380,-0.240
6064,-0.380,-0.265
6065,-0.380,-0.265
6066,-0.380,-0.245
6067,-0.370,-0.230
6068,-0.370,-0.220
6069,-0.370,-0.235
6070,-0.365,-0.240
6071,-0.370,-0.270
6072,-0.370,-0.260
6073,-0.375,-0.230
6074,-0.370,-0.235
6075,-0.365,-0.220
6076,-0.345,-0.225
6077,-0.325,-0.225
6078,-0.315,-0.220
6079,-0.295,-0.210
6080,-0.285,-0.205
6081,-0.245,-0.155
6082,-0.145,-0.095
6083,0.030,-0.015
6084,0.260,0.100
6085,0.545,0.220
6086,0.820,0.325
6087,1.020,0.355
6088,1.045,0.240
6089,0.865,-0.015
6090,0.455,-0.375
6091,-0.080,-0.710
6092,-0.640,-0.945
6093,-1.100,-1.080
6094,-1.280,-1.125
6095,-1.195,-1.140
6096,-0.930,-1.085
6097,-0.665,-0.970
6098,-0.440,-0.795
6099,-0.325,-0.585
6100,-0.285,-0.520
6101,-0.260,-0.240
6102,-0.265,-0.155
6103,-0.270,-0.130
6104,-0.280,-0.120
6105,-0.275,-0.110
6106,-0.260,-0.085
6107,-0.250,-0.075
6108,-0.240,-0.035
6109,-0.230,-0.015
6110,-0.215,0.000
6111,-0.220,0.000
6112,-0.215,0.005
6113,-0.220,0.020
6114,-0.210,0.035
6115,-0.210,0.045
6116,-0.200,0.070
6117,-0.180,0.075
6118,-0.185,0.095
6119,-0.175,0.105
6120,-0.160,0.125
6121,-0.165,0.125
6122,-0.160,0.130
6123,-0.150,0.145
6124,-0.140,0.165
6125,-0.130,0.175
6126,-0.110,0.225
6127,-0.085,0.225
6128,-0.070,0.235
6129,-0.055,0.250
6130,-0.050,0.265
6131,-0.045,0.265
6132,-0.030,0.285
6133,-0.005,0.310
6134,0.015,0.350
6135,0.045,0.385
6136,0.065,0.410
6137,0.075,0.430
6138,0.070,0.450
6139,0.080,0.480
6140,0.085,0.520
6141,0.110,0.555
6142,0.130,0.580
6143,0.140,0.610
6144,0.165,0.615
6145,0.165,0.630
6146,0.145,0.620
6147,0.140,0.625
6148,0.135,0.650
6149,0.135,0.660
6150,0.140,0.665
6151,0.155,0.680
6152,0.155,0.680
6153,0.150,0.655
6154,0.130,0.615
6155,0.105,0.580
6156,0.090,0.555
6157,0.075,0.525
6158,0.065,0.490
6159,0.050,0.455
6160,0.020,0.395
6161,0.000,0.340
6162,-0.035,0.270
6163,-0.075,0.215
6164,-0.090,0.165
6165,-0.125,0.120
6166,-0.155,0.100
6167,-0.160,0.065
6168,-0.165,0.040
6169,-0.195,0.005
6170,-0.210,-0.030
6171,-0.210,-0.070
6172,-0.225,-0.090
6173,-0.245,-0.100
6174,-0.245,-0.100
6175,-0.245,-0.110
6176,-0.255,-0.115
6177,-0.255,-0.125
6178,-0.270,-0.130
6179,-0.270,-0.145
6180,-0.270,-0.135
6181,-0.270,-0.135
6182,-0.260,-0.120
6183,-0.260,-0.120
6184,-0.255,-0.125
6185,-0.235,-0.115
6186,-0.230,-0.140
6187,-0.235,-0.125
6188,-0.230,-0.130
6189,-0.235,-0.135
6190,-0.240,-0.135
6191,-0.240,-0.115
6192,-0.240,-0.110
6193,-0.230,-0.100
6194,-0.220,-0.090
6195,-0.220,-0.090
6196,-0.225,-0.105
6197,-0.235,-0.135
6198,-0.245,-0.135
6199,-0.240,-0.145
6200,-0.235,-0.135
6201,-0.225,-0.115
6202,-0.215,-0.110
6203,-0.230,-0.125
6204,-0.240,-0.130
6205,-0.250,-0.145
6206,-0.255,-0.160
6207,-0.265,-0.145
6208,-0.250,-0.150
6209,-0.255,-0.140
6210,-0.260,-0.135
6211,-0.255,-0.140
6212,-0.270,-0.145
6213,-0.280,-0.150
6214,-0.295,-0.160
6215,-0.295,-0.160
6216,-0.280,-0.175
6217,-0.285,-0.170
6218,-0.285,-0.165
6219,-0.295,-0.160
6220,-0.300,-0.165
6221,-0.315,-0.185
6222,-0.315,-0.185
6223,-0.330,-0.185
6224,-0.320,-0.180
6225,-0.315,-0.175
6226,-0.315,-0.165
6227,-0.315,-0.180
6228,-0.305,-0.195
6229,-0.325,-0.210
6230,-0.330,-0.225
6231,-0.325,-0.225
6232,-0.325,-0.220
6233,-0.320,-0.205
6234,-0.320,-0.200
6235,-0.310,-0.210
6236,-0.315,-0.220
6237,-0.310,-0.235
6238,-0.320,-0.235
6239,-0.335,-0.225
6240,-0.330,-0.225
6241,-0.330,-0.225
6242,-0.335,-0.210
6243,-0.325,-0.200
6244,-0.315,-0.205
6245,-0.325,-0.210
6246,-0.320,-0.225
6247,-0.335,-0.235
6248,-0.340,-0.220
6249,-0.340,-0.210
6250,-0.335,-0.215
6251,-0.315,-0.180
6252,-0.305,-0.195
6253,-0.305,-0.205
6254,-0.315,-0.210
6255,-0.330,-0.225
6256,-0.330,-0.225
6257,-0.325,-0.205
6258,-0.305,-0.185
6259,-0.285,-0.170
6260,-0.260,-0.165
6261,-0.245,-0.165
6262,-0.240,-0.165
6263,-0.235,-0.165
6264,-0.225,-0.155
6265,-0.210,-0.150
6266,-0.190,-0.125
6267,-0.175,-0.105
6268,-0.170,-0.085
6269,-0.175,-0.080
6270,-0.185,-0.090
6271,-0.205,-0.100
6272,-0.215,-0.125
6273,-0.230,-0.135
6274,-0.250,-0.145
6275,-0.265,-0.145
6276,-0.280,-0.170
6277,-0.290,-0.165
6278,-0.295,-0.180
6279,-0.315,-0.185
6280,-0.335,-0.190
6281,-0.355,-0.200
6282,-0.380,-0.210
6283,-0.380,-0.225
6284,-0.370,-0.225
6285,-0.360,-0.215
6286,-0.350,-0.220
6287,-0.365,-0.215
6288,-0.370,-0.230
6289,-0.370,-0.240
6290,-0.375,-0.225
6291,-0.370,-0.235
6292,-0.375,-0.215
6293,-0.370,-0.220
6294,-0.350,-0.205
6295,-0.340,-0.210
6296,-0.350,-0.215
6297,-0.365,-0.215
6298,-0.380,-0.220
6299,-0.360,-0.210
6300,-0.360,-0.205
6301,-0.335,-0.190
6302,-0.310,-0.190
6303,-0.295,-0.175
6304,-0.290,-0.175
6305,-0.260,-0.145
6306,-0.175,-0.090
6307,-0.010,-0.015
6308,0.260,0.095
6309,0.570,0.235
6310,0.875,0.370
6311,1.115,0.450
6312,1.190,0.380
6313,1.020,0.110
6314,0.605,-0.285
6315,0.040,-0.675
6316,-0.560,-0.970
6317,-1.070,-1.115
6318,-1.370,-1.200
6319,-1.315,-1.205
6320,-1.045,-1.135
6321,-0.725,-1.025
6322,-0.460,-0.840
6323,-0.305,-0.615
6324,-0.250,-0.410
6325,-0.240,-0.340
6326,-0.260,-0.130
6327,-0.280,-0.085
6328,-0.285,-0.055
6329,-0.275,-0.055
6330,-0.270,-0.045
6331,-0.255,-0.020
6332,-0.240,0.005
6333,-0.235,0.025
6334,-0.230,0.035
6335,-0.220,0.055
6336,-0.210,0.060
6337,-0.205,0.070
6338,-0.210,0.075
6339,-0.205,0.075
6340,-0.210,0.085
6341,-0.200,0.120
6342,-0.205,0.130
6343,-0.180,0.145
6344,-0.170,0.145
6345,-0.175,0.155
6346,-0.160,0.165
6347,-0.160,0.175
6348,-0.150,0.185
6349,-0.135,0.215
6350,-0.125,0.225
6351,-0.095,0.260
6352,-0.075,0.275
6353,-0.060,0.295
6354,-0.075,0.300
6355,-0.070,0.320
6356,-0.065,0.345
6357,-0.040,0.370
6358,-0.015,0.410
6359,0.000,0.445
6360,0.025,0.470
6361,0.050,0.490
6362,0.050,0.510
6363,0.055,0.530
6364,0.065,0.550
6365,0.070,0.590
6366,0.090,0.630
6367,0.110,0.650
6368,0.130,0.675
6369,0.135,0.700
6370,0.135,0.705
6371,0.115,0.710
6372,0.100,0.705
6373,0.095,0.735
6374,0.085,0.735
6375,0.090,0.735
6376,0.095,0.755
6377,0.090,0.745
6378,0.085,0.730
6379,0.060,0.700
6380,0.050,0.660
6381,0.050,0.630
6382,0.035,0.585
6383,0.020,0.555
6384,0.005,0.520
6385,-0.025,0.465
6386,-0.060,0.415
6387,-0.095,0.355
6388,-0.110,0.285
6389,-0.140,0.225
6390,-0.175,0.175
6391,-0.200,0.140
6392,-0.215,0.120
6393,-0.235,0.100
6394,-0.260,0.060
6395,-0.260,0.045
6396,-0.280,0.030
6397,-0.290,0.000
6398,-0.310,-0.030
6399,-0.300,-0.045
6400,-0.300,-0.050
6401,-0.280,-0.070
6402,-0.270,-0.080
6403,-0.285,-0.085
6404,-0.300,-0.090
6405,-0.320,-0.095
6406,-0.315,-0.090
6407,-0.305,-0.070
6408,-0.295,-0.055
6409,-0.290,-0.040
6410,-0.270,-0.035
6411,-0.280,-0.045
6412,-0.285,-0.045
6413,-0.290,-0.070
6414,-0.290,-0.075
6415,-0.280,-0.080
6416,-0.265,-0.075
6417,-0.250,-0.055
6418,-0.240,-0.055
6419,-0.250,-0.065
6420,-0.245,-0.070
6421,-0.265,-0.080
6422,-0.260,-0.100
6423,-0.260,-0.110
6424,-0.260,-0.095
6425,-0.255,-0.095
6426,-0.250,-0.080
6427,-0.255,-0.090
6428,-0.265,-0.095
6429,-0.265,-0.115
6430,-0.275,-0.125
6431,-0.280,-0.130
6432,-0.290,-0.120
6433,-0.295,-0.120
6434,-0.290,-0.110
6435,-0.275,-0.100
6436,-0.270,-0.110
6437,-0.270,-0.110
6438,-0.280,-0.140
6439,-0.300,-0.150
6440,-0.310,-0.145
6441,-0.310,-0.145
6442,-0.300,-0.135
6443,-0.295,-0.125
6444,-0.285,-0.130
6445,-0.300,-0.135
6446,-0.310,-0.150
6447,-0.315,-0.170
6448,-0.330,-0.170
6449,-0.330,-0.155
6450,-0.325,-0.150
6451,-0.305,-0.125
6452,-0.305,-0.135
6453,-0.305,-0.150
6454,-0.310,-0.175
6455,-0.315,-0.175
6456,-0.320,-0.190
6457,-0.315,-0.180
6458,-0.305,-0.170
6459,-0.300,-0.165
6460,-0.290,-0.170
6461,-0.305,-0.190
6462,-0.320,-0.200
6463,-0.335,-0.195
6464,-0.335,-0.210
6465,-0.330,-0.195
6466,-0.315,-0.200
6467,-0.310,-0.190
6468,-0.315,-0.175
6469,-0.315,-0.180
6470,-0.315,-0.190
6471,-0.315,-0.185
6472,-0.315,-0.185
6473,-0.315,-0.180
6474,-0.320,-0.175
6475,-0.325,-0.170
6476,-0.305,-0.150
6477,-0.305,-0.150
6478,-0.300,-0.160
6479,-0.290,-0.160
6480,-0.310,-0.175
6481,-0.300,-0.185
6482,-0.310,-0.180
6483,-0.300,-0.165
6484,-0.300,-0.160
6485,-0.265,-0.140
6486,-0.250,-0.135
6487,-0.245,-0.140
6488,-0.230,-0.125
6489,-0.220,-0.110
6490,-0.200,-0.095
6491,-0.175,-0.080
6492,-0.160,-0.060
6493,-0.145,-0.020
6494,-0.140,-0.005
6495,-0.140,-0.005
6496,-0.160,-0.005
6497,-0.180,-0.010
6498,-0.195,-0.015
6499,-0.205,-0.040
6500,-0.210,-0.050
6501,-0.230,-0.095
6502,-0.250,-0.110
6503,-0.255,-0.115
6504,-0.280,-0.120
6505,-0.305,-0.125
6506,-0.320,-0.135
6507,-0.340,-0.155
6508,-0.340,-0.155
