'sample interval','ECG1','ECG2'
'0.004 sec','mV','mV'
0,-0.095,0.080
1,-0.080,0.100
2,-0.055,0.130
3,-0.040,0.140
4,-0.025,0.140
5,0.000,0.150
6,0.005,0.170
7,0.020,0.195
8,0.055,0.225
9,0.115,0.235
10,0.165,0.285
11,0.180,0.305
12,0.170,0.285
13,0.235,0.300
14,0.290,0.320
15,0.305,0.340
16,0.320,0.335
17,0.330,0.345
18,0.360,0.355
19,0.395,0.355
20,0.405,0.310
21,0.410,0.300
22,0.420,0.285
23,0.400,0.255
24,0.355,0.220
25,0.335,0.205
26,0.260,0.150
27,0.195,0.135
28,0.115,0.080
29,0.040,0.030
30,0.000,0.005
31,-0.025,0.000
32,-0.075,-0.010
33,-0.095,-0.030
34,-0.115,-0.055
35,-0.165,-0.060
36,-0.185,-0.075
37,-0.175,-0.100
38,-0.190,-0.115
39,-0.230,-0.095
40,-0.245,-0.090
41,-0.220,-0.115
42,-0.230,-0.135
43,-0.225,-0.110
44,-0.220,-0.100
45,-0.230,-0.100
46,-0.215,-0.105
47,-0.200,-0.115
48,-0.220,-0.100
49,-0.235,-0.100
50,-0.240,-0.105
51,-0.215,-0.110
52,-0.200,-0.085
53,-0.210,-0.070
54,-0.215,-0.050
55,-0.185,-0.045
56,-0.185,-0.120
57,-0.175,-0.145
58,-0.180,-0.110
59,-0.195,-0.100
60,-0.210,-0.085
61,-0.200,-0.080
62,-0.170,-0.095
63,-0.170,-0.100
64,-0.205,-0.085
65,-0.205,-0.075
66,-0.200,-0.075
67,-0.195,-0.080
68,-0.195,-0.075
69,-0.210,-0.070
70,-0.205,-0.090
71,-0.200,-0.080
72,-0.175,-0.035
73,-0.165,-0.020
74,-0.200,-0.080
75,-0.215,-0.100
76,-0.205,-0.110
77,-0.190,-0.080
78,-0.195,-0.075
79,-0.225,-0.095
80,-0.220,-0.095
81,-0.175,-0.080
82,-0.180,-0.065
83,-0.200,-0.080
84,-0.190,-0.115
85,-0.210,-0.140
86,-0.215,-0.135
87,-0.220,-0.130
88,-0.255,-0.145
89,-0.240,-0.115
90,-0.215,-0.085
91,-0.210,-0.110
92,-0.205,-0.115
93,-0.180,-0.070
94,-0.140,-0.025
95,-0.120,-0.005
96,-0.105,0.005
97,-0.070,0.035
98,-0.050,0.045
99,-0.035,0.050
100,-0.030,0.045
101,0.000,0.055
102,0.000,0.050
103,-0.015,-0.015
104,-0.050,-0.070
105,-0.045,-0.045
106,-0.015,-0.015
107,-0.030,-0.005
108,-0.080,0.060
109,-0.090,0.110
110,-0.095,-0.020
111,-0.120,-0.180
112,-0.195,-0.255
113,-0.295,-0.255
114,-0.290,-0.190
115,-0.285,-0.180
116,-0.270,-0.175
117,-0.255,-0.165
118,-0.265,-0.165
119,-0.280,-0.150
120,-0.285,-0.170
121,-0.270,-0.190
122,-0.260,-0.160
123,-0.285,-0.105
124,-0.295,-0.070
125,-0.300,-0.060
126,-0.330,-0.035
127,-0.380,0.015
128,-0.360,0.080
129,-0.305,0.190
130,-0.085,0.235
131,0.295,0.070
132,0.770,-0.495
133,1.430,-1.155
134,2.240,-1.445
135,2.560,-1.405
136,1.930,-1.435
137,0.490,-1.475
138,-0.790,-1.355
139,-1.115,-1.040
140,-0.815,-0.745
141,-0.615,-0.510
142,-0.490,-0.335
143,-0.375,-0.205
144,-0.335,-0.120
145,-0.310,-0.050
146,-0.240,0.000
147,-0.215,-0.040
148,-0.220,-0.080
149,-0.225,-0.075
150,-0.230,-0.070
151,-0.230,0.010
152,-0.245,0.060
153,-0.235,0.045
154,-0.205,-0.015
155,-0.195,-0.045
156,-0.205,-0.020
157,-0.235,-0.030
158,-0.205,-0.090
159,-0.175,-0.110
160,-0.170,-0.045
161,-0.165,-0.005
162,-0.175,0.000
163,-0.155,0.010
164,-0.145,0.025
165,-0.150,0.015
166,-0.140,0.040
167,-0.145,0.065
168,-0.145,0.075
169,-0.125,0.085
170,-0.115,0.150
171,-0.125,0.150
172,-0.105,0.095
173,-0.060,0.095
174,-0.065,0.225
175,-0.075,0.290
176,-0.045,0.140
177,0.005,-0.010
178,0.035,0.100
179,0.045,0.220
180,0.070,0.225
181,0.110,0.210
182,0.135,0.210
183,0.165,0.225
184,0.235,0.250
185,0.255,0.265
186,0.295,0.280
187,0.310,0.270
188,0.305,0.290
189,0.340,0.320
190,0.365,0.320
191,0.395,0.305
192,0.415,0.300
193,0.410,0.310
194,0.375,0.270
195,0.360,0.255
196,0.355,0.235
197,0.325,0.190
198,0.260,0.170
199,0.190,0.145
200,0.165,0.130
201,0.015,0.035
202,0.000,0.005
203,-0.015,0.000
204,-0.035,-0.025
205,-0.065,-0.015
206,-0.115,-0.015
207,-0.175,-0.055
208,-0.190,-0.075
209,-0.205,-0.070
210,-0.245,-0.060
211,-0.250,-0.080
212,-0.260,-0.085
213,-0.255,-0.080
214,-0.230,-0.075
215,-0.240,-0.075
216,-0.260,-0.100
217,-0.270,-0.110
218,-0.265,-0.110
219,-0.265,-0.100
220,-0.265,-0.090
221,-0.255,-0.105
222,-0.230,-0.090
223,-0.210,-0.070
224,-0.245,-0.070
225,-0.265,-0.075
226,-0.260,-0.095
227,-0.220,-0.095
228,-0.185,-0.060
229,-0.225,-0.070
230,-0.270,-0.060
231,-0.210,-0.045
232,-0.185,-0.065
233,-0.245,-0.070
234,-0.260,-0.060
235,-0.260,-0.070
236,-0.260,-0.060
237,-0.255,-0.060
238,-0.240,-0.080
239,-0.250,-0.070
240,-0.230,-0.050
241,-0.205,-0.050
242,-0.245,-0.055
243,-0.265,-0.045
244,-0.245,-0.055
245,-0.255,-0.090
246,-0.270,-0.070
247,-0.255,-0.060
248,-0.255,-0.075
249,-0.245,-0.075
250,-0.235,-0.075
251,-0.235,-0.060
252,-0.245,-0.045
253,-0.245,-0.060
254,-0.250,-0.090
255,-0.285,-0.130
256,-0.285,-0.130
257,-0.245,-0.110
258,-0.240,-0.100
259,-0.250,-0.095
260,-0.240,-0.085
261,-0.220,-0.070
262,-0.205,-0.045
263,-0.165,-0.025
264,-0.145,-0.005
265,-0.120,0.005
266,-0.085,0.015
267,-0.080,0.025
268,-0.080,0.075
269,-0.080,0.085
270,-0.070,0.015
271,-0.085,-0.050
272,-0.105,-0.055
273,-0.095,-0.025
274,-0.095,-0.030
275,-0.105,-0.035
276,-0.115,-0.020
277,-0.130,-0.005
278,-0.110,-0.030
279,-0.160,-0.135
280,-0.290,-0.215
281,-0.375,-0.180
282,-0.355,-0.145
283,-0.330,-0.150
284,-0.310,-0.155
285,-0.280,-0.160
286,-0.310,-0.165
287,-0.335,-0.195
288,-0.350,-0.175
289,-0.345,-0.150
290,-0.305,-0.170
291,-0.305,-0.175
292,-0.320,-0.165
293,-0.355,-0.135
294,-0.400,-0.095
295,-0.440,-0.055
296,-0.455,-0.050
297,-0.410,0.020
298,-0.290,0.145
299,0.020,0.130
300,0.140,0.095
301,1.080,-0.580
302,1.720,-0.955
303,2.230,-1.030
304,2.150,-1.060
305,1.055,-1.205
306,-0.460,-1.305
307,-1.245,-1.165
308,-1.020,-0.865
309,-0.745,-0.615
310,-0.625,-0.400
311,-0.485,-0.260
312,-0.405,-0.210
313,-0.370,-0.175
314,-0.345,-0.115
315,-0.290,-0.070
316,-0.260,-0.075
317,-0.295,-0.080
318,-0.285,-0.040
319,-0.280,-0.035
320,-0.265,-0.085
321,-0.245,-0.105
322,-0.250,-0.080
323,-0.250,-0.055
324,-0.245,-0.055
325,-0.240,-0.050
326,-0.245,-0.030
327,-0.220,-0.035
328,-0.220,-0.020
329,-0.225,-0.040
330,-0.230,-0.065
331,-0.220,-0.020
332,-0.180,-0.005
333,-0.180,-0.035
334,-0.185,-0.030
335,-0.155,0.000
336,-0.145,0.000
337,-0.170,0.000
338,-0.165,-0.005
339,-0.130,0.015
340,-0.110,0.030
341,-0.105,0.030
342,-0.105,0.025
343,-0.085,0.025
344,-0.055,0.060
345,-0.025,0.070
346,-0.005,0.085
347,0.020,0.115
348,0.050,0.135
349,0.080,0.145
350,0.090,0.150
351,0.130,0.175
352,0.195,0.190
353,0.240,0.195
354,0.245,0.195
355,0.250,0.205
356,0.290,0.215
357,0.315,0.215
358,0.325,0.210
359,0.340,0.200
360,0.355,0.190
361,0.355,0.200
362,0.380,0.190
363,0.375,0.155
364,0.310,0.135
365,0.280,0.135
366,0.260,0.100
367,0.225,0.075
368,0.145,0.055
369,0.045,0.020
370,-0.015,-0.005
371,-0.030,-0.030
372,-0.070,-0.035
373,-0.095,-0.025
374,-0.115,-0.050
375,-0.125,-0.065
376,-0.160,-0.080
377,-0.150,-0.075
378,-0.190,-0.085
379,-0.220,-0.110
380,-0.215,-0.110
381,-0.195,-0.085
382,-0.185,-0.095
383,-0.220,-0.130
384,-0.235,-0.130
385,-0.200,-0.105
386,-0.215,-0.095
387,-0.240,-0.095
388,-0.220,-0.100
389,-0.210,-0.105
390,-0.210,-0.090
391,-0.215,-0.100
392,-0.220,-0.105
393,-0.215,-0.115
394,-0.185,-0.085
395,-0.215,-0.080
396,-0.240,-0.095
397,-0.235,-0.100
398,-0.230,-0.085
399,-0.205,-0.075
400,-0.195,-0.070
401,-0.190,-0.050
402,-0.190,-0.055
403,-0.180,-0.085
404,-0.175,-0.105
405,-0.180,-0.105
406,-0.175,-0.080
407,-0.175,-0.080
408,-0.170,-0.075
409,-0.150,-0.075
410,-0.125,-0.065
411,-0.145,-0.085
412,-0.185,-0.110
413,-0.185,-0.105
414,-0.145,-0.075
415,-0.125,-0.075
416,-0.170,-0.100
417,-0.180,-0.090
418,-0.130,-0.055
419,-0.125,-0.055
420,-0.185,-0.080
421,-0.190,-0.115
422,-0.170,-0.110
423,-0.165,-0.085
424,-0.165,-0.095
425,-0.170,-0.095
426,-0.200,-0.080
427,-0.215,-0.080
428,-0.220,-0.090
429,-0.190,-0.105
430,-0.150,-0.085
431,-0.100,-0.030
432,-0.070,0.005
433,-0.055,0.015
434,-0.055,0.025
435,-0.020,0.055
436,-0.020,0.060
437,-0.015,0.050
438,0.010,0.050
439,0.040,0.045
440,0.035,-0.005
441,0.000,-0.060
442,-0.015,-0.055
443,0.000,-0.025
444,-0.015,-0.015
445,-0.060,-0.005
446,-0.055,0.090
447,-0.035,0.110
448,-0.060,-0.090
449,-0.120,-0.140
450,-0.145,-0.120
451,-0.235,-0.160
452,-0.215,-0.195
453,-0.215,-0.195
454,-0.240,-0.185
455,-0.225,-0.195
456,-0.230,-0.160
457,-0.265,-0.130
458,-0.235,-0.140
459,-0.220,-0.180
460,-0.220,-0.190
461,-0.240,-0.175
462,-0.265,-0.145
463,-0.290,-0.080
464,-0.320,0.000
465,-0.340,0.035
466,-0.345,0.030
467,-0.245,0.140
468,0.000,0.215
469,0.370,0.010
470,0.815,-0.460
471,1.455,-0.995
472,2.215,-1.275
473,2.490,-1.310
474,1.655,-1.340
475,1.260,-1.360
476,-0.965,-1.240
477,-1.065,-0.975
478,-0.760,-0.700
479,-0.590,-0.445
480,-0.455,-0.275
481,-0.345,-0.185
482,-0.280,-0.140
483,-0.245,-0.105
484,-0.225,-0.080
485,-0.220,-0.045
486,-0.225,-0.035
487,-0.210,-0.050
488,-0.205,-0.030
489,-0.210,0.000
490,-0.205,-0.010
491,-0.200,-0.025
492,-0.200,-0.010
493,-0.160,0.005
494,-0.155,0.015
495,-0.180,0.025
496,-0.175,0.025
497,-0.160,-0.030
498,-0.170,-0.050
499,-0.170,-0.015
500,-0.165,0.000
501,-0.115,0.050
502,-0.110,0.035
503,-0.170,0.090
504,-0.165,0.210
505,-0.135,0.100
506,-0.145,-0.055
507,-0.140,-0.080
508,-0.125,-0.020
509,-0.085,0.020
510,-0.050,0.065
511,-0.045,0.080
512,-0.025,0.075
513,-0.005,0.100
514,-0.010,0.135
515,0.005,0.150
516,0.020,0.150
517,0.060,0.160
518,0.100,0.215
519,0.130,0.230
520,0.180,0.240
521,0.195,0.265
522,0.220,0.295
523,0.265,0.325
524,0.280,0.325
525,0.275,0.315
526,0.290,0.320
527,0.340,0.310
528,0.365,0.285
529,0.395,0.255
530,0.390,0.290
531,0.420,0.330
532,0.420,0.265
533,0.350,0.205
534,0.315,0.195
535,0.290,0.145
536,0.230,0.085
537,0.155,0.040
538,0.095,0.025
539,0.040,0.035
540,0.010,0.060
541,-0.035,0.055
542,-0.090,-0.045
543,-0.120,-0.085
544,-0.120,-0.035
545,-0.130,-0.055
546,-0.195,-0.090
547,-0.230,-0.100
548,-0.185,-0.075
549,-0.185,-0.065
550,-0.195,-0.060
551,-0.220,-0.085
552,-0.225,-0.080
553,-0.265,-0.100
554,-0.265,-0.110
555,-0.215,-0.090
556,-0.200,-0.065
557,-0.200,-0.075
558,-0.215,-0.115
559,-0.250,-0.130
560,-0.245,-0.095
561,-0.230,-0.080
562,-0.235,-0.075
563,-0.220,-0.085
564,-0.215,-0.075
565,-0.240,-0.070
566,-0.240,-0.075
567,-0.240,-0.095
568,-0.220,-0.075
569,-0.190,-0.060
570,-0.210,-0.070
571,-0.225,-0.075
572,-0.195,-0.060
573,-0.205,-0.030
574,-0.205,-0.040
575,-0.200,-0.055
576,-0.220,-0.065
577,-0.180,-0.060
578,-0.190,-0.075
579,-0.230,-0.070
580,-0.225,-0.060
581,-0.205,-0.055
582,-0.200,-0.050
583,-0.205,-0.070
584,-0.210,-0.075
585,-0.205,-0.050
586,-0.205,-0.025
587,-0.220,-0.080
588,-0.210,-0.110
589,-0.215,-0.100
590,-0.210,-0.060
591,-0.195,-0.045
592,-0.205,-0.090
593,-0.235,-0.110
594,-0.230,-0.100
595,-0.235,-0.095
596,-0.240,-0.110
597,-0.245,-0.115
598,-0.245,-0.100
599,-0.220,-0.075
600,-0.210,-0.065
601,-0.160,-0.030
602,-0.145,-0.025
603,-0.155,-0.035
604,-0.130,-0.010
605,-0.100,0.000
606,-0.075,0.020
607,-0.070,0.040
608,-0.035,0.045
609,-0.005,0.025
610,-0.030,0.000
611,-0.050,-0.005
612,-0.040,-0.030
613,-0.035,-0.035
614,-0.060,0.000
615,-0.095,0.000
616,-0.125,0.000
617,-0.090,-0.045
618,-0.140,-0.140
619,-0.235,-0.175
620,-0.300,-0.175
621,-0.310,-0.170
622,-0.300,-0.160
623,-0.295,-0.155
624,-0.310,-0.170
625,-0.315,-0.175
626,-0.300,-0.175
627,-0.305,-0.130
628,-0.275,-0.130
629,-0.280,-0.170
630,-0.295,-0.185
631,-0.290,-0.155
632,-0.295,-0.120
633,-0.355,-0.085
634,-0.415,-0.050
635,-0.410,0.005
636,-0.380,0.040
637,-0.255,0.110
638,0.075,0.095
639,0.485,-0.135
640,1.040,-0.585
641,1.685,-0.980
642,2.225,-1.035
643,2.185,-1.035
644,1.095,-1.185
645,-0.455,-1.295
646,-1.235,-1.155
647,-1.020,-0.850
648,-0.695,-0.580
649,-0.560,-0.385
650,-0.520,-0.335
651,-0.370,-0.150
652,-0.310,-0.100
653,-0.270,-0.100
654,-0.255,-0.080
655,-0.250,-0.060
656,-0.225,-0.050
657,-0.200,-0.040
658,-0.200,-0.040
659,-0.195,-0.035
660,-0.195,-0.025
661,-0.185,-0.035
662,-0.220,-0.050
663,-0.225,-0.040
664,-0.185,-0.010
665,-0.165,-0.005
666,-0.210,-0.035
667,-0.220,-0.035
668,-0.155,-0.010
669,-0.130,0.000
670,-0.160,-0.020
671,-0.200,-0.035
672,-0.190,-0.015
673,-0.155,0.005
674,-0.135,0.000
675,-0.135,0.000
676,-0.115,0.000
677,-0.100,0.010
678,-0.105,0.020
679,-0.130,0.030
680,-0.110,0.050
681,-0.055,0.060
682,-0.030,0.070
683,-0.030,0.080
684,-0.020,0.090
685,0.005,0.110
686,0.015,0.120
687,0.040,0.130
688,0.080,0.155
689,0.130,0.180
690,0.170,0.180
691,0.195,0.175
692,0.230,0.185
693,0.280,0.220
694,0.290,0.230
695,0.270,0.220
696,0.295,0.215
697,0.330,0.215
698,0.365,0.220
699,0.385,0.215
700,0.380,0.210
701,0.340,0.165
702,0.335,0.155
703,0.315,0.145
704,0.325,0.110
705,0.240,0.075
706,0.155,0.050
707,0.105,0.005
708,0.025,-0.015
709,-0.020,-0.020
710,-0.050,-0.035
711,-0.090,-0.040
712,-0.105,-0.065
713,-0.115,-0.080
714,-0.135,-0.085
715,-0.150,-0.075
716,-0.185,-0.080
717,-0.200,-0.090
718,-0.205,-0.095
719,-0.215,-0.105
720,-0.225,-0.115
721,-0.205,-0.110
722,-0.215,-0.110
723,-0.260,-0.090
724,-0.245,-0.100
725,-0.235,-0.115
726,-0.200,-0.115
727,-0.185,-0.090
728,-0.190,-0.095
729,-0.230,-0.125
730,-0.250,-0.120
731,-0.215,-0.100
732,-0.170,-0.090
733,-0.185,-0.095
734,-0.235,-0.100
735,-0.250,-0.085
736,-0.215,-0.090
737,-0.205,-0.110
738,-0.235,-0.115
739,-0.240,-0.100
740,-0.205,-0.080
741,-0.205,-0.080
742,-0.195,-0.090
743,-0.185,-0.095
744,-0.185,-0.095
745,-0.175,-0.090
746,-0.175,-0.075
747,-0.155,-0.070
748,-0.160,-0.060
749,-0.165,-0.090
750,-0.165,-0.110
751,-0.195,-0.125
752,-0.195,-0.100
753,-0.160,-0.090
754,-0.150,-0.090
755,-0.175,-0.100
756,-0.185,-0.090
757,-0.180,-0.105
758,-0.165,-0.115
759,-0.155,-0.105
760,-0.170,-0.090
761,-0.210,-0.105
762,-0.195,-0.115
763,-0.175,-0.115
764,-0.170,-0.110
765,-0.165,-0.100
766,-0.180,-0.095
767,-0.210,-0.105
768,-0.195,-0.115
769,-0.175,-0.090
770,-0.140,-0.075
771,-0.100,-0.055
772,-0.070,-0.020
773,-0.060,0.010
774,-0.070,0.010
775,-0.075,0.005
776,-0.030,0.015
777,-0.020,0.035
778,-0.030,0.035
779,-0.015,0.020
780,-0.020,-0.015
781,-0.045,-0.015
782,-0.040,0.075
783,-0.020,0.010
784,-0.040,-0.115
785,-0.050,-0.105
786,-0.060,-0.075
787,-0.050,-0.085
788,-0.070,-0.110
789,-0.145,-0.140
790,-0.245,-0.150
791,-0.260,-0.130
792,-0.240,-0.135
793,-0.255,-0.145
794,-0.270,-0.180
795,-0.275,-0.190
796,-0.285,-0.180
797,-0.270,-0.160
798,-0.250,-0.140
799,-0.260,-0.140
800,-0.265,-0.145
801,-0.265,-0.155
802,-0.285,-0.110
803,-0.315,-0.035
804,-0.330,-0.005
805,-0.330,-0.015
806,-0.330,0.050
807,-0.255,0.145
808,0.050,0.060
809,0.450,-0.210
810,0.975,-0.695
811,1.605,-1.110
812,2.230,-1.170
813,2.300,-1.135
814,1.400,-1.210
815,-0.100,-1.275
816,-1.060,-1.115
817,-0.940,-0.810
818,-0.655,-0.575
819,-0.550,-0.400
820,-0.440,-0.280
821,-0.340,-0.200
822,-0.265,-0.115
823,-0.250,-0.065
824,-0.240,-0.050
825,-0.230,-0.050
826,-0.210,-0.035
827,-0.200,-0.020
828,-0.195,-0.010
829,-0.195,-0.020
830,-0.205,-0.025
831,-0.195,-0.025
832,-0.200,-0.030
833,-0.170,-0.020
834,-0.160,-0.015
835,-0.190,0.050
836,-0.200,0.080
837,-0.195,-0.015
838,-0.170,-0.055
839,-0.160,-0.020
840,-0.155,-0.005
841,-0.155,-0.010
842,-0.155,-0.015
843,-0.115,-0.005
844,-0.090,0.035
845,-0.110,0.020
846,-0.125,0.000
847,-0.120,0.030
848,-0.115,0.055
849,-0.115,0.070
850,-0.115,0.080
851,-0.015,0.210
852,0.005,0.180
853,-0.020,0.085
854,-0.005,0.065
855,-0.005,0.105
856,0.005,0.150
857,0.070,0.185
858,0.115,0.180
859,0.105,0.170
860,0.120,0.235
861,0.175,0.260
862,0.210,0.260
863,0.255,0.260
864,0.290,0.270
865,0.320,0.295
866,0.320,0.305
867,0.330,0.295
868,0.360,0.295
869,0.405,0.335
870,0.415,0.330
871,0.420,0.285
872,0.395,0.255
873,0.360,0.230
874,0.305,0.195
875,0.280,0.180
876,0.180,0.105
877,0.145,0.100
878,0.090,0.085
879,0.025,0.025
880,-0.005,0.000
881,-0.070,-0.025
882,-0.100,-0.035
883,-0.130,-0.045
884,-0.160,-0.060
885,-0.160,-0.050
886,-0.155,-0.035
887,-0.200,-0.055
888,-0.205,-0.065
889,-0.170,-0.045
890,-0.180,-0.040
891,-0.210,-0.075
892,-0.240,-0.095
893,-0.245,-0.090
894,-0.230,-0.065
895,-0.230,-0.055
896,-0.235,-0.065
897,-0.215,-0.065
898,-0.195,-0.055
899,-0.200,-0.070
900,-0.205,-0.075
901,-0.215,-0.085
902,-0.205,-0.060
903,-0.200,-0.030
904,-0.215,-0.060
905,-0.230,-0.080
906,-0.210,-0.045
907,-0.190,-0.035
908,-0.190,-0.050
909,-0.185,-0.045
910,-0.170,-0.040
911,-0.160,-0.040
912,-0.195,-0.045
913,-0.195,-0.030
914,-0.185,-0.020
915,-0.185,-0.005
916,-0.185,0.000
917,-0.175,-0.035
918,-0.185,-0.055
919,-0.195,-0.055
920,-0.185,-0.050
921,-0.175,-0.050
922,-0.175,-0.020
923,-0.165,-0.015
924,-0.170,-0.005
925,-0.175,0.005
926,-0.200,-0.030
927,-0.190,-0.045
928,-0.200,-0.060
929,-0.210,-0.075
930,-0.200,-0.075
931,-0.200,-0.060
932,-0.210,-0.060
933,-0.205,-0.070
934,-0.185,-0.070
935,-0.185,-0.050
936,-0.205,-0.055
937,-0.210,-0.075
938,-0.200,-0.065
939,-0.200,-0.035
940,-0.215,-0.045
941,-0.205,-0.075
942,-0.200,-0.100
943,-0.195,-0.085
944,-0.180,-0.060
945,-0.210,-0.050
946,-0.210,-0.065
947,-0.155,-0.050
948,-0.125,-0.010
949,-0.110,0.010
950,-0.105,0.020
951,-0.085,0.075
952,-0.035,0.090
953,0.005,0.080
954,0.010,0.060
955,-0.010,0.035
956,-0.005,0.015
957,-0.010,-0.010
958,-0.040,-0.030
959,-0.040,-0.005
960,-0.040,0.005
961,-0.035,0.005
962,-0.040,-0.010
963,-0.050,-0.005
964,-0.055,0.000
965,-0.075,-0.040
966,-0.130,-0.100
967,-0.220,-0.140
968,-0.235,-0.145
969,-0.155,-0.135
970,-0.120,-0.135
971,-0.200,-0.135
972,-0.270,-0.135
973,-0.315,-0.150
974,-0.320,-0.160
975,-0.330,-0.160
976,-0.325,-0.150
977,-0.305,-0.115
978,-0.280,-0.110
979,-0.295,-0.095
980,-0.325,-0.030
981,-0.345,0.020
982,-0.345,0.050
983,-0.265,0.125
984,-0.020,0.140
985,0.390,-0.080
986,0.870,-0.545
987,1.460,-1.075
988,2.195,-1.265
989,2.615,-1.215
990,2.070,-1.230
991,0.715,-1.305
992,-0.635,-1.215
993,-1.065,-0.930
994,-0.760,-0.640
995,-0.565,-0.445
996,-0.460,-0.290
997,-0.350,-0.180
998,-0.290,-0.100
999,-0.250,-0.075
1000,-0.240,-0.070
1001,-0.225,-0.035
1002,-0.195,0.000
1003,-0.195,0.015
1004,-0.190,-0.015
1005,-0.145,-0.030
1006,-0.145,-0.030
1007,-0.160,0.000
1008,-0.170,0.000
1009,-0.195,-0.005
1010,-0.195,0.010
1011,-0.185,0.030
1012,-0.185,0.015
1013,-0.190,0.005
1014,-0.170,0.025
1015,-0.155,0.035
1016,-0.135,0.025
1017,-0.150,0.010
1018,-0.150,0.025
1019,-0.120,0.045
1020,-0.120,0.045
1021,-0.135,0.035
1022,-0.120,0.060
1023,-0.105,0.080
1024,-0.100,0.080
1025,-0.095,0.075
1026,-0.075,0.100
1027,-0.025,0.140
1028,-0.005,0.140
1029,0.000,0.135
1030,0.000,0.165
1031,0.025,0.195
1032,0.065,0.210
1033,0.090,0.225
1034,0.095,0.235
1035,0.145,0.270
1036,0.220,0.300
1037,0.240,0.300
1038,0.250,0.295
1039,0.285,0.320
1040,0.310,0.350
1041,0.340,0.350
1042,0.330,0.360
1043,0.370,0.375
1044,0.445,0.380
1045,0.500,0.350
1046,0.465,0.310
1047,0.420,0.320
1048,0.410,0.325
1049,0.380,0.275
1050,0.360,0.255
1051,0.315,0.200
1052,0.280,0.205
1053,0.215,0.130
1054,0.145,0.065
1055,0.080,0.025
1056,0.045,0.005
1057,0.010,-0.005
1058,-0.035,-0.035
1059,-0.060,-0.045
1060,-0.075,-0.040
1061,-0.095,-0.045
1062,-0.125,-0.070
1063,-0.150,-0.080
1064,-0.160,-0.055
1065,-0.145,-0.055
1066,-0.155,-0.090
1067,-0.170,-0.110
1068,-0.165,-0.075
1069,-0.155,-0.065
1070,-0.180,-0.080
1071,-0.215,-0.095
1072,-0.210,-0.055
1073,-0.165,-0.030
1074,-0.150,-0.085
1075,-0.155,-0.105
1076,-0.170,-0.070
1077,-0.160,-0.070
1078,-0.170,-0.105
1079,-0.195,-0.145
1080,-0.165,-0.150
1081,-0.160,-0.125
1082,-0.170,-0.100
1083,-0.170,-0.095
1084,-0.150,-0.090
1085,-0.135,-0.075
1086,-0.155,-0.070
1087,-0.160,-0.065
1088,-0.135,-0.070
1089,-0.125,-0.070
1090,-0.150,-0.070
1091,-0.135,-0.075
1092,-0.135,-0.070
1093,-0.130,-0.055
1094,-0.120,-0.050
1095,-0.145,-0.070
1096,-0.160,-0.085
1097,-0.155,-0.050
1098,-0.155,-0.025
1099,-0.160,-0.075
1100,-0.170,-0.095
1101,-0.150,-0.090
1102,-0.145,-0.045
1103,-0.155,-0.035
1104,-0.160,-0.105
1105,-0.160,-0.115
1106,-0.170,-0.090
1107,-0.155,-0.080
1108,-0.170,-0.075
1109,-0.170,-0.080
1110,-0.145,-0.070
1111,-0.150,-0.060
1112,-0.170,-0.085
1113,-0.185,-0.110
1114,-0.175,-0.130
1115,-0.170,-0.120
1116,-0.175,-0.100
1117,-0.170,-0.095
1118,-0.160,-0.105
1119,-0.135,-0.075
1120,-0.115,-0.050
1121,-0.105,0.000
1122,-0.050,0.045
1123,-0.010,0.060
1124,0.000,0.040
1125,-0.005,0.045
1126,0.000,0.080
1127,0.030,0.090
1128,0.050,0.060
1129,0.010,0.000
1130,-0.010,0.010
1131,0.020,0.020
1132,0.010,-0.070
1133,-0.015,-0.085
1134,-0.025,-0.055
1135,-0.030,-0.045
1136,-0.040,-0.040
1137,-0.075,-0.035
1138,-0.135,-0.110
1139,-0.210,-0.205
1140,-0.260,-0.195
1141,-0.270,-0.160
1142,-0.270,-0.185
1143,-0.250,-0.165
1144,-0.225,-0.155
1145,-0.250,-0.165
1146,-0.260,-0.150
1147,-0.235,-0.150
1148,-0.265,-0.155
1149,-0.300,-0.170
1150,-0.295,-0.175
1151,-0.260,-0.125
1152,-0.310,-0.045
1153,-0.335,0.005
1154,-0.345,0.060
1155,-0.300,0.155
1156,-0.190,0.215
1157,0.095,0.065
1158,0.500,-0.260
1159,1.010,-0.800
1160,1.730,-1.270
1161,2.430,-1.350
1162,2.425,-1.285
1163,1.450,-1.255
1164,-0.015,-1.290
1165,-0.935,-1.255
1166,-0.995,-1.065
1167,-0.680,-0.750
1168,-0.525,-0.475
1169,-0.450,-0.300
1170,-0.370,-0.215
1171,-0.300,-0.150
1172,-0.265,-0.100
1173,-0.255,-0.055
1174,-0.205,-0.030
1175,-0.180,-0.020
1176,-0.190,-0.040
1177,-0.210,-0.005
1178,-0.215,0.000
1179,-0.220,-0.015
1180,-0.210,0.010
1181,-0.190,0.010
1182,-0.190,0.000
1183,-0.170,0.010
1184,-0.150,0.005
1185,-0.150,0.000
1186,-0.185,0.025
1187,-0.205,0.035
1188,-0.160,0.010
1189,-0.110,0.000
1190,-0.135,0.020
1191,-0.185,0.030
1192,-0.165,0.025
1193,-0.140,0.030
1194,-0.125,0.055
1195,-0.115,0.065
1196,-0.105,0.070
1197,-0.080,0.075
1198,-0.060,0.090
1199,-0.060,0.105
1200,-0.060,0.115
1201,-0.005,0.140
1202,0.005,0.165
1203,-0.015,0.180
1204,-0.005,0.185
1205,0.040,0.230
1206,0.085,0.285
1207,0.115,0.325
1208,0.130,0.265
1209,0.155,0.285
1210,0.225,0.405
1211,0.250,0.440
1212,0.260,0.465
1213,0.285,0.470
1214,0.315,0.370
1215,0.345,0.285
1216,0.385,0.295
1217,0.410,0.305
1218,0.420,0.300
1219,0.420,0.350
1220,0.430,0.365
1221,0.425,0.325
1222,0.415,0.290
1223,0.380,0.270
1224,0.330,0.230
1225,0.310,0.215
1226,0.220,0.150
1227,0.175,0.135
1228,0.125,0.085
1229,0.035,0.025
1230,-0.035,0.000
1231,-0.050,0.015
1232,-0.065,0.000
1233,-0.125,-0.050
1234,-0.155,-0.065
1235,-0.155,-0.060
1236,-0.145,-0.045
1237,-0.170,-0.040
1238,-0.195,-0.070
1239,-0.200,-0.080
1240,-0.185,-0.070
1241,-0.210,-0.080
1242,-0.230,-0.095
1243,-0.205,-0.080
1244,-0.185,-0.060
1245,-0.205,-0.070
1246,-0.230,-0.100
1247,-0.220,-0.080
1248,-0.190,-0.060
1249,-0.200,-0.085
1250,-0.215,-0.095
1251,-0.200,-0.070
1252,-0.185,-0.060
1253,-0.190,-0.060
1254,-0.200,-0.055
1255,-0.200,-0.065
1256,-0.200,-0.060
1257,-0.195,-0.040
1258,-0.190,-0.035
1259,-0.205,-0.050
1260,-0.215,-0.045
1261,-0.180,-0.030
1262,-0.155,-0.050
1263,-0.185,-0.070
1264,-0.200,-0.035
1265,-0.175,-0.015
1266,-0.150,-0.020
1267,-0.160,-0.015
1268,-0.170,-0.020
1269,-0.165,-0.045
1270,-0.180,-0.055
1271,-0.200,-0.045
1272,-0.185,-0.030
1273,-0.185,-0.015
1274,-0.200,-0.045
1275,-0.205,-0.055
1276,-0.220,-0.075
1277,-0.235,-0.085
1278,-0.215,-0.055
1279,-0.165,-0.035
1280,-0.175,-0.060
1281,-0.195,-0.075
1282,-0.165,-0.070
1283,-0.090,-0.080
1284,-0.095,-0.085
1285,-0.190,-0.060
1286,-0.185,-0.045
1287,-0.090,-0.095
1288,-0.170,-0.090
1289,-0.325,-0.035
1290,-0.310,-0.030
1291,-0.270,-0.030
1292,-0.200,0.000
1293,-0.115,0.010
1294,-0.090,0.030
1295,-0.085,0.055
1296,-0.070,0.065
1297,-0.050,0.070
1298,-0.020,0.090
1299,0.000,0.085
1300,0.005,0.075
1301,0.010,0.015
1302,0.000,0.000
1303,-0.010,0.000
1304,-0.030,0.000
1305,-0.040,-0.005
1306,-0.030,-0.005
1307,-0.050,0.005
1308,-0.055,-0.010
1309,-0.085,-0.055
1310,-0.170,-0.110
1311,-0.265,-0.130
1312,-0.305,-0.135
1313,-0.280,-0.150
1314,-0.270,-0.140
1315,-0.275,-0.120
1316,-0.260,-0.115
1317,-0.240,-0.130
1318,-0.265,-0.145
1319,-0.280,-0.145
1320,-0.280,-0.140
1321,-0.285,-0.140
1322,-0.280,-0.125
1323,-0.300,-0.085
1324,-0.330,-0.040
1325,-0.350,-0.020
1326,-0.355,0.060
1327,-0.255,0.140
1328,-0.085,0.200
1329,0.230,0.100
1330,0.690,-0.235
1331,1.310,-0.790
1332,2.040,-1.220
1333,2.545,-1.255
1334,2.265,-1.275
1335,0.955,-1.360
1336,-0.525,-1.385
1337,-1.165,-1.185
1338,-0.975,-0.865
1339,-0.675,-0.590
1340,-0.560,-0.380
1341,-0.455,-0.255
1342,-0.380,-0.210
1343,-0.300,-0.130
1344,-0.255,-0.055
1345,-0.240,-0.035
1346,-0.235,-0.040
1347,-0.235,-0.025
1348,-0.230,0.000
1349,-0.230,0.005
1350,-0.235,0.000
1351,-0.200,0.000
1352,-0.225,0.000
1353,-0.230,0.000
1354,-0.215,-0.010
1355,-0.215,-0.015
1356,-0.205,-0.010
1357,-0.185,0.015
1358,-0.185,0.020
1359,-0.185,-0.005
1360,-0.170,0.005
1361,-0.170,0.020
1362,-0.200,-0.005
1363,-0.170,-0.010
1364,-0.150,0.045
1365,-0.110,0.080
1366,-0.100,0.060
1367,-0.090,0.065
1368,-0.090,0.075
1369,-0.115,0.075
1370,-0.120,0.070
1371,-0.095,0.055
1372,-0.050,0.085
1373,-0.065,0.125
1374,-0.085,0.115
1375,-0.075,0.120
1376,0.010,0.135
1377,0.020,0.160
1378,0.055,0.175
1379,0.095,0.180
1380,0.135,0.210
1381,0.150,0.230
1382,0.170,0.240
1383,0.235,0.240
1384,0.295,0.255
1385,0.315,0.290
1386,0.310,0.300
1387,0.325,0.305
1388,0.375,0.275
1389,0.365,0.250
1390,0.335,0.255
1391,0.345,0.245
1392,0.385,0.240
1393,0.440,0.235
1394,0.385,0.185
1395,0.310,0.155
1396,0.265,0.135
1397,0.215,0.110
1398,0.135,0.070
1399,0.060,0.025
1400,0.040,0.015
1401,-0.010,0.000
1402,-0.045,-0.020
1403,-0.115,-0.030
1404,-0.140,-0.040
1405,-0.115,-0.045
1406,-0.160,-0.050
1407,-0.210,-0.080
1408,-0.215,-0.105
1409,-0.225,-0.115
1410,-0.210,-0.095
1411,-0.190,-0.085
1412,-0.205,-0.085
1413,-0.235,-0.095
1414,-0.235,-0.105
1415,-0.235,-0.105
1416,-0.235,-0.100
1417,-0.225,-0.115
1418,-0.225,-0.090
1419,-0.215,-0.080
1420,-0.235,-0.100
1421,-0.235,-0.110
1422,-0.210,-0.095
1423,-0.200,-0.080
1424,-0.205,-0.090
1425,-0.210,-0.095
1426,-0.210,-0.095
1427,-0.210,-0.080
1428,-0.200,-0.075
1429,-0.180,-0.100
1430,-0.175,-0.095
1431,-0.195,-0.075
1432,-0.225,-0.080
1433,-0.220,-0.075
1434,-0.200,-0.075
1435,-0.210,-0.080
1436,-0.225,-0.090
1437,-0.215,-0.100
1438,-0.175,-0.100
1439,-0.160,-0.085
1440,-0.195,-0.075
1441,-0.220,-0.070
1442,-0.190,-0.085
1443,-0.175,-0.100
1444,-0.190,-0.090
1445,-0.190,-0.085
1446,-0.180,-0.100
1447,-0.140,-0.080
1448,-0.155,-0.065
1449,-0.205,-0.080
1450,-0.210,-0.090
1451,-0.145,-0.115
1452,-0.190,-0.105
1453,-0.235,-0.095
1454,-0.185,-0.095
1455,-0.130,-0.075
1456,-0.105,-0.020
1457,-0.080,0.000
1458,-0.090,0.000
1459,-0.090,0.010
1460,-0.030,0.045
1461,-0.005,0.055
1462,0.020,0.055
1463,0.085,0.055
1464,0.045,-0.005
1465,-0.030,-0.055
1466,-0.060,-0.065
1467,-0.050,-0.055
1468,-0.015,-0.045
1469,0.025,-0.030
1470,-0.025,-0.055
1471,-0.115,-0.075
1472,-0.065,-0.040
1473,-0.015,-0.045
1474,-0.070,-0.110
1475,-0.105,-0.135
1476,-0.245,-0.160
1477,-0.235,-0.130
1478,-0.240,-0.135
1479,-0.240,-0.150
1480,-0.225,-0.135
1481,-0.265,-0.145
1482,-0.285,-0.170
1483,-0.265,-0.160
1484,-0.235,-0.155
1485,-0.215,-0.140
1486,-0.205,-0.130
1487,-0.220,-0.120
1488,-0.285,-0.085
1489,-0.325,-0.025
1490,-0.330,0.015
1491,-0.325,0.045
1492,-0.210,0.125
1493,0.015,0.120
1494,0.350,-0.080
1495,0.870,-0.485
1496,1.545,-0.930
1497,2.185,-1.075
1498,2.400,-1.030
1499,1.615,-1.145
1500,1.230,-1.205
1501,-1.030,-1.210
1502,-1.115,-0.905
1503,-0.760,-0.640
1504,-0.545,-0.430
1505,-0.430,-0.265
1506,-0.350,-0.170
1507,-0.260,-0.115
1508,-0.220,-0.090
1509,-0.215,-0.065
1510,-0.195,-0.025
1511,-0.180,-0.005
1512,-0.165,-0.010
1513,-0.170,-0.025
1514,-0.165,-0.015
1515,-0.150,0.000
1516,-0.175,0.000
1517,-0.210,-0.025
1518,-0.200,-0.025
1519,-0.175,0.010
1520,-0.140,0.005
1521,-0.170,-0.020
1522,-0.185,-0.005
1523,-0.145,0.025
1524,-0.095,0.030
1525,-0.080,0.025
1526,-0.105,0.005
1527,-0.170,0.005
1528,-0.140,0.020
1529,-0.080,0.035
1530,-0.100,0.035
1531,-0.135,0.040
1532,-0.085,0.050
1533,-0.055,0.050
1534,-0.080,0.050
1535,-0.040,0.085
1536,0.025,0.100
1537,-0.020,0.090
1538,-0.030,0.095
1539,0.020,0.115
1540,0.035,0.140
1541,0.070,0.155
1542,0.090,0.160
1543,0.125,0.200
1544,0.120,0.230
1545,0.130,0.235
1546,0.170,0.235
1547,0.260,0.265
1548,0.335,0.295
1549,0.335,0.285
1550,0.325,0.270
1551,0.355,0.265
1552,0.395,0.300
1553,0.410,0.315
1554,0.400,0.290
1555,0.400,0.260
1556,0.395,0.250
1557,0.415,0.240
1558,0.375,0.195
1559,0.320,0.170
1560,0.300,0.170
1561,0.235,0.135
1562,0.150,0.080
1563,0.110,0.065
1564,0.065,0.070
1565,0.030,0.025
1566,-0.005,-0.005
1567,-0.045,-0.035
1568,-0.075,-0.045
1569,-0.095,-0.020
1570,-0.085,-0.020
1571,-0.105,-0.040
1572,-0.180,-0.025
1573,-0.185,-0.010
1574,-0.150,-0.040
1575,-0.145,-0.055
1576,-0.205,-0.100
1577,-0.160,-0.080
1578,-0.140,-0.055
1579,-0.165,-0.085
1580,-0.200,-0.110
1581,-0.200,-0.100
1582,-0.195,-0.080
1583,-0.190,-0.075
1584,-0.160,-0.065
1585,-0.165,-0.055
1586,-0.185,-0.060
1587,-0.185,-0.045
1588,-0.200,-0.045
1589,-0.210,-0.015
1590,-0.185,-0.025
1591,-0.155,-0.030
1592,-0.145,-0.005
1593,-0.165,0.005
1594,-0.195,-0.060
1595,-0.200,-0.095
1596,-0.170,-0.085
1597,-0.160,-0.030
1598,-0.145,0.000
1599,-0.090,-0.030
1600,-0.070,-0.040
1601,-0.155,-0.020
1602,-0.170,-0.005
1603,-0.180,-0.030
1604,-0.180,-0.065
1605,-0.150,-0.060
1606,-0.130,-0.035
1607,-0.125,-0.020
1608,-0.140,-0.025
1609,-0.165,-0.040
1610,-0.185,-0.050
1611,-0.180,-0.040
1612,-0.165,-0.035
1613,-0.170,-0.050
1614,-0.175,-0.040
1615,-0.170,-0.020
1616,-0.165,-0.050
1617,-0.185,-0.075
1618,-0.180,-0.070
1619,-0.185,-0.050
1620,-0.200,-0.065
1621,-0.205,-0.080
1622,-0.165,-0.080
1623,-0.155,-0.050
1624,-0.160,-0.035
1625,-0.165,-0.040
1626,-0.135,-0.025
1627,-0.095,0.025
1628,-0.060,0.055
1629,-0.050,0.060
1630,-0.030,0.065
1631,0.010,0.085
1632,0.020,0.090
1633,0.000,0.075
1634,-0.005,0.055
1635,0.000,0.015
1636,-0.010,-0.010
1637,-0.030,-0.010
1638,-0.040,0.005
1639,-0.030,0.015
1640,-0.025,-0.025
1641,-0.045,-0.035
1642,-0.050,-0.025
1643,-0.065,-0.030
1644,-0.120,-0.075
1645,-0.215,-0.130
1646,-0.270,-0.125
1647,-0.245,-0.080
1648,-0.220,-0.070
1649,-0.220,-0.110
1650,-0.230,-0.115
1651,-0.235,-0.100
1652,-0.240,-0.130
1653,-0.275,-0.150
1654,-0.265,-0.130
1655,-0.235,-0.110
1656,-0.210,-0.090
1657,-0.185,-0.070
1658,-0.225,-0.055
1659,-0.255,-0.010
1660,-0.320,0.050
1661,-0.330,0.095
1662,-0.155,0.130
1663,0.230,0.075
1664,0.610,-0.230
1665,1.015,-0.785
1666,1.625,-1.195
1667,2.315,-1.185
1668,2.520,-1.140
1669,1.640,-1.175
1670,0.080,-1.220
1671,-0.985,-1.050
1672,-0.965,-0.765
1673,-0.640,-0.510
1674,-0.515,-0.325
1675,-0.485,-0.275
1676,-0.335,-0.130
1677,-0.290,-0.065
1678,-0.250,-0.040
1679,-0.215,-0.035
1680,-0.210,-0.015
1681,-0.190,0.000
1682,-0.185,0.000
1683,-0.205,0.000
1684,-0.215,0.000
1685,-0.190,0.015
1686,-0.190,0.005
1687,-0.210,-0.005
1688,-0.200,-0.010
1689,-0.185,0.000
1690,-0.180,0.030
1691,-0.165,0.040
1692,-0.170,0.025
1693,-0.175,0.030
1694,-0.155,0.045
1695,-0.110,0.050
1696,-0.080,0.040
1697,-0.095,0.065
1698,-0.150,0.085
1699,-0.155,0.055
1700,-0.135,0.035
1701,-0.070,0.025
1702,-0.125,0.070
1703,-0.155,0.095
1704,-0.140,0.110
1705,-0.110,0.100
1706,-0.085,0.110
1707,-0.065,0.125
1708,-0.030,0.140
1709,0.020,0.160
1710,0.050,0.200
1711,0.045,0.210
1712,0.045,0.225
1713,0.075,0.245
1714,0.115,0.265
1715,0.145,0.280
1716,0.185,0.305
1717,0.235,0.320
1718,0.275,0.345
1719,0.305,0.360
1720,0.310,0.355
1721,0.340,0.330
1722,0.345,0.345
1723,0.365,0.375
1724,0.400,0.370
1725,0.415,0.355
1726,0.415,0.295
1727,0.390,0.275
1728,0.365,0.240
1729,0.350,0.195
1730,0.310,0.165
1731,0.250,0.160
1732,0.175,0.140
1733,0.100,0.075
1734,0.050,0.030
1735,0.010,0.015
1736,-0.025,0.005
1737,-0.065,-0.025
1738,-0.095,-0.030
1739,-0.115,-0.025
1740,-0.130,-0.020
1741,-0.155,-0.040
1742,-0.160,-0.070
1743,-0.165,-0.090
1744,-0.185,-0.080
1745,-0.180,-0.075
1746,-0.165,-0.090
1747,-0.155,-0.080
1748,-0.155,-0.070
1749,-0.165,-0.070
1750,-0.170,-0.075
1751,-0.200,-0.075
1752,-0.180,-0.070
1753,-0.185,-0.090
1754,-0.210,-0.105
1755,-0.180,-0.095
1756,-0.160,-0.070
1757,-0.180,-0.045
1758,-0.190,-0.065
1759,-0.170,-0.080
1760,-0.150,-0.075
1761,-0.170,-0.070
1762,-0.175,-0.070
1763,-0.160,-0.075
1764,-0.145,-0.050
1765,-0.150,-0.040
1766,-0.160,-0.035
1767,-0.145,-0.055
1768,-0.150,-0.065
1769,-0.165,-0.060
1770,-0.170,-0.055
1771,-0.140,-0.060
1772,-0.130,-0.035
1773,-0.160,-0.030
1774,-0.155,-0.060
1775,-0.150,-0.070
1776,-0.140,-0.080
1777,-0.130,-0.065
1778,-0.155,-0.055
1779,-0.180,-0.060
1780,-0.165,-0.075
1781,-0.145,-0.075
1782,-0.150,-0.075
1783,-0.170,-0.100
1784,-0.165,-0.100
1785,-0.140,-0.070
1786,-0.130,-0.055
1787,-0.150,-0.060
1788,-0.195,-0.095
1789,-0.185,-0.120
1790,-0.165,-0.100
1791,-0.175,-0.100
1792,-0.165,-0.110
1793,-0.135,-0.110
1794,-0.125,-0.075
1795,-0.105,-0.050
1796,-0.045,-0.030
1797,-0.010,-0.005
1798,-0.020,0.020
1799,-0.020,0.040
1800,-0.010,0.040
1801,0.020,0.035
1802,0.020,0.045
1803,0.040,0.035
1804,0.060,-0.020
1805,0.030,-0.055
1806,0.005,-0.010
1807,0.000,0.010
1808,-0.020,-0.065
1809,-0.005,-0.090
1810,0.000,-0.060
1811,0.000,-0.040
1812,-0.020,-0.060
1813,-0.115,-0.125
1814,-0.215,-0.170
1815,-0.240,-0.175
1816,-0.200,-0.180
1817,-0.180,-0.185
1818,-0.225,-0.180
1819,-0.270,-0.185
1820,-0.265,-0.180
1821,-0.235,-0.170
1822,-0.220,-0.175
1823,-0.225,-0.165
1824,-0.230,-0.165
1825,-0.240,-0.170
1826,-0.260,-0.140
1827,-0.265,-0.070
1828,-0.295,0.010
1829,-0.300,0.090
1830,-0.265,0.165
1831,-0.155,0.125
1832,0.125,-0.005
1833,0.545,-0.280
1834,1.100,-0.760
1835,1.855,-1.150
1836,2.505,-1.180
1837,2.450,-1.225
1838,1.460,-1.390
1839,-0.060,-1.385
1840,-0.970,-1.105
1841,-0.945,-0.810
1842,-0.640,-0.625
1843,-0.495,-0.430
1844,-0.385,-0.285
1845,-0.310,-0.220
1846,-0.285,-0.155
1847,-0.235,-0.105
1848,-0.200,-0.075
1849,-0.175,-0.050
1850,-0.165,-0.040
1851,-0.175,-0.030
1852,-0.210,-0.065
1853,-0.185,-0.075
1854,-0.175,-0.085
1855,-0.175,-0.080
1856,-0.165,-0.045
1857,-0.185,-0.035
1858,-0.195,-0.030
1859,-0.160,-0.010
1860,-0.140,-0.015
1861,-0.150,-0.005
1862,-0.155,0.005
1863,-0.145,0.005
1864,-0.125,0.025
1865,-0.125,0.040
1866,-0.125,0.040
1867,-0.120,0.045
1868,-0.095,0.080
1869,-0.095,0.095
1870,-0.080,0.025
1871,-0.080,-0.030
1872,-0.080,0.005
1873,-0.060,0.065
1874,-0.025,0.020
1875,-0.020,0.000
1876,-0.025,0.045
1877,0.015,0.110
1878,0.050,0.140
1879,0.040,0.145
1880,0.015,0.160
1881,0.070,0.195
1882,0.145,0.225
1883,0.160,0.215
1884,0.155,0.200
1885,0.235,0.220
1886,0.295,0.285
1887,0.295,0.310
1888,0.320,0.330
1889,0.370,0.370
1890,0.395,0.395
1891,0.435,0.300
1892,0.425,0.240
1893,0.425,0.270
1894,0.460,0.275
1895,0.490,0.260
1896,0.465,0.230
1897,0.430,0.185
1898,0.395,0.155
1899,0.305,0.140
1900,0.270,0.135
1901,0.145,0.165
1902,0.090,0.110
1903,0.060,-0.020
1904,0.030,-0.055
1905,0.000,0.035
1906,-0.025,0.075
1907,-0.080,-0.090
1908,-0.145,-0.190
1909,-0.145,-0.160
1910,-0.100,-0.120
1911,-0.110,-0.100
1912,-0.165,-0.150
1913,-0.195,-0.190
1914,-0.185,-0.145
1915,-0.150,-0.105
1916,-0.165,-0.110
1917,-0.190,-0.125
1918,-0.190,-0.095
1919,-0.185,-0.090
1920,-0.175,-0.110
1921,-0.170,-0.120
1922,-0.155,-0.115
1923,-0.160,-0.090
1924,-0.190,-0.080
1925,-0.205,-0.075
1926,-0.170,-0.085
1927,-0.145,-0.090
1928,-0.145,-0.100
1929,-0.175,-0.105
1930,-0.170,-0.095
1931,-0.135,-0.075
1932,-0.135,-0.045
1933,-0.190,-0.065
1934,-0.205,-0.080
1935,-0.165,-0.055
1936,-0.150,-0.065
1937,-0.135,-0.090
1938,-0.145,-0.055
1939,-0.175,-0.040
1940,-0.185,-0.080
1941,-0.170,-0.100
1942,-0.175,-0.105
1943,-0.185,-0.095
1944,-0.160,-0.055
1945,-0.140,-0.045
1946,-0.155,-0.060
1947,-0.175,-0.070
1948,-0.165,-0.075
1949,-0.175,-0.085
1950,-0.185,-0.095
1951,-0.200,-0.100
1952,-0.190,-0.080
1953,-0.175,-0.075
1954,-0.190,-0.075
1955,-0.185,-0.075
1956,-0.170,-0.080
1957,-0.175,-0.095
1958,-0.175,-0.110
1959,-0.160,-0.085
1960,-0.140,-0.075
1961,-0.165,-0.060
1962,-0.170,-0.010
1963,-0.115,0.015
1964,-0.080,0.060
1965,-0.065,0.110
1966,-0.030,0.090
1967,-0.015,0.115
1968,-0.010,0.010
1969,0.000,-0.075
1970,0.030,-0.040
1971,0.060,-0.030
1972,0.030,-0.050
1973,0.000,-0.035
1974,0.010,-0.045
1975,0.020,-0.050
1976,-0.010,-0.045
1977,-0.010,-0.050
1978,0.000,-0.030
1979,-0.020,-0.030
1980,-0.110,-0.080
1981,-0.190,-0.125
1982,-0.250,-0.130
1983,-0.240,-0.140
1984,-0.230,-0.180
1985,-0.235,-0.200
1986,-0.245,-0.170
1987,-0.265,-0.155
1988,-0.245,-0.155
1989,-0.245,-0.155
1990,-0.265,-0.150
1991,-0.255,-0.160
1992,-0.255,-0.175
1993,-0.245,-0.160
1994,-0.270,-0.090
1995,-0.310,-0.035
1996,-0.330,-0.010
1997,-0.325,0.030
1998,-0.265,0.130
1999,-0.055,0.125
2000,0.040,0.095
2001,0.845,-0.505
2002,1.465,-1.065
2003,2.210,-1.340
2004,2.590,-1.335
2005,2.045,-1.335
2006,0.695,-1.380
2007,-0.655,-1.320
2008,-1.035,-1.045
2009,-0.775,-0.750
2010,-0.545,-0.505
2011,-0.415,-0.330
2012,-0.270,-0.245
2013,-0.170,-0.160
2014,-0.205,-0.085
2015,-0.245,-0.060
2016,-0.280,-0.080
2017,-0.305,-0.065
2018,-0.275,-0.035
2019,-0.235,-0.020
2020,-0.195,-0.015
2021,-0.180,-0.025
2022,-0.210,-0.030
2023,-0.230,-0.015
2024,-0.200,-0.015
2025,-0.185,-0.015
2026,-0.195,-0.010
2027,-0.175,0.000
2028,-0.160,0.000
2029,-0.170,-0.020
2030,-0.170,0.005
2031,-0.135,0.035
2032,-0.135,0.030
2033,-0.150,0.030
2034,-0.150,0.025
2035,-0.090,0.015
2036,-0.045,0.030
2037,-0.050,0.040
2038,-0.090,0.050
2039,-0.115,0.055
2040,-0.115,0.070
2041,-0.090,0.095
2042,-0.055,0.110
2043,-0.005,0.125
2044,0.000,0.150
2045,-0.015,0.165
2046,0.010,0.185
2047,0.085,0.210
2048,0.125,0.220
2049,0.155,0.225
2050,0.165,0.230
2051,0.125,0.275
2052,0.175,0.305
2053,0.235,0.305
2054,0.265,0.290
2055,0.325,0.320
2056,0.385,0.360
2057,0.415,0.380
2058,0.410,0.370
2059,0.410,0.350
2060,0.445,0.340
2061,0.525,0.340
2062,0.535,0.320
2063,0.475,0.310
2064,0.425,0.285
2065,0.390,0.265
2066,0.345,0.190
2067,0.275,0.110
2068,0.220,0.095
2069,0.195,0.100
2070,0.125,0.075
2071,0.020,0.035
2072,-0.030,-0.010
2073,-0.045,-0.035
2074,-0.065,-0.055
2075,-0.080,-0.060
2076,-0.165,-0.105
2077,-0.185,-0.115
2078,-0.175,-0.100
2079,-0.180,-0.120
2080,-0.195,-0.115
2081,-0.190,-0.085
2082,-0.185,-0.080
2083,-0.205,-0.130
2084,-0.215,-0.150
2085,-0.175,-0.120
2086,-0.160,-0.105
2087,-0.170,-0.120
2088,-0.195,-0.145
2089,-0.215,-0.145
2090,-0.205,-0.110
2091,-0.205,-0.100
2092,-0.200,-0.120
2093,-0.180,-0.135
2094,-0.195,-0.130
2095,-0.205,-0.120
2096,-0.180,-0.120
2097,-0.175,-0.115
2098,-0.170,-0.095
2099,-0.185,-0.115
2100,-0.195,-0.125
2101,-0.185,-0.110
2102,-0.170,-0.080
2103,-0.165,-0.085
2104,-0.175,-0.100
2105,-0.165,-0.105
2106,-0.090,-0.100
2107,-0.070,-0.080
2108,-0.155,-0.085
2109,-0.230,-0.085
2110,-0.245,-0.075
2111,-0.205,-0.090
2112,-0.195,-0.105
2113,-0.205,-0.115
2114,-0.195,-0.105
2115,-0.175,-0.090
2116,-0.190,-0.085
2117,-0.180,-0.095
2118,-0.165,-0.075
2119,-0.170,-0.080
2120,-0.170,-0.115
2121,-0.175,-0.140
2122,-0.195,-0.130
2123,-0.220,-0.110
2124,-0.220,-0.125
2125,-0.215,-0.135
2126,-0.205,-0.135
2127,-0.190,-0.100
2128,-0.190,-0.095
2129,-0.205,-0.080
2130,-0.150,-0.055
2131,-0.095,-0.020
2132,-0.060,0.040
2133,-0.050,0.075
2134,-0.045,0.005
2135,-0.025,-0.045
2136,-0.010,-0.020
2137,0.015,0.000
2138,0.045,0.000
2139,0.050,-0.010
2140,0.025,-0.060
2141,0.000,-0.095
2142,-0.015,-0.085
2143,-0.010,-0.055
2144,-0.005,-0.050
2145,-0.050,-0.085
2146,-0.070,-0.095
2147,-0.080,-0.105
2148,-0.130,-0.140
2149,-0.210,-0.180
2150,-0.240,-0.185
2151,-0.275,-0.210
2152,-0.240,-0.190
2153,-0.220,-0.175
2154,-0.250,-0.195
2155,-0.280,-0.190
2156,-0.280,-0.145
2157,-0.260,-0.130
2158,-0.265,-0.190
2159,-0.280,-0.215
2160,-0.275,-0.135
2161,-0.265,-0.060
2162,-0.300,-0.075
2163,-0.330,-0.010
2164,-0.335,0.135
2165,-0.300,0.105
2166,-0.215,0.070
2167,0.025,0.045
2168,0.375,-0.100
2169,0.910,-0.595
2170,1.580,-1.155
2171,2.235,-1.405
2172,2.435,-1.460
2173,1.645,-1.505
2174,0.115,-1.510
2175,-0.375,-1.490
2176,-1.145,-1.075
2177,-0.795,-0.800
2178,-0.645,-0.565
2179,-0.530,-0.390
2180,-0.390,-0.260
2181,-0.335,-0.170
2182,-0.320,-0.105
2183,-0.290,-0.075
2184,-0.235,-0.075
2185,-0.220,-0.065
2186,-0.230,-0.030
2187,-0.215,-0.020
2188,-0.190,-0.005
2189,-0.200,-0.015
2190,-0.225,-0.075
2191,-0.230,-0.090
2192,-0.210,-0.055
2193,-0.195,0.045
2194,-0.210,0.165
2195,-0.220,0.085
2196,-0.220,-0.095
2197,-0.215,-0.040
2198,-0.200,0.080
2199,-0.185,0.000
2200,-0.180,-0.035
2201,-0.160,-0.045
2202,-0.150,0.020
2203,-0.145,0.020
2204,-0.145,-0.015
2205,-0.140,-0.040
2206,-0.140,-0.075
2207,-0.125,-0.045
2208,-0.105,0.005
2209,-0.090,0.025
2210,-0.075,0.055
2211,-0.070,0.055
2212,-0.080,0.065
2213,-0.050,0.110
2214,-0.010,0.150
2215,0.035,0.155
2216,0.070,0.150
2217,0.090,0.180
2218,0.140,0.195
2219,0.175,0.225
2220,0.165,0.240
2221,0.220,0.265
2222,0.290,0.280
2223,0.315,0.285
2224,0.330,0.285
2225,0.335,0.280
2226,0.380,0.330
2227,0.425,0.335
2228,0.430,0.315
2229,0.430,0.285
2230,0.440,0.255
2231,0.420,0.305
2232,0.395,0.250
2233,0.350,0.060
2234,0.285,0.010
2235,0.230,0.045
2236,0.180,0.020
2237,0.120,0.000
2238,0.040,-0.025
2239,-0.010,-0.030
2240,-0.050,-0.045
2241,-0.105,-0.060
2242,-0.135,-0.065
2243,-0.140,-0.090
2244,-0.130,-0.090
2245,-0.175,-0.075
2246,-0.240,-0.125
2247,-0.250,-0.120
2248,-0.240,-0.095
2249,-0.245,-0.090
2250,-0.255,-0.085
2251,-0.255,-0.150
2252,-0.250,-0.150
2253,-0.265,-0.135
2254,-0.260,-0.130
2255,-0.240,-0.140
2256,-0.245,-0.125
2257,-0.240,-0.095
2258,-0.230,-0.090
2259,-0.245,-0.115
2260,-0.240,-0.130
2261,-0.230,-0.100
2262,-0.245,-0.035
2263,-0.255,-0.090
2264,-0.220,-0.185
2265,-0.240,-0.130
2266,-0.295,-0.100
2267,-0.270,-0.110
2268,-0.235,-0.115
2269,-0.240,-0.080
2270,-0.265,-0.080
2271,-0.260,-0.030
2272,-0.230,0.020
2273,-0.215,-0.005
2274,-0.240,-0.085
2275,-0.250,-0.100
2276,-0.230,-0.115
2277,-0.220,-0.160
2278,-0.230,-0.125
2279,-0.220,-0.095
2280,-0.200,-0.110
2281,-0.220,-0.100
2282,-0.255,-0.100
2283,-0.265,-0.115
2284,-0.240,-0.125
2285,-0.215,-0.120
2286,-0.245,-0.110
2287,-0.260,-0.095
2288,-0.255,-0.100
2289,-0.260,-0.095
2290,-0.250,-0.080
2291,-0.240,-0.095
2292,-0.240,-0.095
2293,-0.245,-0.095
2294,-0.245,-0.085
2295,-0.215,-0.060
2296,-0.200,-0.045
2297,-0.140,-0.010
2298,-0.115,0.020
2299,-0.125,0.035
2300,-0.135,0.025
2301,-0.130,0.010
2302,-0.090,0.040
2303,-0.050,0.040
2304,-0.040,0.005
2305,-0.065,0.005
2306,-0.065,0.075
2307,-0.060,0.065
2308,-0.085,-0.060
2309,-0.090,-0.160
2310,-0.100,-0.095
2311,-0.095,-0.005
2312,-0.110,-0.050
2313,-0.190,-0.145
2314,-0.295,-0.210
2315,-0.345,-0.185
2316,-0.330,-0.165
2317,-0.320,-0.160
2318,-0.320,-0.160
2319,-0.330,-0.150
2320,-0.350,-0.150
2321,-0.340,-0.170
2322,-0.325,-0.155
2323,-0.335,-0.150
2324,-0.360,-0.160
2325,-0.355,-0.160
2326,-0.320,-0.140
2327,-0.360,-0.100
2328,-0.405,-0.065
2329,-0.435,-0.030
2330,-0.440,0.005
2331,-0.375,0.095
2332,-0.180,0.145
2333,0.190,0.010
2334,0.700,-0.330
2335,1.350,-0.815
2336,2.050,-1.090
2337,2.415,-1.100
2338,1.875,-1.165
2339,0.455,-1.315
2340,-0.890,-1.295
2341,-1.285,-1.025
2342,-0.930,-0.735
2343,-0.675,-0.520
2344,-0.550,-0.335
2345,-0.465,-0.245
2346,-0.400,-0.175
2347,-0.335,-0.115
2348,-0.270,-0.065
2349,-0.240,-0.055
2350,-0.245,-0.060
2351,-0.290,-0.060
2352,-0.275,-0.045
2353,-0.260,-0.040
2354,-0.290,-0.035
2355,-0.285,-0.035
2356,-0.255,-0.015
2357,-0.245,0.000
2358,-0.240,-0.015
2359,-0.235,-0.025
2360,-0.220,-0.005
2361,-0.210,0.000
2362,-0.230,-0.020
2363,-0.225,-0.030
2364,-0.185,-0.010
2365,-0.190,0.000
2366,-0.215,0.000
2367,-0.200,0.000
2368,-0.155,0.005
2369,-0.160,0.035
2370,-0.170,0.020
2371,-0.165,-0.010
2372,-0.160,0.005
2373,-0.135,0.055
2374,-0.095,0.070
2375,-0.080,0.075
2376,-0.055,0.055
2377,-0.050,0.085
2378,-0.040,0.105
2379,-0.050,0.095
2380,-0.030,0.110
2381,0.015,0.165
2382,0.055,0.185
2383,0.075,0.175
2384,0.115,0.180
2385,0.165,0.210
2386,0.195,0.230
2387,0.225,0.230
2388,0.275,0.230
2389,0.325,0.245
2390,0.335,0.255
2391,0.370,0.270
2392,0.365,0.250
2393,0.375,0.240
2394,0.380,0.240
2395,0.360,0.220
2396,0.355,0.205
2397,0.340,0.175
2398,0.305,0.160
2399,0.250,0.135
2400,0.230,0.120
2401,0.145,0.070
2402,0.090,0.040
2403,0.030,0.015
2404,-0.015,-0.005
2405,-0.030,-0.025
2406,-0.085,-0.040
2407,-0.155,-0.050
2408,-0.200,-0.075
2409,-0.215,-0.095
2410,-0.225,-0.095
2411,-0.215,-0.085
2412,-0.230,-0.100
2413,-0.245,-0.100
2414,-0.220,-0.080
2415,-0.235,-0.105
2416,-0.270,-0.135
2417,-0.260,-0.130
2418,-0.250,-0.110
2419,-0.235,-0.085
2420,-0.235,-0.115
2421,-0.260,-0.140
2422,-0.280,-0.155
2423,-0.265,-0.120
2424,-0.240,-0.090
2425,-0.230,-0.090
2426,-0.255,-0.135
2427,-0.260,-0.125
2428,-0.265,-0.110
2429,-0.280,-0.130
2430,-0.265,-0.130
2431,-0.255,-0.095
2432,-0.235,-0.090
2433,-0.245,-0.110
2434,-0.250,-0.115
2435,-0.240,-0.095
2436,-0.225,-0.085
2437,-0.230,-0.105
2438,-0.230,-0.120
2439,-0.220,-0.105
2440,-0.235,-0.080
2441,-0.250,-0.080
2442,-0.230,-0.085
2443,-0.210,-0.085
2444,-0.215,-0.090
2445,-0.210,-0.090
2446,-0.215,-0.105
2447,-0.235,-0.095
2448,-0.215,-0.080
2449,-0.220,-0.105
2450,-0.230,-0.115
2451,-0.205,-0.110
2452,-0.210,-0.095
2453,-0.230,-0.095
2454,-0.225,-0.110
2455,-0.220,-0.115
2456,-0.220,-0.100
2457,-0.230,-0.100
2458,-0.235,-0.120
2459,-0.225,-0.125
2460,-0.205,-0.115
2461,-0.225,-0.110
2462,-0.245,-0.120
2463,-0.225,-0.130
2464,-0.220,-0.095
2465,-0.190,-0.060
2466,-0.150,-0.025
2467,-0.110,-0.010
2468,-0.085,0.005
2469,-0.075,0.030
2470,-0.070,0.030
2471,-0.035,0.035
2472,0.005,0.045
2473,0.015,0.020
2474,-0.030,-0.045
2475,-0.060,-0.075
2476,-0.090,-0.070
2477,-0.060,-0.040
2478,-0.065,-0.040
2479,-0.075,-0.070
2480,-0.105,-0.075
2481,-0.110,-0.075
2482,-0.135,-0.095
2483,-0.165,-0.150
2484,-0.235,-0.210
2485,-0.320,-0.210
2486,-0.330,-0.180
2487,-0.320,-0.180
2488,-0.305,-0.195
2489,-0.295,-0.190
2490,-0.270,-0.180
2491,-0.315,-0.190
2492,-0.330,-0.200
2493,-0.310,-0.185
2494,-0.280,-0.165
2495,-0.270,-0.155
2496,-0.310,-0.140
2497,-0.360,-0.080
2498,-0.375,0.030
2499,-0.375,0.090
2500,-0.370,0.085
2501,-0.185,0.020
2502,0.170,-0.090
2503,0.605,-0.445
2504,1.180,-0.990
2505,1.930,-1.330
2506,2.540,-1.320
2507,2.310,-1.320
2508,1.020,-1.410
2509,-0.515,-1.400
2510,-1.145,-1.135
2511,-0.955,-0.810
2512,-0.685,-0.575
2513,-0.560,-0.385
2514,-0.435,-0.250
2515,-0.350,-0.155
2516,-0.320,-0.105
2517,-0.290,-0.105
2518,-0.260,-0.070
2519,-0.260,-0.020
2520,-0.265,-0.050
2521,-0.260,-0.080
2522,-0.230,-0.055
2523,-0.235,0.000
2524,-0.235,0.030
2525,-0.225,0.020
2526,-0.215,0.000
2527,-0.235,0.100
2528,-0.250,0.130
2529,-0.250,-0.065
2530,-0.215,-0.180
2531,-0.190,-0.100
2532,-0.200,-0.030
2533,-0.210,-0.040
2534,-0.205,-0.035
2535,-0.205,-0.005
2536,-0.195,0.000
2537,-0.185,-0.010
2538,-0.185,-0.005
2539,-0.175,0.020
2540,-0.150,0.055
2541,-0.140,0.035
2542,-0.145,0.030
2543,-0.130,0.070
2544,-0.115,0.100
2545,-0.105,0.105
2546,-0.090,0.125
2547,-0.075,0.130
2548,-0.050,0.120
2549,-0.005,0.150
2550,0.005,0.155
2551,0.045,0.230
2552,0.085,0.295
2553,0.120,0.270
2554,0.155,0.235
2555,0.190,0.275
2556,0.235,0.290
2557,0.260,0.275
2558,0.290,0.300
2559,0.355,0.305
2560,0.380,0.320
2561,0.360,0.330
2562,0.370,0.345
2563,0.400,0.315
2564,0.430,0.300
2565,0.415,0.295
2566,0.355,0.260
2567,0.330,0.235
2568,0.285,0.220
2569,0.240,0.150
2570,0.160,0.060
2571,0.105,0.035
2572,0.060,0.020
2573,0.000,0.020
2574,-0.030,-0.005
2575,-0.040,-0.020
2576,-0.125,-0.055
2577,-0.160,-0.005
2578,-0.170,-0.030
2579,-0.200,-0.120
2580,-0.235,-0.150
2581,-0.235,-0.115
2582,-0.220,-0.105
2583,-0.230,-0.095
2584,-0.240,-0.040
2585,-0.240,-0.055
2586,-0.220,-0.150
2587,-0.210,-0.170
2588,-0.245,-0.140
2589,-0.280,-0.120
2590,-0.260,-0.105
2591,-0.265,-0.125
2592,-0.255,-0.130
2593,-0.235,-0.110
2594,-0.245,-0.095
2595,-0.245,-0.095
2596,-0.235,-0.070
2597,-0.240,-0.100
2598,-0.230,-0.135
2599,-0.250,-0.100
2600,-0.255,-0.075
2601,-0.230,-0.065
2602,-0.215,-0.070
2603,-0.225,-0.085
2604,-0.240,-0.085
2605,-0.230,-0.075
2606,-0.225,-0.035
2607,-0.220,-0.040
2608,-0.220,-0.115
2609,-0.230,-0.095
2610,-0.230,-0.020
2611,-0.215,-0.025
2612,-0.215,-0.100
2613,-0.235,-0.165
2614,-0.230,-0.145
2615,-0.225,-0.090
2616,-0.245,-0.095
2617,-0.245,-0.120
2618,-0.240,-0.105
2619,-0.195,-0.075
2620,-0.195,-0.085
2621,-0.240,-0.110
2622,-0.250,-0.080
2623,-0.235,-0.075
2624,-0.235,-0.095
2625,-0.245,-0.105
2626,-0.260,-0.110
2627,-0.225,-0.080
2628,-0.220,-0.075
2629,-0.245,-0.070
2630,-0.255,-0.105
2631,-0.240,-0.105
2632,-0.240,-0.070
2633,-0.235,-0.040
2634,-0.195,-0.060
2635,-0.150,-0.065
2636,-0.110,-0.020
2637,-0.065,0.080
2638,-0.050,0.155
2639,-0.050,0.060
2640,-0.040,-0.005
2641,-0.030,0.055
2642,-0.005,0.030
2643,-0.015,-0.040
2644,-0.050,-0.090
2645,-0.065,-0.115
2646,-0.080,-0.070
2647,-0.085,-0.050
2648,-0.090,-0.055
2649,-0.085,-0.045
2650,-0.095,-0.035
2651,-0.110,-0.085
2652,-0.160,-0.135
2653,-0.275,-0.180
2654,-0.350,-0.185
2655,-0.320,-0.150
2656,-0.295,-0.150
2657,-0.325,-0.165
2658,-0.330,-0.170
2659,-0.325,-0.175
2660,-0.315,-0.155
2661,-0.315,-0.145
2662,-0.330,-0.145
2663,-0.345,-0.150
2664,-0.330,-0.130
2665,-0.330,-0.055
2666,-0.365,-0.030
2667,-0.395,-0.010
2668,-0.390,0.030
2669,-0.335,0.090
2670,-0.205,0.125
2671,0.080,0.025
2672,0.520,-0.270
2673,1.040,-0.840
2674,1.675,-1.345
2675,1.890,-1.445
2676,2.230,-1.380
2677,1.305,-1.440
2678,-0.060,-1.455
2679,-1.010,-1.265
2680,-1.080,-0.935
2681,-0.770,-0.640
2682,-0.595,-0.405
2683,-0.495,-0.275
2684,-0.410,-0.195
2685,-0.355,-0.125
2686,-0.330,-0.085
2687,-0.310,-0.075
2688,-0.270,-0.065
2689,-0.240,-0.030
2690,-0.255,0.000
2691,-0.260,-0.005
2692,-0.245,-0.020
2693,-0.235,-0.020
2694,-0.255,-0.005
2695,-0.270,0.000
2696,-0.265,-0.015
2697,-0.225,0.000
2698,-0.235,0.030
2699,-0.265,0.010
2700,-0.270,0.000
2701,-0.250,0.010
2702,-0.240,0.020
2703,-0.225,0.030
2704,-0.210,0.035
2705,-0.210,0.030
2706,-0.210,0.050
2707,-0.210,0.050
2708,-0.215,0.030
2709,-0.195,0.035
2710,-0.175,0.060
2711,-0.160,0.075
2712,-0.130,0.100
2713,-0.105,0.125
2714,-0.080,0.140
2715,-0.080,0.145
2716,-0.095,0.145
2717,-0.080,0.165
2718,-0.025,0.185
2719,0.020,0.205
2720,0.060,0.230
2721,0.075,0.255
2722,0.090,0.285
2723,0.090,0.330
2724,0.115,0.330
2725,0.125,0.325
2726,0.210,0.350
2727,0.250,0.380
2728,0.290,0.380
2729,0.310,0.375
2730,0.335,0.385
2731,0.365,0.420
2732,0.400,0.410
2733,0.380,0.340
2734,0.370,0.305
2735,0.375,0.295
2736,0.380,0.295
2737,0.340,0.260
2738,0.270,0.195
2739,0.185,0.145
2740,0.125,0.100
2741,0.045,0.060
2742,-0.005,0.025
2743,-0.025,0.010
2744,-0.070,0.005
2745,-0.125,-0.005
2746,-0.165,-0.050
2747,-0.195,-0.075
2748,-0.200,-0.085
2749,-0.210,-0.100
2750,-0.220,-0.105
2751,-0.250,-0.100
2752,-0.240,-0.085
2753,-0.235,-0.085
2754,-0.230,-0.110
2755,-0.240,-0.125
2756,-0.260,-0.100
2757,-0.230,-0.085
2758,-0.240,-0.100
2759,-0.260,-0.115
2760,-0.270,-0.135
2761,-0.280,-0.115
2762,-0.280,-0.090
2763,-0.270,-0.090
2764,-0.265,-0.100
2765,-0.265,-0.125
2766,-0.270,-0.125
2767,-0.270,-0.130
2768,-0.255,-0.105
2769,-0.220,-0.075
2770,-0.215,-0.075
2771,-0.230,-0.095
2772,-0.235,-0.090
2773,-0.240,-0.075
2774,-0.240,-0.075
2775,-0.245,-0.080
2776,-0.240,-0.100
2777,-0.225,-0.075
2778,-0.215,-0.075
2779,-0.245,-0.090
2780,-0.260,-0.085
2781,-0.240,-0.080
2782,-0.235,-0.090
2783,-0.230,-0.090
2784,-0.205,-0.095
2785,-0.175,-0.065
2786,-0.200,-0.055
2787,-0.260,-0.095
2788,-0.290,-0.110
2789,-0.270,-0.115
2790,-0.275,-0.095
2791,-0.305,-0.100
2792,-0.285,-0.105
2793,-0.255,-0.095
2794,-0.255,-0.105
2795,-0.255,-0.110
2796,-0.260,-0.120
2797,-0.280,-0.110
2798,-0.255,-0.105
2799,-0.250,-0.100
2800,-0.255,-0.100
2801,-0.220,-0.095
2802,-0.185,-0.050
2803,-0.135,-0.015
2804,-0.100,-0.005
2805,-0.115,-0.005
2806,-0.115,0.015
2807,-0.090,0.030
2808,-0.070,0.030
2809,-0.045,0.025
2810,-0.010,0.045
2811,-0.005,0.020
2812,-0.045,-0.005
2813,-0.070,-0.030
2814,-0.050,-0.065
2815,-0.040,-0.070
2816,-0.090,-0.080
2817,-0.130,-0.090
2818,-0.120,-0.060
2819,-0.100,-0.075
2820,-0.150,-0.140
2821,-0.275,-0.205
2822,-0.330,-0.205
2823,-0.305,-0.180
2824,-0.320,-0.175
2825,-0.330,-0.180
2826,-0.320,-0.175
2827,-0.310,-0.175
2828,-0.330,-0.175
2829,-0.330,-0.165
2830,-0.315,-0.170
2831,-0.325,-0.170
2832,-0.315,-0.120
2833,-0.345,-0.065
2834,-0.365,-0.070
2835,-0.375,-0.050
2836,-0.370,0.050
2837,-0.365,0.045
2838,-0.285,0.050
2839,-0.010,0.065
2840,0.385,-0.150
2841,0.900,-0.670
2842,1.595,-1.180
2843,2.285,-1.370
2844,2.390,-1.360
2845,1.520,-1.450
2846,-0.025,-1.520
2847,-1.105,-1.340
2848,-1.205,-1.005
2849,-0.865,-0.730
2850,-0.775,-0.655
2851,-0.540,-0.330
2852,-0.420,-0.215
2853,-0.365,-0.170
2854,-0.335,-0.150
2855,-0.285,-0.100
2856,-0.255,-0.060
2857,-0.260,-0.060
2858,-0.295,-0.065
2859,-0.295,-0.060
2860,-0.270,-0.055
2861,-0.265,-0.045
2862,-0.250,-0.025
2863,-0.250,-0.035
2864,-0.250,-0.030
2865,-0.235,-0.015
2866,-0.230,-0.045
2867,-0.225,-0.060
2868,-0.210,0.000
2869,-0.210,0.100
2870,-0.225,0.050
2871,-0.225,-0.095
2872,-0.230,-0.100
2873,-0.190,0.005
2874,-0.160,0.070
2875,-0.170,0.085
2876,-0.205,-0.050
2877,-0.190,-0.040
2878,-0.190,0.010
2879,-0.165,0.015
2880,-0.140,-0.005
2881,-0.105,0.000
2882,-0.090,0.030
2883,-0.095,0.035
2884,-0.085,0.050
2885,-0.040,0.090
2886,-0.030,0.125
2887,-0.020,0.145
2888,0.010,0.150
2889,0.050,0.165
2890,0.060,0.175
2891,0.085,0.185
2892,0.165,0.190
2893,0.215,0.200
2894,0.220,0.220
2895,0.235,0.225
2896,0.275,0.235
2897,0.305,0.290
2898,0.305,0.285
2899,0.330,0.220
2900,0.345,0.205
2901,0.370,0.230
2902,0.350,0.235
2903,0.355,0.225
2904,0.350,0.190
2905,0.280,0.140
2906,0.215,0.080
2907,0.185,0.035
2908,0.145,0.035
2909,0.050,0.055
2910,-0.025,0.030
2911,-0.055,-0.025
2912,-0.105,-0.085
2913,-0.155,-0.085
2914,-0.170,-0.075
2915,-0.175,-0.080
2916,-0.180,-0.100
2917,-0.185,-0.100
2918,-0.200,-0.105
2919,-0.230,-0.090
2920,-0.255,-0.110
2921,-0.285,-0.120
2922,-0.295,-0.105
2923,-0.250,-0.090
2924,-0.255,-0.090
2925,-0.270,-0.100
2926,-0.280,-0.120
2927,-0.260,-0.085
2928,-0.265,-0.105
2929,-0.285,-0.145
2930,-0.280,-0.130
2931,-0.280,-0.110
2932,-0.290,-0.115
2933,-0.300,-0.115
2934,-0.295,-0.115
2935,-0.270,-0.105
2936,-0.265,-0.095
2937,-0.270,-0.105
2938,-0.265,-0.105
2939,-0.240,-0.085
2940,-0.235,-0.075
2941,-0.260,-0.065
2942,-0.255,-0.055
2943,-0.250,-0.085
2944,-0.250,-0.105
2945,-0.285,-0.110
2946,-0.310,-0.085
2947,-0.285,-0.065
2948,-0.260,-0.075
2949,-0.240,-0.080
2950,-0.245,-0.070
2951,-0.300,-0.030
2952,-0.265,-0.140
2953,-0.250,-0.190
2954,-0.245,-0.150
2955,-0.250,-0.095
2956,-0.245,-0.075
2957,-0.250,-0.060
2958,-0.265,-0.120
2959,-0.270,-0.170
2960,-0.275,-0.170
2961,-0.270,-0.130
2962,-0.280,-0.100
2963,-0.265,-0.120
2964,-0.250,-0.095
2965,-0.200,-0.050
2966,-0.185,-0.055
2967,-0.215,-0.055
2968,-0.165,-0.005
2969,-0.110,0.025
2970,-0.100,0.030
2971,-0.125,0.040
2972,-0.095,0.060
2973,-0.070,-0.005
2974,-0.100,-0.060
2975,-0.115,-0.075
2976,-0.120,-0.085
2977,-0.115,-0.020
2978,-0.115,0.020
2979,-0.130,-0.065
2980,-0.140,-0.155
2981,-0.150,-0.110
2982,-0.155,-0.075
2983,-0.170,-0.160
2984,-0.260,-0.205
2985,-0.340,-0.175
2986,-0.350,-0.145
2987,-0.350,-0.175
2988,-0.355,-0.205
2989,-0.345,-0.160
2990,-0.345,-0.170
2991,-0.350,-0.210
2992,-0.350,-0.190
2993,-0.360,-0.180
2994,-0.350,-0.175
2995,-0.350,-0.175
2996,-0.355,-0.170
2997,-0.390,-0.130
2998,-0.420,-0.055
2999,-0.435,-0.020
3000,-0.445,-0.015
3001,-0.420,0.010
3002,-0.235,0.105
3003,0.110,0.040
3004,0.600,-0.275
3005,1.225,-0.730
3006,1.885,-1.000
3007,2.345,-1.050
3008,1.890,-1.145
3009,0.535,-1.285
3010,-0.840,-1.270
3011,-1.270,-1.020
3012,-0.970,-0.740
3013,-0.730,-0.550
3014,-0.605,-0.380
3015,-0.490,-0.260
3016,-0.415,-0.170
3017,-0.385,-0.115
3018,-0.335,-0.070
3019,-0.285,-0.035
3020,-0.275,-0.045
3021,-0.315,-0.090
3022,-0.315,-0.065
3023,-0.290,-0.060
3024,-0.290,-0.040
3025,-0.290,-0.025
3026,-0.270,-0.065
3027,-0.215,-0.070
3028,-0.220,-0.055
3029,-0.280,-0.055
3030,-0.295,-0.040
3031,-0.270,-0.010
3032,-0.260,0.000
3033,-0.235,-0.005
3034,-0.150,-0.020
3035,-0.105,-0.020
3036,-0.165,-0.005
3037,-0.140,-0.005
3038,-0.025,-0.030
3039,-0.055,0.005
3040,-0.190,0.040
3041,-0.300,0.040
3042,-0.300,0.025
3043,-0.220,0.050
3044,-0.190,0.075
3045,-0.190,0.085
3046,-0.160,0.060
3047,-0.135,0.055
3048,-0.105,0.085
3049,-0.070,0.100
3050,-0.065,0.105
3051,-0.005,0.165
3052,0.040,0.205
3053,0.065,0.205
3054,0.090,0.180
3055,0.130,0.200
3056,0.195,0.235
3057,0.225,0.230
3058,0.240,0.215
3059,0.275,0.210
3060,0.320,0.230
3061,0.350,0.245
3062,0.380,0.225
3063,0.400,0.210
3064,0.385,0.225
3065,0.350,0.210
3066,0.340,0.180
3067,0.295,0.175
3068,0.220,0.170
3069,0.160,0.130
3070,0.115,0.080
3071,0.060,0.035
3072,0.015,0.015
3073,-0.040,0.030
3074,-0.015,0.000
3075,0.000,-0.015
3076,-0.045,-0.075
3077,-0.145,-0.060
3078,-0.220,-0.055
3079,-0.260,-0.070
3080,-0.275,-0.090
3081,-0.290,-0.095
3082,-0.270,-0.095
3083,-0.280,-0.120
3084,-0.285,-0.130
3085,-0.265,-0.110
3086,-0.250,-0.095
3087,-0.280,-0.115
3088,-0.300,-0.125
3089,-0.290,-0.115
3090,-0.275,-0.100
3091,-0.250,-0.100
3092,-0.250,-0.110
3093,-0.260,-0.115
3094,-0.255,-0.105
3095,-0.250,-0.095
3096,-0.180,-0.110
3097,-0.140,-0.105
3098,-0.170,-0.085
3099,-0.225,-0.075
3100,-0.240,-0.075
3101,-0.290,-0.110
3102,-0.305,-0.080
3103,-0.320,-0.075
3104,-0.275,-0.075
3105,-0.250,-0.080
3106,-0.270,-0.075
3107,-0.280,-0.090
3108,-0.250,-0.090
3109,-0.235,-0.090
3110,-0.200,-0.080
3111,-0.210,-0.075
3112,-0.215,-0.080
3113,-0.220,-0.085
3114,-0.215,-0.085
3115,-0.200,-0.090
3116,-0.190,-0.100
3117,-0.175,-0.100
3118,-0.180,-0.100
3119,-0.230,-0.100
3120,-0.250,-0.095
3121,-0.260,-0.125
3122,-0.240,-0.120
3123,-0.200,-0.095
3124,-0.205,-0.105
3125,-0.220,-0.115
3126,-0.255,-0.115
3127,-0.235,-0.120
3128,-0.230,-0.135
3129,-0.225,-0.135
3130,-0.240,-0.120
3131,-0.230,-0.100
3132,-0.230,-0.125
3133,-0.220,-0.125
3134,-0.140,-0.080
3135,-0.080,-0.030
3136,-0.095,-0.015
3137,-0.120,-0.010
3138,-0.100,-0.005
3139,-0.060,0.010
3140,-0.045,0.035
3141,-0.035,0.025
3142,-0.010,-0.010
3143,0.000,-0.045
3144,0.010,-0.055
3145,0.040,-0.040
3146,0.000,-0.040
3147,-0.040,-0.065
3148,-0.095,-0.060
3149,-0.160,-0.050
3150,-0.180,-0.045
3151,-0.200,-0.075
3152,-0.220,-0.045
3153,-0.280,-0.040
3154,-0.290,-0.120
3155,-0.265,-0.165
3156,-0.315,-0.110
3157,-0.370,-0.130
3158,-0.360,-0.245
3159,-0.340,-0.290
3160,-0.305,-0.290
3161,-0.245,-0.300
3162,-0.220,-0.290
3163,-0.250,-0.175
3164,-0.280,-0.135
3165,-0.305,-0.135
3166,-0.355,-0.060
3167,-0.430,-0.100
3168,-0.410,-0.130
3169,-0.330,-0.035
3170,-0.210,0.040
3171,0.095,-0.070
3172,0.525,-0.395
3173,1.065,-0.885
3174,1.750,-1.245
3175,1.975,-1.305
3176,2.260,-1.280
3177,1.350,-1.335
3178,-0.160,-1.365
3179,-1.080,-1.185
3180,-0.985,-0.870
3181,-0.670,-0.605
3182,-0.550,-0.410
3183,-0.470,-0.295
3184,-0.375,-0.215
3185,-0.290,-0.135
3186,-0.260,-0.085
3187,-0.275,-0.080
3188,-0.300,-0.110
3189,-0.305,-0.110
3190,-0.275,-0.060
3191,-0.225,-0.040
3192,-0.250,-0.075
3193,-0.270,-0.090
3194,-0.230,-0.055
3195,-0.265,-0.050
3196,-0.285,-0.075
3197,-0.250,-0.045
3198,-0.200,-0.025
3199,-0.220,-0.055
3200,-0.240,-0.065
3201,-0.230,-0.045
3202,-0.215,-0.035
3203,-0.220,-0.025
3204,-0.220,-0.025
3205,-0.210,-0.035
3206,-0.210,-0.030
3207,-0.200,-0.010
3208,-0.215,-0.015
3209,-0.215,-0.015
3210,-0.170,0.010
3211,-0.155,0.025
3212,-0.160,0.020
3213,-0.120,0.040
3214,-0.085,0.060
3215,-0.085,0.080
3216,-0.060,0.105
3217,-0.015,0.105
3218,0.005,0.125
3219,-0.005,0.155
3220,0.000,0.165
3221,0.020,0.175
3222,0.070,0.210
3223,0.145,0.240
3224,0.160,0.235
3225,0.155,0.240
3226,0.215,0.275
3227,0.235,0.275
3228,0.250,0.285
3229,0.265,0.255
3230,0.300,0.250
3231,0.325,0.255
3232,0.325,0.265
3233,0.335,0.250
3234,0.340,0.220
3235,0.310,0.195
3236,0.265,0.180
3237,0.225,0.135
3238,0.160,0.090
3239,0.130,0.070
3240,0.100,0.055
3241,0.030,0.015
3242,-0.005,0.000
3243,-0.025,0.000
3244,-0.070,-0.030
3245,-0.100,-0.065
3246,-0.165,-0.075
3247,-0.195,-0.060
3248,-0.200,-0.035
3249,-0.200,-0.060
3250,-0.205,-0.075
3251,-0.260,-0.130
3252,-0.255,-0.180
3253,-0.260,-0.180
3254,-0.245,-0.150
3255,-0.220,-0.135
3256,-0.200,-0.120
3257,-0.225,-0.115
3258,-0.270,-0.145
3259,-0.260,-0.150
3260,-0.245,-0.125
3261,-0.240,-0.115
3262,-0.210,-0.110
3263,-0.210,-0.125
3264,-0.240,-0.115
3265,-0.215,-0.095
3266,-0.210,-0.095
3267,-0.220,-0.085
3268,-0.215,-0.075
3269,-0.205,-0.090
3270,-0.210,-0.090
3271,-0.200,-0.080
3272,-0.190,-0.070
3273,-0.200,-0.045
3274,-0.200,-0.060
3275,-0.210,-0.075
3276,-0.225,-0.105
3277,-0.215,-0.075
3278,-0.200,-0.070
3279,-0.190,-0.075
3280,-0.185,-0.070
3281,-0.185,-0.075
3282,-0.200,-0.065
3283,-0.220,-0.055
3284,-0.215,-0.080
3285,-0.205,-0.095
3286,-0.225,-0.070
3287,-0.205,-0.080
3288,-0.190,-0.095
3289,-0.200,-0.075
3290,-0.165,-0.065
3291,-0.170,-0.110
3292,-0.220,-0.140
3293,-0.240,-0.105
3294,-0.230,-0.095
3295,-0.225,-0.095
3296,-0.225,-0.105
3297,-0.205,-0.115
3298,-0.230,-0.100
3299,-0.220,-0.080
3300,-0.210,-0.075
3301,-0.225,-0.055
3302,-0.190,-0.040
3303,-0.160,0.010
3304,-0.140,0.055
3305,-0.100,0.035
3306,-0.060,-0.020
3307,-0.050,0.005
3308,-0.035,0.120
3309,-0.035,0.230
3310,-0.040,0.250
3311,0.000,0.085
3312,0.020,-0.120
3313,-0.025,-0.175
3314,-0.055,-0.035
3315,-0.040,0.010
3316,-0.070,-0.150
3317,-0.065,-0.240
3318,-0.055,-0.150
3319,-0.070,-0.050
3320,-0.080,-0.050
3321,-0.160,-0.115
3322,-0.265,-0.090
3323,-0.310,0.105
3324,-0.300,0.320
3325,-0.305,0.350
3326,-0.295,-0.265
3327,-0.265,-0.395
3328,-0.265,-0.235
3329,-0.275,-0.100
3330,-0.300,-0.100
3331,-0.310,-0.310
3332,-0.270,-0.410
3333,-0.270,-0.310
3334,-0.315,-0.180
3335,-0.355,-0.005
3336,-0.380,0.030
3337,-0.395,-0.025
3338,-0.360,-0.005
3339,-0.240,0.125
3340,0.055,0.095
3341,0.435,-0.175
3342,0.895,-0.590
3343,1.510,-0.970
3344,2.220,-1.225
3345,2.465,-1.280
3346,1.765,-1.310
3347,0.345,-1.380
3348,-0.875,-1.240
3349,-1.030,-0.840
3350,-0.955,-0.700
3351,-0.590,-0.305
3352,-0.505,-0.190
3353,-0.405,-0.245
3354,-0.345,-0.275
3355,-0.320,-0.200
3356,-0.285,-0.135
3357,-0.255,-0.075
3358,-0.265,-0.060
3359,-0.270,-0.065
3360,-0.260,-0.030
3361,-0.240,0.000
3362,-0.240,-0.015
3363,-0.265,-0.025
3364,-0.235,0.000
3365,-0.190,0.010
3366,-0.205,0.000
3367,-0.265,-0.025
3368,-0.285,-0.015
3369,-0.255,0.005
3370,-0.255,0.005
3371,-0.250,-0.045
3372,-0.235,-0.065
3373,-0.225,-0.005
3374,-0.215,0.005
3375,-0.215,0.000
3376,-0.180,0.015
3377,-0.130,0.045
3378,-0.095,0.075
3379,-0.145,0.080
3380,-0.140,0.085
3381,-0.105,0.075
3382,-0.130,0.075
3383,-0.155,0.080
3384,-0.125,0.080
3385,-0.060,0.110
3386,0.015,0.145
3387,0.070,0.165
3388,0.040,0.180
3389,0.010,0.205
3390,0.035,0.245
3391,0.035,0.270
3392,0.055,0.260
3393,0.105,0.285
3394,0.145,0.300
3395,0.165,0.315
3396,0.205,0.315
3397,0.250,0.315
3398,0.275,0.345
3399,0.290,0.330
3400,0.300,0.320
3401,0.355,0.305
3402,0.380,0.305
3403,0.330,0.285
3404,0.260,0.245
3405,0.250,0.270
3406,0.255,0.220
3407,0.195,0.110
3408,0.115,0.055
3409,0.075,0.045
3410,0.050,0.030
3411,0.000,0.005
3412,-0.065,-0.035
3413,-0.115,-0.070
3414,-0.145,-0.065
3415,-0.165,-0.050
3416,-0.205,-0.065
3417,-0.215,-0.090
3418,-0.210,-0.105
3419,-0.175,-0.120
3420,-0.125,-0.125
3421,-0.090,-0.130
3422,-0.155,-0.150
3423,-0.170,-0.130
3424,-0.205,-0.110
3425,-0.240,-0.110
3426,-0.300,-0.100
3427,-0.285,-0.080
3428,-0.290,-0.120
3429,-0.320,-0.165
3430,-0.345,-0.150
3431,-0.305,-0.125
3432,-0.250,-0.110
3433,-0.265,-0.135
3434,-0.280,-0.150
3435,-0.270,-0.100
3436,-0.270,-0.080
3437,-0.250,-0.105
3438,-0.225,-0.120
3439,-0.250,-0.130
3440,-0.240,-0.115
3441,-0.230,-0.120
3442,-0.245,-0.130
3443,-0.245,-0.115
3444,-0.230,-0.090
3445,-0.220,-0.065
3446,-0.225,-0.065
3447,-0.215,-0.085
3448,-0.220,-0.095
3449,-0.240,-0.105
3450,-0.250,-0.100
3451,-0.240,-0.005
3452,-0.230,0.005
3453,-0.240,-0.055
3454,-0.255,-0.120
3455,-0.260,-0.175
3456,-0.240,-0.195
3457,-0.230,-0.170
3458,-0.235,-0.135
3459,-0.230,-0.130
3460,-0.230,-0.115
3461,-0.230,-0.100
3462,-0.230,-0.125
3463,-0.230,-0.125
3464,-0.240,-0.100
3465,-0.260,-0.090
3466,-0.290,-0.110
3467,-0.260,-0.145
3468,-0.240,-0.155
3469,-0.255,-0.130
3470,-0.280,-0.100
3471,-0.265,-0.075
3472,-0.190,-0.065
3473,-0.125,-0.020
3474,-0.125,-0.005
3475,-0.135,-0.015
3476,-0.115,-0.020
3477,-0.075,0.000
3478,-0.060,0.010
3479,-0.040,0.010
3480,-0.015,0.010
3481,-0.050,-0.025
3482,-0.080,-0.080
3483,-0.095,-0.090
3484,-0.100,-0.095
3485,-0.075,-0.075
3486,-0.085,-0.065
3487,-0.085,-0.055
3488,-0.065,-0.040
3489,-0.110,-0.045
3490,-0.180,-0.115
3491,-0.300,-0.215
3492,-0.355,-0.225
3493,-0.310,-0.190
3494,-0.295,-0.185
3495,-0.330,-0.195
3496,-0.325,-0.205
3497,-0.295,-0.190
3498,-0.290,-0.175
3499,-0.310,-0.200
3500,-0.320,-0.215
3501,-0.330,-0.130
3502,-0.320,-0.115
3503,-0.340,-0.180
3504,-0.375,-0.165
3505,-0.430,-0.085
3506,-0.420,-0.035
3507,-0.385,0.005
3508,-0.265,0.070
3509,0.010,0.015
3510,0.420,-0.245
3511,0.950,-0.735
3512,1.660,-1.195
3513,2.385,-1.305
3514,2.520,-1.280
3515,1.615,-1.350
3516,0.025,-1.435
3517,-1.045,-1.250
3518,-1.100,-0.905
3519,-0.760,-0.630
3520,-0.575,-0.430
3521,-0.475,-0.300
3522,-0.400,-0.210
3523,-0.345,-0.115
3524,-0.320,-0.080
3525,-0.315,-0.090
3526,-0.260,-0.085
3527,-0.245,-0.075
3528,-0.240,-0.075
3529,-0.255,-0.080
3530,-0.270,-0.065
3531,-0.270,-0.010
3532,-0.230,-0.035
3533,-0.215,-0.050
3534,-0.230,0.015
3535,-0.250,0.015
3536,-0.245,0.000
3537,-0.250,0.030
3538,-0.240,-0.045
3539,-0.210,-0.115
3540,-0.200,-0.095
3541,-0.185,-0.055
3542,-0.170,-0.035
3543,-0.195,-0.025
3544,-0.205,0.005
3545,-0.205,0.035
3546,-0.205,0.010
3547,-0.165,-0.020
3548,-0.135,0.000
3549,-0.150,-0.005
3550,-0.145,-0.010
3551,-0.110,0.060
3552,-0.115,0.105
3553,-0.090,0.100
3554,-0.065,0.080
3555,-0.035,0.095
3556,0.015,0.145
3557,0.030,0.210
3558,0.035,0.210
3559,0.060,0.195
3560,0.090,0.200
3561,0.095,0.190
3562,0.145,0.200
3563,0.200,0.225
3564,0.230,0.250
3565,0.275,0.265
3566,0.305,0.280
3567,0.325,0.280
3568,0.340,0.285
3569,0.330,0.290
3570,0.340,0.290
3571,0.375,0.270
3572,0.370,0.250
3573,0.355,0.235
3574,0.310,0.215
3575,0.290,0.205
3576,0.235,0.135
3577,0.205,0.095
3578,0.125,0.055
3579,0.035,0.010
3580,0.010,-0.015
3581,-0.030,-0.040
3582,-0.105,-0.050
3583,-0.135,-0.070
3584,-0.150,-0.085
3585,-0.175,-0.080
3586,-0.190,-0.075
3587,-0.200,-0.095
3588,-0.220,-0.130
3589,-0.240,-0.130
3590,-0.225,-0.110
3591,-0.210,-0.110
3592,-0.230,-0.130
3593,-0.245,-0.130
3594,-0.240,-0.110
3595,-0.240,-0.120
3596,-0.240,-0.135
3597,-0.270,-0.120
3598,-0.275,-0.110
3599,-0.270,-0.130
3600,-0.260,-0.140
3601,-0.195,-0.115
3602,-0.205,-0.100
3603,-0.240,-0.110
3604,-0.245,-0.135
3605,-0.205,-0.115
3606,-0.175,-0.090
3607,-0.160,-0.085
3608,-0.200,-0.095
3609,-0.220,-0.090
3610,-0.145,-0.065
3611,-0.165,-0.095
3612,-0.250,-0.110
3613,-0.250,-0.085
3614,-0.200,-0.075
3615,-0.170,-0.055
3616,-0.180,-0.060
3617,-0.200,-0.095
3618,-0.155,-0.100
3619,-0.145,-0.095
3620,-0.195,-0.090
3621,-0.235,-0.095
3622,-0.250,-0.105
3623,-0.230,-0.085
3624,-0.210,-0.075
3625,-0.200,-0.070
3626,-0.165,-0.080
3627,-0.240,-0.090
3628,-0.240,-0.100
3629,-0.200,-0.090
3630,-0.200,-0.095
3631,-0.190,-0.085
3632,-0.165,-0.075
3633,-0.190,-0.110
3634,-0.255,-0.140
3635,-0.245,-0.120
3636,-0.185,-0.090
3637,-0.195,-0.090
3638,-0.225,-0.115
3639,-0.230,-0.130
3640,-0.230,-0.115
3641,-0.200,-0.085
3642,-0.150,-0.070
3643,-0.095,-0.010
3644,-0.065,0.030
3645,-0.080,0.025
3646,-0.080,0.020
3647,-0.050,0.045
3648,-0.030,0.055
3649,-0.010,0.055
3650,0.000,0.050
3651,0.025,-0.005
3652,0.010,-0.020
3653,-0.020,-0.025
3654,-0.025,-0.030
3655,-0.030,-0.055
3656,-0.060,-0.060
3657,-0.060,-0.030
3658,-0.070,-0.040
3659,-0.090,-0.070
3660,-0.080,-0.095
3661,-0.135,-0.140
3662,-0.260,-0.180
3663,-0.310,-0.160
3664,-0.280,-0.145
3665,-0.260,-0.155
3666,-0.305,-0.170
3667,-0.295,-0.170
3668,-0.265,-0.155
3669,-0.275,-0.125
3670,-0.300,-0.060
3671,-0.320,-0.035
3672,-0.310,-0.100
3673,-0.300,-0.120
3674,-0.325,-0.035
3675,-0.335,0.005
3676,-0.400,0.230
3677,-0.345,0.150
3678,-0.220,0.045
3679,0.020,0.070
3680,0.405,-0.175
3681,0.900,-0.810
3682,1.550,-1.360
3683,2.245,-1.420
3684,2.445,-1.370
3685,1.625,-1.405
3686,0.240,-1.455
3687,-0.865,-1.370
3688,-1.080,-1.075
3689,-0.785,-0.750
3690,-0.600,-0.485
3691,-0.475,-0.320
3692,-0.395,-0.215
3693,-0.360,-0.130
3694,-0.330,-0.075
3695,-0.295,-0.050
3696,-0.275,-0.060
3697,-0.285,-0.070
3698,-0.270,-0.010
3699,-0.250,0.005
3700,-0.250,0.000
3701,-0.260,-0.010
3702,-0.235,0.000
3703,-0.225,0.000
3704,-0.245,-0.010
3705,-0.260,0.000
3706,-0.235,0.020
3707,-0.240,0.025
3708,-0.245,0.025
3709,-0.240,0.005
3710,-0.240,-0.025
3711,-0.215,0.015
3712,-0.215,0.045
3713,-0.215,0.070
3714,-0.200,0.090
3715,-0.195,0.060
3716,-0.180,0.025
3717,-0.155,0.055
3718,-0.075,0.090
3719,-0.010,0.085
3720,-0.030,0.100
3721,-0.100,0.120
3722,-0.005,0.130
3723,0.085,0.150
3724,-0.055,0.175
3725,-0.115,0.175
3726,-0.175,0.205
3727,-0.070,0.260
3728,-0.025,0.275
3729,0.020,0.280
3730,0.075,0.295
3731,0.100,0.320
3732,0.135,0.355
3733,0.180,0.365
3734,0.200,0.360
3735,0.235,0.375
3736,0.275,0.400
3737,0.295,0.415
3738,0.310,0.395
3739,0.335,0.395
3740,0.360,0.395
3741,0.365,0.380
3742,0.355,0.355
3743,0.355,0.325
3744,0.315,0.300
3745,0.275,0.255
3746,0.240,0.185
3747,0.215,0.150
3748,0.195,0.130
3749,0.110,0.085
3750,0.070,0.070
3751,-0.060,0.015
3752,-0.115,0.005
3753,-0.150,-0.005
3754,-0.145,-0.055
3755,-0.115,-0.070
3756,-0.115,-0.060
3757,-0.200,-0.050
3758,-0.305,-0.095
3759,-0.335,-0.115
3760,-0.270,-0.090
3761,-0.275,-0.080
3762,-0.295,-0.090
3763,-0.275,-0.070
3764,-0.265,-0.030
3765,-0.260,-0.080
3766,-0.270,-0.125
3767,-0.265,-0.120
3768,-0.260,-0.140
3769,-0.250,-0.115
3770,-0.240,-0.105
3771,-0.260,-0.125
3772,-0.250,-0.125
3773,-0.210,-0.095
3774,-0.180,-0.085
3775,-0.190,-0.090
3776,-0.265,-0.100
3777,-0.255,-0.060
3778,-0.250,-0.065
3779,-0.265,-0.095
3780,-0.260,-0.095
3781,-0.245,-0.080
3782,-0.230,-0.060
3783,-0.225,-0.070
3784,-0.230,-0.065
3785,-0.235,-0.050
3786,-0.235,-0.055
3787,-0.250,-0.085
3788,-0.240,-0.100
3789,-0.235,-0.100
3790,-0.240,-0.085
3791,-0.230,-0.045
3792,-0.225,-0.060
3793,-0.235,-0.075
3794,-0.240,-0.070
3795,-0.245,-0.085
3796,-0.255,-0.075
3797,-0.260,-0.085
3798,-0.250,-0.110
3799,-0.245,-0.115
3800,-0.255,-0.120
3801,-0.260,-0.115
3802,-0.250,-0.120
3803,-0.245,-0.110
3804,-0.240,-0.115
3805,-0.250,-0.105
3806,-0.260,-0.085
3807,-0.250,-0.075
3808,-0.250,-0.090
3809,-0.230,-0.100
3810,-0.195,-0.050
3811,-0.160,-0.005
3812,-0.120,0.000
3813,-0.080,0.030
3814,-0.050,0.060
3815,-0.065,0.095
3816,-0.070,0.095
3817,-0.035,0.060
3818,-0.010,0.060
3819,-0.030,0.040
3820,-0.045,-0.070
3821,-0.060,-0.115
3822,-0.080,-0.085
3823,-0.110,-0.060
3824,-0.085,-0.055
3825,-0.080,-0.060
3826,-0.115,-0.055
3827,-0.165,-0.085
3828,-0.250,-0.170
3829,-0.335,-0.215
3830,-0.345,-0.180
3831,-0.325,-0.150
3832,-0.310,-0.150
3833,-0.325,-0.190
3834,-0.335,-0.185
3835,-0.330,-0.155
3836,-0.325,-0.175
3837,-0.345,-0.195
3838,-0.325,-0.185
3839,-0.315,-0.165
3840,-0.325,-0.155
3841,-0.345,-0.135
3842,-0.360,-0.080
3843,-0.360,-0.005
3844,-0.355,0.035
3845,-0.370,0.080
3846,-0.245,0.130
3847,0.090,0.040
3848,0.545,-0.240
3849,1.150,-0.790
3850,1.355,-0.975
3851,2.365,-1.320
3852,2.110,-1.345
3853,0.845,-1.455
3854,-0.635,-1.485
3855,-1.305,-1.265
3856,-1.100,-0.915
3857,-0.770,-0.640
3858,-0.630,-0.445
3859,-0.540,-0.310
3860,-0.435,-0.205
3861,-0.375,-0.145
3862,-0.360,-0.120
3863,-0.295,-0.090
3864,-0.245,-0.055
3865,-0.250,-0.030
3866,-0.280,-0.060
3867,-0.280,-0.065
3868,-0.265,-0.055
3869,-0.280,-0.055
3870,-0.250,-0.040
3871,-0.235,-0.040
3872,-0.250,-0.040
3873,-0.240,-0.005
3874,-0.205,-0.015
3875,-0.200,-0.030
3876,-0.185,-0.055
3877,-0.200,-0.015
3878,-0.215,0.000
3879,-0.200,0.000
3880,-0.195,0.000
3881,-0.170,0.000
3882,-0.180,-0.010
3883,-0.195,-0.020
3884,-0.190,-0.005
3885,-0.140,0.110
3886,-0.095,0.210
3887,-0.110,0.105
3888,-0.125,-0.050
3889,-0.115,-0.040
3890,-0.075,0.005
3891,-0.050,0.025
3892,-0.015,0.040
3893,0.000,0.075
3894,-0.025,0.120
3895,-0.020,0.135
3896,0.015,0.130
3897,0.060,0.150
3898,0.130,0.185
3899,0.180,0.200
3900,0.190,0.205
3901,0.185,0.220
3902,0.250,0.255
3903,0.295,0.345
3904,0.280,0.295
3905,0.305,0.180
3906,0.320,0.205
3907,0.340,0.285
3908,0.350,0.255
3909,0.355,0.195
3910,0.365,0.195
3911,0.325,0.215
3912,0.285,0.170
3913,0.260,0.090
3914,0.230,0.065
3915,0.165,0.045
3916,0.080,0.005
3917,0.020,0.000
3918,-0.025,-0.020
3919,-0.060,-0.045
3920,-0.075,-0.065
3921,-0.120,-0.085
3922,-0.175,-0.100
3923,-0.200,-0.095
3924,-0.210,-0.085
3925,-0.220,-0.090
3926,-0.250,-0.115
3927,-0.245,-0.095
3928,-0.220,-0.100
3929,-0.260,-0.120
3930,-0.270,-0.125
3931,-0.265,-0.115
3932,-0.275,-0.085
3933,-0.280,-0.120
3934,-0.300,-0.145
3935,-0.275,-0.065
3936,-0.260,-0.005
3937,-0.280,-0.060
3938,-0.280,-0.125
3939,-0.260,-0.115
3940,-0.265,-0.070
3941,-0.290,-0.050
3942,-0.285,-0.120
3943,-0.285,-0.125
3944,-0.270,-0.115
3945,-0.265,-0.160
3946,-0.260,-0.175
3947,-0.260,-0.145
3948,-0.240,-0.105
3949,-0.225,-0.100
3950,-0.230,-0.105
3951,-0.260,-0.105
3952,-0.260,-0.090
3953,-0.255,-0.075
3954,-0.235,-0.110
3955,-0.250,-0.130
3956,-0.255,-0.090
3957,-0.245,-0.075
3958,-0.260,-0.110
3959,-0.240,-0.120
3960,-0.205,-0.075
3961,-0.240,-0.075
3962,-0.295,-0.090
3963,-0.310,-0.090
3964,-0.260,-0.065
3965,-0.245,-0.095
3966,-0.270,-0.150
3967,-0.250,-0.105
3968,-0.245,-0.040
3969,-0.260,0.000
3970,-0.260,-0.075
3971,-0.255,-0.185
3972,-0.250,-0.175
3973,-0.195,-0.085
3974,-0.140,-0.040
3975,-0.130,-0.035
3976,-0.175,-0.020
3977,-0.140,0.035
3978,-0.105,0.045
3979,-0.100,0.015
3980,-0.075,0.005
3981,-0.035,0.005
3982,-0.030,-0.035
3983,-0.095,-0.065
3984,-0.140,-0.070
3985,-0.115,-0.040
3986,-0.075,-0.025
3987,-0.080,-0.035
3988,-0.090,-0.065
3989,-0.095,-0.085
3990,-0.120,-0.065
3991,-0.195,-0.075
3992,-0.270,-0.135
3993,-0.320,-0.150
3994,-0.360,-0.145
3995,-0.360,-0.170
3996,-0.330,-0.150
3997,-0.335,-0.125
3998,-0.345,-0.195
3999,-0.360,-0.235
4000,-0.355,-0.230
4001,-0.335,-0.195
4002,-0.335,-0.150
4003,-0.335,-0.140
4004,-0.355,-0.170
4005,-0.385,-0.160
4006,-0.405,-0.115
4007,-0.410,-0.060
4008,-0.420,-0.035
4009,-0.415,0.035
4010,-0.210,0.125
4011,0.165,0.070
4012,0.645,-0.270
4013,1.255,-0.785
4014,1.930,-1.085
4015,2.370,-1.095
4016,1.940,-1.170
4017,0.465,-1.335
4018,-0.990,-1.330
4019,-1.290,-1.035
4020,-0.960,-0.735
4021,-0.760,-0.555
4022,-0.645,-0.375
4023,-0.500,-0.200
4024,-0.405,-0.110
4025,-0.385,-0.105
4026,-0.320,-0.145
4027,-0.285,-0.085
4028,-0.270,-0.025
4029,-0.270,-0.015
4030,-0.265,0.000
4031,-0.285,0.040
4032,-0.310,-0.050
4033,-0.280,-0.155
4034,-0.265,-0.105
4035,-0.245,-0.060
4036,-0.260,-0.065
4037,-0.255,-0.050
4038,-0.265,-0.060
4039,-0.260,-0.045
4040,-0.230,-0.010
4041,-0.230,-0.005
4042,-0.235,0.005
4043,-0.205,0.020
4044,-0.190,0.000
4045,-0.200,-0.005
4046,-0.195,0.005
4047,-0.180,0.010
4048,-0.185,-0.010
4049,-0.180,0.025
4050,-0.175,0.040
4051,-0.155,0.000
4052,-0.135,0.045
4053,-0.115,0.065
4054,-0.120,0.065
4055,-0.080,0.085
4056,-0.060,0.120
4057,-0.035,0.115
4058,-0.015,0.115
4059,0.025,0.165
4060,0.055,0.185
4061,0.045,0.170
4062,0.090,0.160
4063,0.135,0.175
4064,0.170,0.200
4065,0.210,0.225
4066,0.240,0.230
4067,0.250,0.230
4068,0.250,0.265
4069,0.260,0.275
4070,0.280,0.255
4071,0.305,0.230
4072,0.315,0.205
4073,0.280,0.200
4074,0.270,0.195
4075,0.265,0.190
4076,0.205,0.150
4077,0.175,0.125
4078,0.165,0.085
4079,0.180,0.035
4080,0.080,0.025
4081,-0.050,0.025
4082,-0.135,-0.005
4083,-0.195,-0.055
4084,-0.215,-0.045
4085,-0.215,-0.050
4086,-0.235,-0.070
4087,-0.240,-0.075
4088,-0.250,-0.080
4089,-0.255,-0.080
4090,-0.250,-0.070
4091,-0.260,-0.090
4092,-0.275,-0.105
4093,-0.290,-0.110
4094,-0.290,-0.095
4095,-0.300,-0.080
4096,-0.305,-0.085
4097,-0.285,-0.100
4098,-0.275,-0.095
4099,-0.295,-0.110
4100,-0.310,-0.120
4101,-0.305,-0.105
4102,-0.305,-0.080
4103,-0.280,-0.070
4104,-0.285,-0.075
4105,-0.270,-0.085
4106,-0.255,-0.085
4107,-0.230,-0.075
4108,-0.215,-0.075
4109,-0.210,-0.080
4110,-0.220,-0.080
4111,-0.245,-0.105
4112,-0.285,-0.090
4113,-0.290,-0.065
4114,-0.230,-0.080
4115,-0.205,-0.085
4116,-0.210,-0.080
4117,-0.285,-0.085
4118,-0.310,-0.075
4119,-0.265,-0.045
4120,-0.250,-0.040
4121,-0.280,-0.070
4122,-0.280,-0.085
4123,-0.260,-0.075
4124,-0.245,-0.080
4125,-0.240,-0.080
4126,-0.245,-0.075
4127,-0.255,-0.075
4128,-0.245,-0.075
4129,-0.250,-0.100
4130,-0.260,-0.100
4131,-0.255,-0.085
4132,-0.255,-0.090
4133,-0.260,-0.100
4134,-0.260,-0.095
4135,-0.245,-0.075
4136,-0.265,-0.080
4137,-0.280,-0.085
4138,-0.260,-0.100
4139,-0.240,-0.095
4140,-0.180,-0.035
4141,-0.130,0.000
4142,-0.145,0.010
4143,-0.155,0.015
4144,-0.115,0.040
4145,-0.065,0.020
4146,-0.065,0.005
4147,-0.055,0.035
4148,-0.015,0.045
4149,-0.020,-0.010
4150,-0.040,-0.025
4151,-0.135,-0.040
4152,-0.095,-0.005
4153,-0.095,-0.015
4154,-0.110,-0.060
4155,-0.090,-0.055
4156,-0.085,-0.020
4157,-0.110,-0.040
4158,-0.210,-0.120
4159,-0.305,-0.170
4160,-0.355,-0.180
4161,-0.320,-0.155
4162,-0.320,-0.160
4163,-0.355,-0.175
4164,-0.355,-0.170
4165,-0.330,-0.160
4166,-0.360,-0.165
4167,-0.355,-0.175
4168,-0.325,-0.170
4169,-0.320,-0.155
4170,-0.330,-0.155
4171,-0.340,-0.150
4172,-0.385,-0.115
4173,-0.410,-0.040
4174,-0.390,0.000
4175,-0.375,0.005
4176,-0.320,0.090
4177,-0.085,0.110
4178,0.315,-0.090
4179,0.790,-0.575
4180,1.420,-1.080
4181,2.155,-1.245
4182,2.500,-1.230
4183,1.755,-1.300
4184,0.250,-1.385
4185,-0.960,-1.270
4186,-1.180,-0.975
4187,-0.845,-0.680
4188,-0.665,-0.445
4189,-0.540,-0.295
4190,-0.425,-0.210
4191,-0.370,-0.135
4192,-0.330,-0.095
4193,-0.295,-0.090
4194,-0.290,-0.080
4195,-0.285,-0.060
4196,-0.285,-0.045
4197,-0.275,-0.040
4198,-0.255,-0.045
4199,-0.255,-0.035
4200,-0.260,-0.025
4201,-0.245,-0.005
4202,-0.230,-0.025
4203,-0.245,-0.015
4204,-0.230,0.000
4205,-0.250,-0.030
4206,-0.260,-0.040
4207,-0.230,0.000
4208,-0.215,0.000
4209,-0.230,-0.020
4210,-0.240,-0.020
4211,-0.220,0.010
4212,-0.200,0.000
4213,-0.205,-0.020
4214,-0.205,0.000
4215,-0.180,0.040
4216,-0.175,0.045
4217,-0.165,0.035
4218,-0.135,0.040
4219,-0.100,0.075
4220,-0.090,0.085
4221,-0.075,0.100
4222,-0.060,0.120
4223,-0.070,0.105
4224,-0.050,0.120
4225,-0.035,0.130
4226,0.035,0.160
4227,0.065,0.200
4228,0.090,0.230
4229,0.105,0.240
4230,0.165,0.285
4231,0.210,0.355
4232,0.230,0.375
4233,0.240,0.240
4234,0.275,0.205
4235,0.310,0.290
4236,0.320,0.275
4237,0.310,0.245
4238,0.320,0.265
4239,0.350,0.280
4240,0.380,0.240
4241,0.360,0.210
4242,0.290,0.185
4243,0.270,0.150
4244,0.240,0.130
4245,0.145,0.090
4246,0.085,0.040
4247,0.055,0.020
4248,0.015,0.050
4249,-0.025,0.035
4250,-0.045,0.010
4251,-0.125,-0.105
4252,-0.150,-0.075
4253,-0.170,-0.035
4254,-0.215,-0.020
4255,-0.260,-0.080
4256,-0.240,-0.050
4257,-0.230,-0.030
4258,-0.235,-0.175
4259,-0.230,-0.235
4260,-0.245,-0.180
4261,-0.255,-0.125
4262,-0.265,-0.080
4263,-0.290,-0.105
4264,-0.290,-0.165
4265,-0.270,-0.155
4266,-0.245,-0.110
4267,-0.255,-0.100
4268,-0.265,-0.100
4269,-0.250,-0.125
4270,-0.250,-0.150
4271,-0.260,-0.145
4272,-0.255,-0.115
4273,-0.235,-0.105
4274,-0.230,-0.105
4275,-0.235,-0.100
4276,-0.260,-0.080
4277,-0.250,-0.075
4278,-0.240,-0.090
4279,-0.225,-0.125
4280,-0.220,-0.110
4281,-0.225,-0.085
4282,-0.230,-0.075
4283,-0.225,-0.075
4284,-0.215,-0.080
4285,-0.230,-0.060
4286,-0.255,-0.045
4287,-0.250,-0.060
4288,-0.240,-0.105
4289,-0.235,-0.100
4290,-0.225,-0.060
4291,-0.250,-0.105
4292,-0.250,-0.125
4293,-0.225,-0.055
4294,-0.225,-0.060
4295,-0.255,-0.095
4296,-0.260,-0.095
4297,-0.240,-0.035
4298,-0.230,-0.070
4299,-0.245,-0.160
4300,-0.250,-0.180
4301,-0.265,-0.150
4302,-0.255,-0.125
4303,-0.250,-0.100
4304,-0.250,-0.105
4305,-0.260,-0.150
4306,-0.250,-0.115
4307,-0.220,-0.060
4308,-0.170,-0.035
4309,-0.145,0.005
4310,-0.125,0.030
4311,-0.120,-0.010
4312,-0.130,-0.025
4313,-0.080,0.060
4314,-0.045,0.135
4315,-0.030,0.070
4316,0.000,0.025
4317,-0.010,-0.005
4318,-0.050,-0.015
4319,-0.040,-0.020
4320,-0.045,-0.060
4321,-0.105,-0.080
4322,-0.130,-0.035
4323,-0.105,0.005
4324,-0.095,0.005
4325,-0.105,0.000
4326,-0.185,-0.175
4327,-0.245,-0.235
4328,-0.290,-0.180
4329,-0.320,-0.170
4330,-0.330,-0.200
4331,-0.300,-0.195
4332,-0.295,-0.185
4333,-0.315,-0.205
4334,-0.300,-0.215
4335,-0.325,-0.195
4336,-0.350,-0.200
4337,-0.330,-0.210
4338,-0.305,-0.195
4339,-0.330,-0.145
4340,-0.355,-0.040
4341,-0.390,0.040
4342,-0.430,0.065
4343,-0.365,0.095
4344,-0.240,0.110
4345,0.010,0.020
4346,0.415,-0.220
4347,0.935,-0.690
4348,1.620,-1.160
4349,2.345,-1.350
4350,2.530,-1.370
4351,1.505,-1.415
4352,0.030,-1.445
4353,-1.005,-1.280
4354,-1.090,-1.000
4355,-0.785,-0.740
4356,-0.620,-0.475
4357,-0.520,-0.275
4358,-0.445,-0.200
4359,-0.370,-0.155
4360,-0.315,-0.090
4361,-0.305,-0.070
4362,-0.280,-0.055
4363,-0.260,-0.045
4364,-0.270,-0.060
4365,-0.280,-0.060
4366,-0.275,-0.040
4367,-0.280,-0.045
4368,-0.250,-0.035
4369,-0.245,-0.005
4370,-0.250,0.000
4371,-0.240,-0.005
4372,-0.250,0.005
4373,-0.230,0.030
4374,-0.215,0.045
4375,-0.220,0.050
4376,-0.210,0.000
4377,-0.215,0.020
4378,-0.235,0.020
4379,-0.205,0.000
4380,-0.195,0.045
4381,-0.180,0.065
4382,-0.160,0.055
4383,-0.165,0.075
4384,-0.160,0.100
4385,-0.130,0.065
4386,-0.135,0.050
4387,-0.140,0.110
4388,-0.110,0.140
4389,-0.075,0.125
4390,-0.055,0.150
4391,-0.040,0.175
4392,-0.010,0.180
4393,0.030,0.220
4394,0.060,0.235
4395,0.070,0.270
4396,0.080,0.285
4397,0.125,0.300
4398,0.175,0.315
4399,0.230,0.340
4400,0.250,0.355
4401,0.295,0.355
4402,0.250,0.380
4403,0.275,0.400
4404,0.300,0.395
4405,0.325,0.380
4406,0.345,0.380
4407,0.330,0.375
4408,0.330,0.320
4409,0.325,0.300
4410,0.280,0.270
4411,0.235,0.225
4412,0.185,0.165
4413,0.140,0.120
4414,0.110,0.105
4415,0.045,0.095
4416,-0.040,0.060
4417,-0.095,0.020
4418,-0.125,-0.015
4419,-0.160,-0.045
4420,-0.195,-0.060
4421,-0.200,-0.060
4422,-0.170,-0.065
4423,-0.160,-0.055
4424,-0.230,-0.085
4425,-0.255,-0.100
4426,-0.220,-0.070
4427,-0.195,-0.065
4428,-0.225,-0.080
4429,-0.300,-0.115
4430,-0.320,-0.115
4431,-0.285,-0.100
4432,-0.250,-0.115
4433,-0.275,-0.155
4434,-0.290,-0.140
4435,-0.280,-0.085
4436,-0.265,-0.075
4437,-0.235,-0.060
4438,-0.205,-0.095
4439,-0.180,-0.125
4440,-0.145,-0.110
4441,-0.185,-0.105
4442,-0.260,-0.110
4443,-0.280,-0.105
4444,-0.265,-0.075
4445,-0.275,-0.060
4446,-0.280,-0.075
4447,-0.270,-0.055
4448,-0.240,-0.025
4449,-0.245,-0.060
4450,-0.250,-0.075
4451,-0.250,-0.085
4452,-0.250,-0.075
4453,-0.230,-0.060
4454,-0.250,-0.065
4455,-0.245,-0.070
4456,-0.210,-0.070
4457,-0.200,-0.075
4458,-0.210,-0.090
4459,-0.205,-0.100
4460,-0.260,-0.090
4461,-0.265,-0.065
4462,-0.255,-0.080
4463,-0.280,-0.095
4464,-0.275,-0.080
4465,-0.250,-0.105
4466,-0.240,-0.100
4467,-0.225,-0.090
4468,-0.225,-0.080
4469,-0.260,-0.080
4470,-0.295,-0.090
4471,-0.310,-0.110
4472,-0.280,-0.130
4473,-0.250,-0.085
4474,-0.210,-0.070
4475,-0.195,-0.065
4476,-0.165,-0.030
4477,-0.110,0.040
4478,-0.095,0.060
4479,-0.095,0.055
4480,-0.080,0.040
4481,-0.065,0.040
4482,-0.055,0.060
4483,-0.035,0.075
4484,-0.030,0.105
4485,-0.070,0.015
4486,-0.085,-0.075
4487,-0.075,-0.075
4488,-0.085,-0.085
4489,-0.105,-0.095
4490,-0.105,-0.050
4491,-0.100,-0.035
4492,-0.135,-0.080
4493,-0.205,-0.135
4494,-0.285,-0.175
4495,-0.315,-0.180
4496,-0.310,-0.160
4497,-0.300,-0.155
4498,-0.290,-0.170
4499,-0.295,-0.180
4500,-0.290,-0.185
4501,-0.335,-0.165
4502,-0.330,-0.160
4503,-0.325,-0.155
4504,-0.325,-0.150
4505,-0.335,-0.145
4506,-0.350,-0.145
4507,-0.385,-0.100
4508,-0.430,-0.030
4509,-0.445,0.025
4510,-0.395,0.065
4511,-0.320,0.135
4512,-0.055,0.115
4513,0.355,-0.090
4514,0.880,-0.550
4515,1.590,-1.065
4516,2.275,-1.295
4517,2.370,-1.310
4518,1.550,-1.400
4519,0.050,-1.470
4520,-1.090,-1.345
4521,-1.230,-1.050
4522,-0.870,-0.755
4523,-0.630,-0.495
4524,-0.535,-0.330
4525,-0.515,-0.295
4526,-0.395,-0.170
4527,-0.350,-0.100
4528,-0.300,-0.075
4529,-0.275,-0.065
4530,-0.300,-0.085
4531,-0.315,-0.060
4532,-0.280,-0.030
4533,-0.270,-0.050
4534,-0.275,-0.065
4535,-0.295,-0.045
4536,-0.265,-0.015
4537,-0.245,0.000
4538,-0.215,0.010
4539,-0.185,0.000
4540,-0.230,-0.005
4541,-0.260,0.000
4542,-0.240,-0.015
4543,-0.230,-0.030
4544,-0.210,0.000
4545,-0.225,0.000
4546,-0.245,-0.005
4547,-0.225,0.000
4548,-0.200,-0.005
4549,-0.205,0.005
4550,-0.210,0.015
4551,-0.170,0.015
4552,-0.160,0.040
4553,-0.130,0.055
4554,-0.090,0.065
4555,-0.090,0.065
4556,-0.090,0.075
4557,-0.040,0.110
4558,-0.045,0.105
4559,-0.050,0.105
4560,0.000,0.145
4561,0.035,0.195
4562,0.035,0.175
4563,0.080,0.155
4564,0.155,0.210
4565,0.180,0.225
4566,0.185,0.215
4567,0.225,0.235
4568,0.240,0.205
4569,0.275,0.205
4570,0.290,0.215
4571,0.320,0.225
4572,0.350,0.220
4573,0.345,0.230
4574,0.345,0.230
4575,0.345,0.225
4576,0.335,0.175
4577,0.300,0.175
4578,0.265,0.140
4579,0.235,0.080
4580,0.165,0.035
4581,0.105,0.020
4582,0.045,0.020
4583,-0.005,-0.015
4584,-0.055,-0.050
4585,-0.090,-0.055
4586,-0.140,-0.050
4587,-0.180,-0.070
4588,-0.185,-0.095
4589,-0.185,-0.100
4590,-0.215,-0.100
4591,-0.230,-0.110
4592,-0.230,-0.125
4593,-0.240,-0.095
4594,-0.240,-0.095
4595,-0.250,-0.135
4596,-0.285,-0.130
4597,-0.275,-0.085
4598,-0.250,-0.090
4599,-0.250,-0.110
4600,-0.255,-0.100
4601,-0.250,-0.130
4602,-0.285,-0.165
4603,-0.280,-0.160
4604,-0.265,-0.135
4605,-0.260,-0.130
4606,-0.245,-0.100
4607,-0.250,-0.070
4608,-0.255,-0.040
4609,-0.265,-0.070
4610,-0.280,-0.160
4611,-0.255,-0.160
4612,-0.240,-0.145
4613,-0.235,-0.145
4614,-0.235,-0.125
4615,-0.245,-0.095
4616,-0.235,-0.065
4617,-0.210,-0.070
4618,-0.250,-0.105
4619,-0.270,-0.140
4620,-0.265,-0.150
4621,-0.260,-0.140
4622,-0.260,-0.115
4623,-0.240,-0.080
4624,-0.250,-0.080
4625,-0.260,-0.085
4626,-0.215,-0.125
4627,-0.255,-0.100
4628,-0.260,-0.090
4629,-0.245,-0.105
4630,-0.255,-0.105
4631,-0.270,-0.085
4632,-0.270,-0.085
4633,-0.275,-0.150
4634,-0.225,-0.165
4635,-0.200,-0.130
4636,-0.220,-0.105
4637,-0.220,-0.070
4638,-0.155,-0.040
4639,-0.135,-0.005
4640,-0.145,0.005
4641,-0.140,0.015
4642,-0.150,-0.015
4643,-0.110,-0.010
4644,-0.055,0.025
4645,-0.040,0.055
4646,-0.080,0.025
4647,-0.105,-0.080
4648,-0.100,-0.140
4649,-0.115,-0.120
4650,-0.125,-0.110
4651,-0.120,-0.070
4652,-0.100,0.005
4653,-0.075,0.040
4654,-0.075,-0.070
4655,-0.150,-0.165
4656,-0.265,-0.200
4657,-0.335,-0.215
4658,-0.335,-0.195
4659,-0.320,-0.180
4660,-0.305,-0.185
4661,-0.315,-0.185
4662,-0.325,-0.225
4663,-0.315,-0.200
4664,-0.285,-0.145
4665,-0.305,-0.120
4666,-0.340,-0.150
4667,-0.350,-0.180
4668,-0.340,-0.195
4669,-0.365,-0.150
4670,-0.395,-0.085
4671,-0.400,-0.055
4672,-0.405,0.045
4673,-0.355,0.240
4674,-0.155,0.145
4675,-0.060,0.075
4676,0.715,-0.445
4677,1.360,-0.870
4678,2.000,-1.060
4679,2.305,-1.015
4680,1.670,-1.055
4681,0.175,-1.255
4682,-1.115,-1.290
4683,-1.240,-1.055
4684,-0.865,-0.780
4685,-0.655,-0.535
4686,-0.550,-0.330
4687,-0.450,-0.225
4688,-0.385,-0.200
4689,-0.340,-0.145
4690,-0.285,-0.070
4691,-0.250,-0.050
4692,-0.275,-0.075
4693,-0.300,-0.025
4694,-0.280,0.000
4695,-0.265,0.005
4696,-0.240,-0.010
4697,-0.260,-0.075
4698,-0.270,-0.095
4699,-0.215,-0.065
4700,-0.200,-0.045
4701,-0.175,-0.055
4702,-0.205,-0.060
4703,-0.225,-0.025
4704,-0.235,-0.045
4705,-0.220,-0.025
4706,-0.230,0.045
4707,-0.220,0.015
4708,-0.190,-0.075
4709,-0.180,-0.100
4710,-0.185,-0.060
4711,-0.185,-0.025
4712,-0.195,-0.025
4713,-0.155,-0.015
4714,-0.105,0.010
4715,-0.100,0.030
4716,-0.140,0.030
4717,-0.115,0.020
4718,-0.085,0.040
4719,-0.055,0.110
4720,-0.025,0.125
4721,0.000,0.105
4722,0.020,0.120
4723,0.045,0.145
4724,0.050,0.140
4725,0.055,0.135
4726,0.160,0.200
4727,0.195,0.215
4728,0.195,0.235
4729,0.225,0.290
4730,0.260,0.300
4731,0.295,0.240
4732,0.310,0.190
4733,0.290,0.150
4734,0.295,0.150
4735,0.310,0.160
4736,0.330,0.170
4737,0.335,0.160
4738,0.310,0.125
4739,0.260,0.135
4740,0.220,0.135
4741,0.165,0.080
4742,0.120,0.060
4743,0.085,0.040
4744,0.030,0.025
4745,-0.020,0.015
4746,-0.065,-0.005
4747,-0.110,-0.060
4748,-0.155,-0.075
4749,-0.165,-0.050
4750,-0.170,-0.045
4751,-0.205,-0.065
4752,-0.235,-0.055
4753,-0.230,-0.055
4754,-0.245,-0.125
4755,-0.245,-0.145
4756,-0.230,-0.090
4757,-0.245,-0.070
4758,-0.255,-0.070
4759,-0.250,-0.090
4760,-0.230,-0.110
4761,-0.255,-0.105
4762,-0.280,-0.100
4763,-0.290,-0.090
4764,-0.265,-0.070
4765,-0.245,-0.060
4766,-0.240,-0.075
4767,-0.270,-0.100
4768,-0.280,-0.080
4769,-0.265,-0.085
4770,-0.255,-0.095
4771,-0.270,-0.085
4772,-0.255,-0.075
4773,-0.230,-0.065
4774,-0.230,-0.055
4775,-0.240,-0.050
4776,-0.230,-0.065
4777,-0.220,-0.075
4778,-0.190,-0.070
4779,-0.145,-0.075
4780,-0.125,-0.070
4781,-0.205,-0.050
4782,-0.240,-0.025
4783,-0.215,-0.025
4784,-0.205,-0.040
4785,-0.185,-0.030
4786,-0.185,-0.030
4787,-0.200,-0.045
4788,-0.190,-0.060
4789,-0.185,-0.075
4790,-0.205,-0.060
4791,-0.215,-0.065
4792,-0.195,-0.075
4793,-0.195,-0.070
4794,-0.220,-0.045
4795,-0.225,-0.045
4796,-0.210,-0.060
4797,-0.210,-0.040
4798,-0.210,-0.055
4799,-0.230,-0.110
4800,-0.240,-0.125
4801,-0.200,-0.075
4802,-0.130,-0.050
4803,-0.125,-0.035
4804,-0.145,-0.010
4805,-0.090,0.005
4806,0.010,0.040
4807,0.030,0.065
4808,-0.020,0.050
4809,-0.065,0.060
4810,-0.070,0.110
4811,-0.065,0.095
4812,-0.080,0.010
4813,-0.080,-0.055
4814,-0.070,-0.045
4815,-0.070,-0.015
4816,-0.080,-0.020
4817,-0.070,-0.030
4818,-0.045,-0.005
4819,-0.040,0.005
4820,-0.110,-0.035
4821,-0.190,-0.115
4822,-0.255,-0.145
4823,-0.270,-0.115
4824,-0.270,-0.140
4825,-0.280,-0.155
4826,-0.300,-0.160
4827,-0.285,-0.140
4828,-0.280,-0.150
4829,-0.290,-0.155
4830,-0.280,-0.150
4831,-0.300,-0.155
4832,-0.305,-0.140
4833,-0.310,-0.140
4834,-0.305,-0.150
4835,-0.320,-0.080
4836,-0.350,-0.010
4837,-0.365,0.010
4838,-0.350,0.035
4839,-0.260,0.125
4840,0.000,0.115
4841,0.355,-0.090
4842,0.845,-0.580
4843,1.475,-1.050
4844,2.135,-1.165
4845,2.360,-1.145
4846,1.620,-1.225
4847,0.130,-1.330
4848,-1.020,-1.205
4849,-1.100,-0.890
4850,-1.015,-0.795
4851,-0.615,-0.410
4852,-0.475,-0.245
4853,-0.375,-0.140
4854,-0.330,-0.095
4855,-0.285,-0.100
4856,-0.250,-0.075
4857,-0.240,-0.005
4858,-0.250,-0.005
4859,-0.250,-0.025
4860,-0.250,-0.045
4861,-0.225,-0.040
4862,-0.220,-0.025
4863,-0.260,-0.035
4864,-0.245,0.000
4865,-0.205,0.000
4866,-0.210,0.000
4867,-0.215,0.000
4868,-0.210,-0.005
4869,-0.200,0.000
4870,-0.190,0.005
4871,-0.180,0.000
4872,-0.200,0.005
4873,-0.195,0.020
4874,-0.180,0.030
4875,-0.170,0.025
4876,-0.140,0.030
4877,-0.140,0.035
4878,-0.150,0.050
4879,-0.135,0.055
4880,-0.120,0.040
4881,-0.110,0.065
4882,-0.095,0.100
4883,-0.105,0.105
4884,-0.110,0.100
4885,-0.045,0.115
4886,0.005,0.165
4887,0.025,0.180
4888,0.030,0.165
4889,0.050,0.180
4890,0.090,0.215
4891,0.090,0.215
4892,0.135,0.230
4893,0.220,0.250
4894,0.240,0.260
4895,0.255,0.285
4896,0.290,0.285
4897,0.300,0.290
4898,0.325,0.305
4899,0.360,0.305
4900,0.370,0.300
4901,0.370,0.270
4902,0.350,0.265
4903,0.360,0.250
4904,0.340,0.210
4905,0.320,0.190
4906,0.300,0.160
4907,0.215,0.115
4908,0.100,0.065
4909,0.055,0.035
4910,0.045,0.020
4911,0.000,0.005
4912,-0.085,-0.025
4913,-0.125,-0.065
4914,-0.115,-0.080
4915,-0.100,-0.065
4916,-0.110,-0.055
4917,-0.145,-0.075
4918,-0.170,-0.080
4919,-0.165,-0.065
4920,-0.160,-0.065
4921,-0.205,-0.105
4922,-0.250,-0.125
4923,-0.240,-0.095
4924,-0.215,-0.080
4925,-0.215,-0.085
4926,-0.230,-0.095
4927,-0.180,-0.090
4928,-0.195,-0.105
4929,-0.255,-0.125
4930,-0.225,-0.120
4931,-0.180,-0.085
4932,-0.210,-0.065
4933,-0.215,-0.085
4934,-0.210,-0.110
4935,-0.210,-0.105
4936,-0.210,-0.095
4937,-0.215,-0.090
4938,-0.190,-0.075
4939,-0.145,-0.060
4940,-0.180,-0.070
4941,-0.220,-0.070
4942,-0.175,-0.065
4943,-0.160,-0.080
4944,-0.175,-0.075
4945,-0.180,-0.060
4946,-0.170,-0.070
4947,-0.150,-0.080
4948,-0.115,-0.050
4949,-0.125,-0.050
4950,-0.145,-0.060
4951,-0.205,-0.100
4952,-0.175,-0.075
4953,-0.165,-0.070
4954,-0.170,-0.075
4955,-0.180,-0.070
4956,-0.175,-0.055
4957,-0.120,-0.015
4958,-0.110,0.000
4959,-0.130,0.000
4960,-0.140,-0.050
4961,-0.160,-0.070
4962,-0.150,-0.095
4963,-0.175,-0.130
4964,-0.220,-0.110
4965,-0.205,-0.060
4966,-0.205,-0.065
4967,-0.185,-0.125
4968,-0.140,-0.115
4969,-0.125,-0.060
4970,-0.120,-0.040
4971,-0.140,-0.035
4972,-0.095,0.010
4973,-0.040,0.030
4974,-0.025,0.040
4975,-0.030,0.045
4976,0.025,0.040
4977,-0.005,0.065
4978,-0.005,0.040
4979,-0.010,-0.020
4980,-0.050,-0.060
4981,-0.040,-0.045
4982,-0.030,-0.045
4983,-0.045,-0.055
4984,-0.020,-0.055
4985,-0.025,-0.030
4986,-0.100,-0.030
4987,-0.145,-0.070
4988,-0.135,-0.120
4989,-0.165,-0.150
4990,-0.200,-0.140
4991,-0.260,-0.150
4992,-0.270,-0.165
4993,-0.270,-0.155
4994,-0.245,-0.135
4995,-0.205,-0.145
4996,-0.260,-0.155
4997,-0.295,-0.160
4998,-0.230,-0.130
4999,-0.200,-0.130
5000,-0.210,-0.140
5001,-0.280,-0.130
5002,-0.300,-0.065
5003,-0.310,-0.005
5004,-0.315,0.015
5005,-0.325,0.065
5006,-0.190,0.115
5007,0.075,0.030
5008,0.485,-0.275
5009,0.985,-0.760
5010,1.705,-1.125
5011,2.390,-1.190
5012,2.385,-1.200
5013,1.505,-1.285
5014,-0.020,-1.315
5015,-1.005,-1.115
5016,-0.970,-0.825
5017,-0.675,-0.585
5018,-0.515,-0.370
5019,-0.340,-0.250
5020,-0.315,-0.190
5021,-0.345,-0.130
5022,-0.245,-0.070
5023,-0.175,-0.065
5024,-0.215,-0.075
5025,-0.235,-0.075
5026,-0.235,-0.050
5027,-0.190,-0.040
5028,-0.190,-0.040
5029,-0.210,-0.045
5030,-0.195,-0.030
5031,-0.180,-0.005
5032,-0.135,0.000
5033,-0.175,-0.025
5034,-0.200,-0.015
5035,-0.155,0.000
5036,-0.160,0.000
5037,-0.145,0.000
5038,-0.130,0.000
5039,-0.115,0.020
5040,-0.085,0.040
5041,-0.115,0.005
5042,-0.125,-0.005
5043,-0.175,0.010
5044,-0.110,0.060
5045,-0.055,0.055
5046,-0.110,0.025
5047,-0.105,0.030
5048,-0.060,0.070
5049,-0.040,0.090
5050,-0.030,0.100
5051,0.010,0.130
5052,0.020,0.165
5053,0.060,0.195
5054,0.075,0.175
5055,0.105,0.165
5056,0.090,0.195
5057,0.090,0.215
5058,0.140,0.220
5059,0.225,0.260
5060,0.280,0.305
5061,0.285,0.320
5062,0.285,0.300
5063,0.340,0.290
5064,0.365,0.300
5065,0.350,0.300
5066,0.400,0.315
5067,0.395,0.315
5068,0.385,0.305
5069,0.440,0.290
5070,0.455,0.270
5071,0.405,0.225
5072,0.325,0.190
5073,0.280,0.175
5074,0.225,0.115
5075,0.195,0.090
5076,0.120,0.060
5077,0.055,0.040
5078,0.010,0.015
5079,0.010,-0.030
5080,-0.030,-0.070
5081,-0.080,-0.060
5082,-0.120,-0.040
5083,-0.110,-0.055
5084,-0.060,-0.070
5085,-0.080,-0.080
5086,-0.160,-0.085
5087,-0.170,-0.110
5088,-0.180,-0.150
5089,-0.170,-0.125
5090,-0.170,-0.090
5091,-0.195,-0.090
5092,-0.195,-0.105
5093,-0.155,-0.115
5094,-0.110,-0.095
5095,-0.170,-0.105
5096,-0.215,-0.135
5097,-0.185,-0.115
5098,-0.185,-0.100
5099,-0.140,-0.095
5100,-0.120,-0.100
5101,-0.130,-0.105
5102,-0.120,-0.085
5103,-0.130,-0.105
5104,-0.175,-0.110
5105,-0.200,-0.095
5106,-0.155,-0.075
5107,-0.105,-0.055
5108,-0.095,-0.030
5109,-0.050,-0.060
5110,0.000,-0.080
5111,-0.030,-0.065
5112,-0.115,-0.070
5113,-0.125,-0.080
5114,-0.075,-0.065
5115,-0.095,-0.045
5116,-0.200,-0.075
5117,-0.260,-0.085
5118,-0.185,-0.070
5119,-0.160,-0.060
5120,-0.205,-0.060
5121,-0.205,-0.075
5122,-0.145,-0.075
5123,-0.140,-0.050
5124,-0.170,-0.075
5125,-0.180,-0.090
5126,-0.185,-0.095
5127,-0.125,-0.060
5128,-0.150,-0.080
5129,-0.190,-0.115
5130,-0.175,-0.120
5131,-0.115,-0.090
5132,-0.080,-0.070
5133,-0.155,-0.095
5134,-0.195,-0.120
5135,-0.170,-0.125
5136,-0.150,-0.115
5137,-0.160,-0.095
5138,-0.080,-0.075
5139,-0.015,0.000
5140,0.005,0.040
5141,0.065,0.010
5142,0.220,0.000
5143,0.215,0.005
5144,0.025,0.015
5145,0.005,0.005
5146,0.165,0.000
5147,0.115,-0.015
5148,-0.135,-0.040
5149,-0.220,-0.045
5150,-0.210,-0.045
5151,-0.130,-0.050
5152,-0.100,-0.065
5153,-0.095,-0.075
5154,-0.105,-0.075
5155,-0.090,-0.095
5156,-0.080,-0.120
5157,-0.150,-0.165
5158,-0.245,-0.215
5159,-0.255,-0.195
5160,-0.200,-0.165
5161,-0.225,-0.165
5162,-0.225,-0.170
5163,-0.210,-0.185
5164,-0.250,-0.195
5165,-0.260,-0.165
5166,-0.260,-0.195
5167,-0.250,-0.205
5168,-0.215,-0.180
5169,-0.210,-0.155
5170,-0.280,-0.105
5171,-0.375,-0.060
5172,-0.395,-0.020
5173,-0.295,0.040
5174,-0.145,0.105
5175,-0.090,0.110
5176,0.475,-0.225
5177,0.980,-0.745
5178,1.610,-1.200
5179,2.300,-1.260
5180,2.510,-1.245
5181,1.740,-1.330
5182,0.335,-1.390
5183,-0.750,-1.225
5184,-0.975,-0.930
5185,-0.725,-0.660
5186,-0.580,-0.425
5187,-0.475,-0.310
5188,-0.380,-0.265
5189,-0.275,-0.160
5190,-0.225,-0.070
5191,-0.185,-0.050
5192,-0.220,-0.080
5193,-0.250,-0.095
5194,-0.190,-0.045
5195,-0.160,-0.030
5196,-0.185,-0.050
5197,-0.200,-0.065
5198,-0.180,-0.030
5199,-0.180,-0.030
5200,-0.185,-0.045
5201,-0.220,-0.005
5202,-0.200,-0.020
5203,-0.080,-0.020
5204,-0.005,-0.020
5205,-0.085,0.000
5206,-0.195,0.000
5207,-0.250,-0.035
5208,-0.250,-0.045
5209,-0.155,-0.015
5210,-0.110,0.000
5211,-0.115,0.005
5212,-0.115,0.015
5213,-0.115,0.005
5214,-0.090,0.000
5215,-0.065,0.040
5216,-0.075,0.075
5217,-0.095,0.070
5218,-0.045,0.095
5219,0.005,0.125
5220,0.020,0.125
5221,0.030,0.125
5222,0.025,0.155
5223,0.010,0.185
5224,0.080,0.240
5225,0.110,0.260
5226,0.210,0.235
5227,0.210,0.245
5228,0.190,0.280
5229,0.260,0.305
5230,0.330,0.305
5231,0.365,0.325
5232,0.345,0.360
5233,0.360,0.380
5234,0.395,0.385
5235,0.425,0.305
5236,0.410,0.235
5237,0.400,0.235
5238,0.410,0.215
5239,0.360,0.185
5240,0.330,0.185
5241,0.365,0.160
5242,0.240,0.070
5243,0.120,0.040
5244,0.105,0.025
5245,0.100,0.005
5246,0.065,-0.020
5247,-0.065,-0.065
5248,-0.110,-0.060
5249,-0.080,-0.065
5250,-0.090,-0.075
5251,-0.115,-0.065
5252,-0.075,-0.040
5253,-0.115,-0.105
5254,-0.165,-0.155
5255,-0.190,-0.150
5256,-0.200,-0.115
5257,-0.195,-0.080
5258,-0.175,-0.090
5259,-0.200,-0.105
5260,-0.220,-0.105
5261,-0.185,-0.125
5262,-0.175,-0.170
5263,-0.205,-0.210
5264,-0.220,-0.190
5265,-0.180,-0.145
5266,-0.155,-0.150
5267,-0.210,-0.175
5268,-0.235,-0.135
5269,-0.155,-0.085
5270,-0.115,-0.075
5271,-0.115,-0.085
5272,-0.145,-0.090
5273,-0.210,-0.105
5274,-0.165,-0.085
5275,-0.145,-0.080
5276,-0.095,-0.130
5277,-0.125,-0.120
5278,-0.165,-0.110
5279,-0.180,-0.100
5280,-0.205,-0.105
5281,-0.145,-0.080
5282,-0.085,-0.070
5283,-0.170,-0.110
5284,-0.185,-0.080
5285,-0.170,0.045
5286,-0.180,0.035
5287,-0.110,-0.055
5288,-0.115,-0.130
5289,-0.230,-0.185
5290,-0.225,-0.115
5291,-0.145,-0.080
5292,-0.160,-0.110
5293,-0.180,-0.125
5294,-0.190,-0.120
5295,-0.180,-0.100
5296,-0.140,-0.115
5297,-0.135,-0.125
5298,-0.135,-0.125
5299,-0.185,-0.135
5300,-0.210,-0.140
5301,-0.180,-0.120
5302,-0.135,-0.120
5303,-0.165,-0.120
5304,-0.225,-0.100
5305,-0.230,-0.090
5306,-0.155,-0.100
5307,-0.120,-0.050
5308,-0.105,-0.010
5309,-0.065,-0.020
5310,-0.035,0.010
5311,-0.005,0.050
5312,0.000,0.045
5313,0.005,0.045
5314,0.020,0.035
5315,0.025,-0.005
5316,0.010,-0.055
5317,0.000,-0.080
5318,0.010,-0.070
5319,-0.010,-0.050
5320,-0.065,-0.045
5321,-0.100,-0.060
5322,-0.070,-0.035
5323,-0.020,-0.010
5324,-0.085,-0.080
5325,-0.130,-0.120
5326,-0.260,-0.180
5327,-0.265,-0.105
5328,-0.255,-0.080
5329,-0.265,-0.115
5330,-0.270,-0.150
5331,-0.210,-0.165
5332,-0.210,-0.160
5333,-0.280,-0.180
5334,-0.305,-0.205
5335,-0.330,-0.220
5336,-0.280,-0.180
5337,-0.210,-0.130
5338,-0.265,-0.115
5339,-0.355,-0.090
5340,-0.415,-0.030
5341,-0.450,0.000
5342,-0.305,0.065
5343,-0.030,0.080
5344,0.275,-0.105
5345,0.695,-0.555
5346,1.345,-1.065
5347,2.120,-1.260
5348,2.565,-1.215
5349,2.015,-1.265
5350,1.710,-1.300
5351,-0.660,-1.280
5352,-1.100,-1.005
5353,-0.840,-0.710
5354,-0.570,-0.475
5355,-0.460,-0.310
5356,-0.395,-0.190
5357,-0.315,-0.130
5358,-0.305,-0.110
5359,-0.275,-0.100
5360,-0.235,-0.045
5361,-0.235,-0.020
5362,-0.185,-0.025
5363,-0.220,-0.045
5364,-0.270,-0.045
5365,-0.235,0.000
5366,-0.230,0.005
5367,-0.215,-0.015
5368,-0.245,-0.005
5369,-0.200,0.010
5370,-0.155,0.005
5371,-0.195,-0.010
5372,-0.210,0.000
5373,-0.220,0.000
5374,-0.215,0.020
5375,-0.205,0.030
5376,-0.155,0.015
5377,-0.195,0.000
5378,-0.190,0.030
5379,-0.145,0.050
5380,-0.070,0.050
5381,-0.095,0.050
5382,-0.165,0.070
5383,-0.145,0.075
5384,-0.045,0.075
5385,-0.075,0.095
5386,-0.120,0.110
5387,-0.075,0.120
5388,-0.015,0.150
5389,0.025,0.160
5390,0.030,0.180
5391,0.015,0.180
5392,0.040,0.210
5393,0.125,0.265
5394,0.160,0.310
5395,0.210,0.310
5396,0.210,0.275
5397,0.265,0.305
5398,0.300,0.340
5399,0.270,0.340
5400,0.260,0.330
5401,0.325,0.310
5402,0.380,0.355
5403,0.405,0.380
5404,0.445,0.340
5405,0.445,0.305
5406,0.405,0.290
5407,0.365,0.290
5408,0.375,0.255
5409,0.345,0.195
5410,0.235,0.175
5411,0.180,0.140
5412,0.110,0.095
5413,0.075,0.065
5414,0.065,0.045
5415,-0.025,0.025
5416,-0.080,0.000
5417,-0.070,-0.025
5418,-0.165,-0.060
5419,-0.195,-0.065
5420,-0.155,-0.060
5421,-0.150,-0.075
5422,-0.130,-0.045
5423,-0.115,-0.035
5424,-0.185,-0.080
5425,-0.210,-0.095
5426,-0.220,-0.105
5427,-0.190,-0.095
5428,-0.205,-0.080
5429,-0.255,-0.080
5430,-0.195,-0.075
5431,-0.175,-0.060
5432,-0.235,-0.050
5433,-0.235,-0.100
5434,-0.240,-0.120
5435,-0.230,-0.095
5436,-0.180,-0.070
5437,-0.220,-0.060
5438,-0.250,-0.040
5439,-0.205,-0.055
5440,-0.160,-0.060
5441,-0.170,-0.045
5442,-0.155,-0.055
5443,-0.155,-0.070
5444,-0.190,-0.065
5445,-0.180,-0.050
5446,-0.190,-0.055
5447,-0.230,-0.070
5448,-0.215,-0.040
5449,-0.190,-0.035
5450,-0.185,-0.045
5451,-0.150,-0.050
5452,-0.165,-0.035
5453,-0.165,-0.035
5454,-0.205,-0.070
5455,-0.215,-0.075
5456,-0.175,-0.060
5457,-0.145,-0.035
5458,-0.160,-0.035
5459,-0.170,-0.040
5460,-0.175,-0.050
5461,-0.195,-0.045
5462,-0.230,-0.075
5463,-0.240,-0.100
5464,-0.245,-0.100
5465,-0.205,-0.060
5466,-0.165,-0.025
5467,-0.185,-0.015
5468,-0.190,-0.060
5469,-0.145,-0.085
5470,-0.135,-0.075
5471,-0.150,-0.110
5472,-0.200,-0.125
5473,-0.210,-0.085
5474,-0.190,-0.040
5475,-0.175,-0.025
5476,-0.115,-0.010
5477,-0.085,0.005
5478,-0.055,0.040
5479,-0.025,0.055
5480,-0.015,0.050
5481,-0.005,0.100
5482,0.040,0.130
5483,0.020,0.075
5484,-0.015,0.010
5485,-0.015,-0.010
5486,-0.025,-0.015
5487,-0.045,-0.050
5488,-0.055,-0.075
5489,-0.080,-0.065
5490,-0.070,-0.035
5491,-0.060,-0.020
5492,-0.095,-0.070
5493,-0.140,-0.135
5494,-0.215,-0.160
5495,-0.280,-0.155
5496,-0.275,-0.150
5497,-0.245,-0.155
5498,-0.230,-0.130
5499,-0.275,-0.140
5500,-0.295,-0.150
5501,-0.305,-0.165
5502,-0.285,-0.145
5503,-0.275,-0.135
5504,-0.250,-0.140
5505,-0.265,-0.150
5506,-0.310,-0.110
5507,-0.345,-0.040
5508,-0.365,-0.005
5509,-0.370,0.005
5510,-0.345,0.095
5511,-0.145,0.135
5512,0.225,-0.020
5513,0.690,-0.440
5514,1.280,-0.995
5515,2.035,-1.265
5516,2.630,-1.235
5517,2.295,-1.265
5518,1.130,-1.345
5519,-0.380,-1.315
5520,-1.115,-1.075
5521,-0.905,-0.785
5522,-0.630,-0.525
5523,-0.510,-0.320
5524,-0.415,-0.215
5525,-0.390,-0.190
5526,-0.330,-0.115
5527,-0.250,-0.060
5528,-0.240,-0.040
5529,-0.220,-0.040
5530,-0.225,-0.055
5531,-0.240,-0.035
5532,-0.245,-0.010
5533,-0.230,-0.030
5534,-0.220,-0.040
5535,-0.225,-0.010
5536,-0.200,0.005
5537,-0.190,0.000
5538,-0.215,-0.005
5539,-0.210,0.000
5540,-0.170,0.005
5541,-0.150,0.020
5542,-0.160,0.010
5543,-0.175,0.015
5544,-0.165,0.025
5545,-0.155,0.040
5546,-0.140,0.040
5547,-0.125,0.040
5548,-0.120,0.055
5549,-0.120,0.055
5550,-0.125,0.055
5551,-0.065,0.060
5552,-0.005,0.100
5553,-0.005,0.125
5554,-0.055,0.115
5555,-0.065,0.120
5556,-0.025,0.165
5557,0.000,0.190
5558,-0.015,0.185
5559,-0.005,0.195
5560,0.045,0.230
5561,0.100,0.270
5562,0.135,0.300
5563,0.155,0.295
5564,0.200,0.305
5565,0.215,0.325
5566,0.220,0.305
5567,0.305,0.320
5568,0.370,0.355
5569,0.405,0.385
5570,0.415,0.400
5571,0.385,0.345
5572,0.390,0.320
5573,0.405,0.335
5574,0.385,0.320
5575,0.375,0.305
5576,0.360,0.240
5577,0.365,0.240
5578,0.315,0.200
5579,0.185,0.155
5580,0.105,0.170
5581,0.050,0.125
5582,-0.010,0.010
5583,-0.005,-0.025
5584,-0.015,0.015
5585,-0.075,-0.010
5586,-0.120,-0.085
5587,-0.105,-0.080
5588,-0.130,-0.035
5589,-0.175,0.000
5590,-0.195,-0.045
5591,-0.165,-0.100
5592,-0.145,-0.100
5593,-0.155,-0.130
5594,-0.215,-0.095
5595,-0.245,-0.005
5596,-0.240,-0.015
5597,-0.230,-0.090
5598,-0.200,-0.030
5599,-0.175,0.005
5600,-0.185,-0.015
5601,-0.155,-0.220
5602,-0.125,-0.215
5603,-0.175,-0.170
5604,-0.185,-0.155
5605,-0.145,-0.150
5606,-0.150,-0.135
5607,-0.230,-0.120
5608,-0.270,-0.120
5609,-0.245,-0.125
5610,-0.215,-0.110
5611,-0.185,-0.065
5612,-0.145,-0.050
5613,-0.140,-0.060
5614,-0.135,-0.055
5615,-0.180,-0.045
5616,-0.230,-0.065
5617,-0.215,-0.085
5618,-0.205,-0.090
5619,-0.195,-0.060
5620,-0.180,-0.060
5621,-0.175,-0.070
5622,-0.155,-0.065
5623,-0.135,-0.055
5624,-0.180,-0.060
5625,-0.205,-0.065
5626,-0.200,-0.065
5627,-0.195,-0.075
5628,-0.195,-0.075
5629,-0.170,-0.080
5630,-0.175,-0.085
5631,-0.200,-0.075
5632,-0.220,-0.075
5633,-0.220,-0.095
5634,-0.210,-0.100
5635,-0.195,-0.080
5636,-0.185,-0.075
5637,-0.195,-0.085
5638,-0.205,-0.090
5639,-0.200,-0.080
5640,-0.140,-0.070
5641,-0.110,-0.065
5642,-0.155,-0.050
5643,-0.120,-0.005
5644,-0.060,0.020
5645,-0.075,0.020
5646,-0.075,0.020
5647,-0.040,0.025
5648,-0.010,0.070
5649,0.030,0.085
5650,0.050,0.075
5651,-0.015,-0.020
5652,-0.035,-0.040
5653,-0.025,-0.035
5654,-0.035,-0.035
5655,-0.050,-0.050
5656,-0.085,-0.055
5657,-0.105,-0.050
5658,-0.085,-0.055
5659,-0.115,-0.090
5660,-0.195,-0.150
5661,-0.275,-0.160
5662,-0.310,-0.165
5663,-0.295,-0.190
5664,-0.280,-0.175
5665,-0.280,-0.140
5666,-0.285,-0.140
5667,-0.300,-0.170
5668,-0.285,-0.180
5669,-0.285,-0.150
5670,-0.305,-0.140
5671,-0.325,-0.165
5672,-0.335,-0.150
5673,-0.315,-0.060
5674,-0.335,0.025
5675,-0.350,0.050
5676,-0.420,0.145
5677,-0.355,0.145
5678,-0.085,0.130
5679,0.300,-0.095
5680,0.745,-0.610
5681,1.355,-1.095
5682,2.055,-1.305
5683,2.470,-1.255
5684,2.090,-1.285
5685,0.685,-1.365
5686,-0.720,-1.305
5687,-1.110,-1.035
5688,-0.825,-0.735
5689,-0.615,-0.485
5690,-0.510,-0.290
5691,-0.400,-0.195
5692,-0.350,-0.140
5693,-0.295,-0.080
5694,-0.265,-0.055
5695,-0.285,-0.050
5696,-0.275,-0.045
5697,-0.215,-0.015
5698,-0.195,0.000
5699,-0.240,0.000
5700,-0.250,-0.005
5701,-0.235,0.005
5702,-0.250,0.045
5703,-0.230,0.040
5704,-0.220,-0.010
5705,-0.220,-0.055
5706,-0.210,-0.015
5707,-0.215,0.050
5708,-0.225,0.050
5709,-0.230,0.005
5710,-0.170,0.020
5711,-0.175,0.025
5712,-0.220,-0.010
5713,-0.185,-0.010
5714,-0.155,0.020
5715,-0.135,0.050
5716,-0.115,0.045
5717,-0.130,0.040
5718,-0.140,0.075
5719,-0.115,0.100
5720,-0.100,0.110
5721,-0.090,0.105
5722,-0.060,0.125
5723,-0.025,0.145
5724,-0.015,0.185
5725,-0.010,0.205
5726,0.025,0.205
5727,0.050,0.220
5728,0.095,0.255
5729,0.160,0.295
5730,0.185,0.315
5731,0.175,0.325
5732,0.210,0.325
5733,0.250,0.330
5734,0.270,0.325
5735,0.315,0.365
5736,0.365,0.405
5737,0.375,0.420
5738,0.380,0.385
5739,0.410,0.355
5740,0.450,0.395
5741,0.455,0.370
5742,0.430,0.305
5743,0.430,0.310
5744,0.360,0.290
5745,0.250,0.260
5746,0.155,0.245
5747,0.110,0.170
5748,0.080,0.065
5749,0.035,-0.040
5750,0.010,-0.075
5751,-0.065,-0.060
5752,-0.125,-0.010
5753,-0.160,0.000
5754,-0.165,-0.030
5755,-0.170,-0.080
5756,-0.180,-0.080
5757,-0.210,-0.075
5758,-0.230,-0.105
5759,-0.215,-0.110
5760,-0.190,-0.075
5761,-0.210,-0.065
5762,-0.250,-0.080
5763,-0.240,-0.105
5764,-0.230,-0.110
5765,-0.240,-0.090
5766,-0.235,-0.080
5767,-0.240,-0.075
5768,-0.230,-0.070
5769,-0.210,-0.070
5770,-0.210,-0.060
5771,-0.220,-0.065
5772,-0.250,-0.020
5773,-0.240,0.035
5774,-0.190,-0.020
5775,-0.175,-0.045
5776,-0.220,-0.075
5777,-0.210,-0.050
5778,-0.220,-0.050
5779,-0.225,-0.085
5780,-0.210,-0.070
5781,-0.195,-0.015
5782,-0.210,0.005
5783,-0.215,-0.050
5784,-0.220,-0.075
5785,-0.215,-0.050
5786,-0.205,-0.055
5787,-0.200,-0.075
5788,-0.205,-0.070
5789,-0.195,-0.065
5790,-0.195,-0.060
5791,-0.200,-0.045
5792,-0.205,-0.055
5793,-0.195,-0.060
5794,-0.190,-0.055
5795,-0.200,-0.040
5796,-0.210,-0.035
5797,-0.220,-0.050
5798,-0.240,-0.020
5799,-0.225,-0.050
5800,-0.215,-0.070
5801,-0.230,-0.100
5802,-0.195,-0.085
5803,-0.205,-0.080
5804,-0.215,-0.060
5805,-0.235,-0.060
5806,-0.245,-0.065
5807,-0.225,-0.060
5808,-0.215,-0.065
5809,-0.200,-0.055
5810,-0.155,-0.015
5811,-0.120,0.010
5812,-0.105,0.025
5813,-0.095,0.030
5814,-0.075,0.060
5815,-0.060,0.080
5816,-0.055,0.105
5817,-0.035,0.095
5818,-0.015,0.045
5819,-0.025,-0.005
5820,-0.040,-0.025
5821,-0.040,-0.025
5822,-0.040,0.010
5823,-0.035,0.015
5824,-0.055,-0.005
5825,-0.065,-0.015
5826,-0.060,-0.015
5827,-0.095,-0.060
5828,-0.190,-0.140
5829,-0.285,-0.170
5830,-0.295,-0.135
5831,-0.280,-0.120
5832,-0.295,-0.135
5833,-0.295,-0.150
5834,-0.315,-0.160
5835,-0.305,-0.140
5836,-0.275,-0.120
5837,-0.290,-0.120
5838,-0.310,-0.145
5839,-0.300,-0.150
5840,-0.260,-0.100
5841,-0.260,-0.050
5842,-0.280,-0.015
5843,-0.275,0.030
5844,-0.290,0.085
5845,-0.305,0.135
5846,-0.055,0.100
5847,0.375,-0.095
5848,0.905,-0.560
5849,1.650,-1.095
5850,1.900,-1.240
5851,2.485,-1.300
5852,1.615,-1.365
5853,0.155,-1.420
5854,-0.940,-1.280
5855,-1.110,-0.970
5856,-0.785,-0.660
5857,-0.615,-0.430
5858,-0.515,-0.310
5859,-0.430,-0.235
5860,-0.365,-0.125
5861,-0.315,-0.055
5862,-0.290,-0.040
5863,-0.300,-0.040
5864,-0.260,-0.035
5865,-0.245,-0.015
5866,-0.250,-0.020
5867,-0.260,-0.015
5868,-0.245,0.000
5869,-0.235,0.000
5870,-0.235,0.000
5871,-0.245,0.000
5872,-0.235,0.000
5873,-0.240,0.015
5874,-0.220,0.050
5875,-0.215,0.040
5876,-0.230,0.015
5877,-0.210,0.070
5878,-0.200,0.065
5879,-0.205,0.035
5880,-0.160,0.050
5881,-0.140,0.050
5882,-0.150,0.055
5883,-0.190,0.030
5884,-0.180,0.005
5885,-0.140,0.020
5886,-0.130,0.060
5887,-0.150,0.050
5888,-0.130,0.055
5889,-0.080,0.085
5890,-0.055,0.115
5891,-0.070,0.125
5892,-0.035,0.130
5893,-0.005,0.155
5894,-0.010,0.175
5895,0.040,0.210
5896,0.115,0.225
5897,0.160,0.240
5898,0.165,0.285
5899,0.185,0.295
5900,0.200,0.290
5901,0.250,0.285
5902,0.295,0.295
5903,0.350,0.305
5904,0.350,0.295
5905,0.335,0.280
5906,0.375,0.300
5907,0.420,0.300
5908,0.420,0.250
5909,0.415,0.230
5910,0.370,0.230
5911,0.325,0.215
5912,0.270,0.175
5913,0.190,0.105
5914,0.100,0.075
5915,0.055,0.065
5916,0.010,0.035
5917,-0.050,-0.005
5918,-0.085,-0.015
5919,-0.115,-0.010
5920,-0.145,-0.040
5921,-0.195,-0.070
5922,-0.205,-0.080
5923,-0.200,-0.065
5924,-0.220,-0.065
5925,-0.240,-0.070
5926,-0.240,-0.085
5927,-0.225,-0.080
5928,-0.265,-0.085
5929,-0.265,-0.095
5930,-0.255,-0.120
5931,-0.270,-0.105
5932,-0.260,-0.095
5933,-0.265,-0.105
5934,-0.250,-0.110
5935,-0.260,-0.105
5936,-0.280,-0.090
5937,-0.285,-0.110
5938,-0.290,-0.120
5939,-0.240,-0.085
5940,-0.230,-0.075
5941,-0.230,-0.075
5942,-0.235,-0.085
5943,-0.255,-0.100
5944,-0.270,-0.100
5945,-0.300,-0.110
5946,-0.300,-0.120
5947,-0.270,-0.085
5948,-0.260,-0.070
5949,-0.260,-0.090
5950,-0.255,-0.105
5951,-0.195,-0.095
5952,-0.225,-0.085
5953,-0.255,-0.085
5954,-0.245,-0.090
5955,-0.280,-0.080
5956,-0.270,-0.075
5957,-0.205,-0.085
5958,-0.250,-0.095
5959,-0.270,-0.100
5960,-0.245,-0.095
5961,-0.220,-0.090
5962,-0.230,-0.100
5963,-0.240,-0.100
5964,-0.235,-0.100
5965,-0.230,-0.095
5966,-0.230,-0.115
5967,-0.245,-0.120
5968,-0.255,-0.080
5969,-0.225,-0.055
5970,-0.195,-0.060
5971,-0.175,-0.090
5972,-0.155,-0.055
5973,-0.120,-0.010
5974,-0.115,0.000
5975,-0.115,0.000
5976,-0.075,0.005
5977,-0.010,0.015
5978,0.000,-0.005
5979,-0.100,-0.060
5980,-0.150,-0.100
5981,-0.105,-0.060
5982,-0.080,0.000
5983,-0.105,-0.050
5984,-0.110,-0.090
5985,-0.090,-0.090
5986,-0.090,-0.080
5987,-0.065,-0.090
5988,-0.100,-0.155
5989,-0.190,-0.215
5990,-0.290,-0.220
5991,-0.345,-0.200
5992,-0.310,-0.215
5993,-0.255,-0.185
5994,-0.275,-0.185
5995,-0.310,-0.200
5996,-0.285,-0.195
5997,-0.335,-0.190
5998,-0.355,-0.205
5999,-0.290,-0.200
6000,-0.270,-0.195
6001,-0.320,-0.180
6002,-0.360,-0.135
6003,-0.365,-0.070
6004,-0.390,-0.045
6005,-0.430,-0.035
6006,-0.395,0.060
6007,-0.215,0.150
6008,0.130,0.035
6009,0.590,-0.265
6010,1.240,-0.695
6011,1.880,-1.000
6012,2.280,-1.075
6013,1.890,-1.140
6014,0.535,-1.270
6015,-0.850,-1.280
6016,-1.255,-1.040
6017,-0.945,-0.750
6018,-0.705,-0.555
6019,-0.560,-0.375
6020,-0.445,-0.255
6021,-0.405,-0.215
6022,-0.340,-0.130
6023,-0.285,-0.035
6024,-0.280,-0.085
6025,-0.280,-0.120
6026,-0.270,-0.130
6027,-0.255,-0.070
6028,-0.230,-0.055
6029,-0.195,-0.065
6030,-0.225,-0.080
6031,-0.255,-0.060
6032,-0.210,0.000
6033,-0.185,0.010
6034,-0.225,-0.065
6035,-0.235,-0.105
6036,-0.225,-0.080
6037,-0.235,-0.065
6038,-0.215,-0.065
6039,-0.205,-0.045
6040,-0.175,-0.020
6041,-0.160,-0.010
6042,-0.185,-0.030
6043,-0.200,-0.035
6044,-0.140,0.005
6045,-0.125,0.005
6046,-0.165,-0.010
6047,-0.155,-0.010
6048,-0.130,0.000
6049,-0.090,0.055
6050,-0.080,0.075
6051,-0.035,0.075
6052,-0.015,0.050
6053,-0.020,0.055
6054,-0.010,0.065
6055,0.030,0.055
6056,0.060,0.130
6057,0.090,0.155
6058,0.090,0.140
6059,0.120,0.170
6060,0.185,0.175
6061,0.225,0.140
6062,0.230,0.180
6063,0.275,0.185
6064,0.330,0.130
6065,0.350,0.140
6066,0.340,0.165
6067,0.350,0.215
6068,0.400,0.235
6069,0.405,0.190
6070,0.335,0.155
6071,0.335,0.080
6072,0.335,0.055
6073,0.275,0.080
6074,0.220,0.075
6075,0.200,0.070
6076,0.105,-0.030
6077,0.095,-0.035
6078,0.020,-0.015
6079,-0.055,-0.040
6080,-0.090,-0.055
6081,-0.100,-0.005
6082,-0.135,0.090
6083,-0.155,-0.055
6084,-0.150,-0.200
6085,-0.175,-0.190
6086,-0.175,-0.155
6087,-0.185,-0.145
6088,-0.225,-0.155
6089,-0.200,-0.135
6090,-0.175,-0.105
6091,-0.235,-0.110
6092,-0.235,-0.110
6093,-0.190,-0.115
6094,-0.225,-0.105
6095,-0.270,-0.130
6096,-0.235,-0.135
6097,-0.230,-0.035
6098,-0.225,0.035
6099,-0.225,-0.045
6100,-0.235,-0.080
6101,-0.230,-0.160
6102,-0.190,-0.175
6103,-0.210,-0.160
6104,-0.230,-0.145
6105,-0.240,-0.145
6106,-0.225,-0.110
6107,-0.215,-0.075
6108,-0.215,-0.095
6109,-0.220,-0.105
6110,-0.195,-0.085
6111,-0.165,-0.060
6112,-0.150,-0.050
6113,-0.190,-0.070
6114,-0.210,-0.075
6115,-0.210,-0.080
6116,-0.205,-0.090
6117,-0.175,-0.075
6118,-0.175,-0.080
6119,-0.180,-0.075
6120,-0.140,-0.055
6121,-0.150,-0.070
6122,-0.190,-0.075
6123,-0.195,-0.055
6124,-0.170,-0.040
6125,-0.165,-0.040
6126,-0.190,-0.110
6127,-0.170,-0.080
6128,-0.155,-0.050
6129,-0.175,-0.015
6130,-0.220,-0.020
6131,-0.225,-0.030
6132,-0.215,-0.065
6133,-0.220,-0.080
6134,-0.205,-0.055
6135,-0.160,-0.070
6136,-0.130,-0.090
6137,-0.070,-0.035
6138,-0.045,0.020
6139,-0.115,0.000
6140,-0.105,0.000
6141,-0.040,0.020
6142,-0.025,0.020
6143,-0.025,0.040
6144,-0.010,0.065
6145,-0.015,0.020
6146,-0.050,-0.040
6147,-0.060,-0.040
6148,-0.020,0.000
6149,-0.045,-0.020
6150,-0.060,-0.040
6151,-0.075,-0.020
6152,-0.070,0.020
6153,-0.080,0.005
6154,-0.150,-0.110
6155,-0.250,-0.230
6156,-0.290,-0.190
6157,-0.270,-0.145
6158,-0.285,-0.145
6159,-0.295,-0.140
6160,-0.290,-0.125
6161,-0.280,-0.115
6162,-0.290,-0.140
6163,-0.280,-0.155
6164,-0.265,-0.155
6165,-0.295,-0.160
6166,-0.340,-0.160
6167,-0.350,-0.135
6168,-0.320,-0.070
6169,-0.330,-0.010
6170,-0.380,0.010
6171,-0.340,0.080
6172,-0.185,0.135
6173,0.150,0.100
6174,0.585,-0.205
6175,0.730,-0.350
6176,1.780,-1.130
6177,2.410,-1.110
6178,2.275,-1.105
6179,1.200,-1.225
6180,-0.250,-1.265
6181,-0.970,-1.045
6182,-0.845,-0.730
6183,-0.650,-0.500
6184,-0.590,-0.320
6185,-0.460,-0.210
6186,-0.365,-0.130
6187,-0.345,-0.085
6188,-0.315,-0.045
6189,-0.260,-0.040
6190,-0.240,-0.055
6191,-0.250,-0.035
6192,-0.245,-0.025
6193,-0.250,-0.020
6194,-0.235,-0.015
6195,-0.230,-0.035
6196,-0.240,-0.035
6197,-0.240,-0.005
6198,-0.230,0.000
6199,-0.225,0.000
6200,-0.225,0.000
6201,-0.240,-0.005
6202,-0.220,-0.015
6203,-0.190,-0.020
6204,-0.190,-0.030
6205,-0.200,-0.015
6206,-0.180,0.005
6207,-0.180,0.020
6208,-0.170,0.040
6209,-0.160,0.045
6210,-0.150,0.045
6211,-0.150,0.025
6212,-0.140,0.015
6213,-0.095,0.040
6214,-0.060,0.075
6215,-0.115,0.085
6216,-0.130,0.085
6217,-0.065,0.130
6218,-0.025,0.165
6219,-0.010,0.150
6220,0.005,0.135
6221,0.035,0.145
6222,0.070,0.190
6223,0.115,0.230
6224,0.130,0.255
6225,0.135,0.260
6226,0.210,0.250
6227,0.230,0.280
6228,0.225,0.285
6229,0.275,0.280
6230,0.350,0.285
6231,0.375,0.290
6232,0.345,0.285
6233,0.365,0.260
6234,0.375,0.245
6235,0.365,0.245
6236,0.340,0.215
6237,0.285,0.185
6238,0.250,0.160
6239,0.215,0.105
6240,0.160,0.060
6241,0.080,0.020
6242,0.050,0.000
6243,0.035,-0.005
6244,-0.045,-0.020
6245,-0.120,-0.030
6246,-0.150,-0.060
6247,-0.180,-0.080
6248,-0.190,-0.080
6249,-0.185,-0.090
6250,-0.185,-0.105
6251,-0.195,-0.120
6252,-0.220,-0.110
6253,-0.250,-0.110
6254,-0.255,-0.115
6255,-0.230,-0.120
6256,-0.250,-0.140
6257,-0.255,-0.120
6258,-0.260,-0.130
6259,-0.270,-0.135
6260,-0.240,-0.120
6261,-0.225,-0.105
6262,-0.250,-0.125
6263,-0.260,-0.140
6264,-0.250,-0.125
6265,-0.240,-0.110
6266,-0.240,-0.135
6267,-0.235,-0.125
6268,-0.225,-0.110
6269,-0.255,-0.100
6270,-0.245,-0.095
6271,-0.225,-0.115
6272,-0.230,-0.110
6273,-0.205,-0.085
6274,-0.200,-0.090
6275,-0.210,-0.095
6276,-0.225,-0.100
6277,-0.220,-0.075
6278,-0.200,-0.050
6279,-0.205,-0.080
6280,-0.220,-0.115
6281,-0.210,-0.105
6282,-0.175,-0.075
6283,-0.185,-0.080
6284,-0.200,-0.090
6285,-0.190,-0.085
6286,-0.190,-0.095
6287,-0.230,-0.105
6288,-0.235,-0.110
6289,-0.220,-0.095
6290,-0.215,-0.080
6291,-0.205,-0.090
6292,-0.200,-0.100
6293,-0.205,-0.105
6294,-0.205,-0.105
6295,-0.220,-0.105
6296,-0.210,-0.110
6297,-0.195,-0.105
6298,-0.230,-0.125
6299,-0.245,-0.125
6300,-0.235,-0.130
6301,-0.160,-0.090
6302,-0.125,-0.055
6303,-0.130,-0.010
6304,-0.135,0.000
6305,-0.105,0.000
6306,-0.045,0.005
6307,0.000,0.030
6308,-0.020,0.035
6309,-0.045,0.045
6310,-0.015,0.025
6311,-0.010,-0.025
6312,-0.065,-0.075
6313,-0.070,-0.085
6314,-0.025,-0.065
6315,-0.015,-0.060
6316,-0.060,-0.075
6317,-0.090,-0.070
6318,-0.065,-0.060
6319,-0.075,-0.085
6320,-0.150,-0.140
6321,-0.240,-0.195
6322,-0.305,-0.195
6323,-0.280,-0.165
6324,-0.235,-0.170
6325,-0.230,-0.175
6326,-0.315,-0.215
6327,-0.295,-0.175
6328,-0.255,-0.150
6329,-0.260,-0.165
6330,-0.295,-0.190
6331,-0.310,-0.170
6332,-0.260,-0.150
6333,-0.285,-0.190
6334,-0.360,-0.160
6335,-0.385,-0.075
6336,-0.350,-0.010
6337,-0.285,0.015
6338,-0.215,0.080
6339,0.020,0.050
6340,0.410,-0.205
6341,0.865,-0.685
6342,1.480,-1.145
6343,2.205,-1.250
6344,2.400,-1.185
6345,1.660,-1.235
6346,0.170,-1.320
6347,-0.940,-1.165
6348,-1.020,-0.875
6349,-0.710,-0.620
6350,-0.635,-0.550
6351,-0.475,-0.295
6352,-0.380,-0.180
6353,-0.320,-0.130
6354,-0.285,-0.120
6355,-0.270,-0.120
6356,-0.270,-0.090
6357,-0.240,-0.050
6358,-0.235,-0.060
6359,-0.240,-0.070
6360,-0.210,-0.065
6361,-0.200,-0.055
6362,-0.235,-0.050
6363,-0.245,-0.055
6364,-0.230,-0.050
6365,-0.225,-0.020
6366,-0.230,-0.035
6367,-0.240,-0.065
6368,-0.220,-0.060
6369,-0.195,-0.030
6370,-0.210,-0.020
6371,-0.190,-0.010
6372,-0.150,0.000
6373,-0.165,0.000
6374,-0.190,0.000
6375,-0.185,0.000
6376,-0.150,0.000
6377,-0.170,0.020
6378,-0.150,0.035
6379,-0.125,0.045
6380,-0.110,0.080
6381,-0.090,0.090
6382,-0.090,0.075
6383,-0.090,0.070
6384,-0.065,0.095
6385,-0.025,0.125
6386,0.020,0.135
6387,0.040,0.140
6388,0.055,0.145
6389,0.080,0.170
6390,0.120,0.215
6391,0.155,0.225
6392,0.185,0.225
6393,0.225,0.250
6394,0.290,0.280
6395,0.315,0.290
6396,0.330,0.275
6397,0.340,0.270
6398,0.365,0.290
6399,0.400,0.280
6400,0.410,0.260
6401,0.355,0.240
6402,0.365,0.225
6403,0.360,0.200
6404,0.325,0.170
6405,0.270,0.140
6406,0.215,0.120
6407,0.155,0.105
6408,0.085,0.045
6409,0.010,0.000
6410,-0.035,-0.025
6411,-0.075,-0.040
6412,-0.120,-0.070
6413,-0.145,-0.075
6414,-0.125,-0.080
6415,-0.145,-0.090
6416,-0.215,-0.085
6417,-0.220,-0.100
6418,-0.210,-0.115
6419,-0.220,-0.095
6420,-0.205,-0.080
6421,-0.185,-0.065
6422,-0.205,-0.035
6423,-0.215,-0.050
6424,-0.200,-0.115
6425,-0.210,-0.135
6426,-0.260,-0.160
6427,-0.265,-0.125
6428,-0.235,-0.105
6429,-0.240,-0.105
6430,-0.255,-0.095
6431,-0.220,-0.075
6432,-0.200,-0.085
6433,-0.225,-0.105
6434,-0.205,-0.095
6435,-0.165,-0.075
6436,-0.210,-0.065
6437,-0.250,-0.085
6438,-0.235,-0.090
6439,-0.240,-0.075
6440,-0.235,-0.065
6441,-0.205,-0.045
6442,-0.200,-0.055
6443,-0.200,-0.095
6444,-0.190,-0.080
6445,-0.180,-0.035
6446,-0.175,-0.035
6447,-0.180,-0.020
6448,-0.215,-0.030
6449,-0.215,-0.050
6450,-0.210,-0.055
6451,-0.220,-0.070
6452,-0.180,-0.065
6453,-0.170,-0.075
6454,-0.205,-0.080
6455,-0.220,-0.075
6456,-0.200,-0.060
6457,-0.210,-0.040
6458,-0.195,-0.060
6459,-0.185,-0.080
6460,-0.175,-0.080
6461,-0.200,-0.085
6462,-0.260,-0.100
6463,-0.260,-0.095
6464,-0.230,-0.070
6465,-0.215,-0.060
6466,-0.205,-0.045
6467,-0.235,-0.045
6468,-0.215,-0.080
6469,-0.210,-0.075
6470,-0.175,-0.010
6471,-0.125,0.000
6472,-0.110,0.030
6473,-0.105,0.065
6474,-0.090,0.045
6475,-0.080,0.030
6476,-0.065,0.030
6477,-0.030,0.060
6478,-0.020,0.050
6479,-0.055,0.010
6480,-0.060,-0.020
6481,-0.055,-0.010
6482,-0.050,0.000
6483,-0.075,-0.025
6484,-0.085,-0.040
6485,-0.085,-0.020
6486,-0.080,-0.025
6487,-0.120,-0.075
6488,-0.180,-0.130
6489,-0.250,-0.145
6490,-0.285,-0.135
6491,-0.280,-0.150
6492,-0.285,-0.135
6493,-0.285,-0.090
6494,-0.290,-0.090
6495,-0.305,-0.140
6496,-0.315,-0.165
6497,-0.315,-0.165
6498,-0.300,-0.135
6499,-0.285,-0.145
6500,-0.290,-0.160
6501,-0.335,-0.065
6502,-0.340,-0.015
6503,-0.375,-0.010
6504,-0.415,-0.020
6505,-0.360,0.045
6506,-0.185,0.130
6507,0.165,0.060
6508,0.615,-0.325
6509,1.180,-0.875
6510,1.920,-1.185
6511,2.505,-1.165
6512,2.310,-1.165
6513,1.225,-1.230
6514,-0.250,-1.235
6515,-1.000,-1.010
6516,-0.880,-0.720
6517,-0.610,-0.475
6518,-0.500,-0.295
6519,-0.415,-0.205
6520,-0.360,-0.125
6521,-0.315,-0.070
6522,-0.270,-0.035
6523,-0.245,-0.010
6524,-0.250,-0.005
6525,-0.260,-0.010
6526,-0.250,-0.005
6527,-0.240,-0.005
6528,-0.230,-0.030
6529,-0.255,-0.025
6530,-0.255,-0.010
6531,-0.235,0.005
6532,-0.210,0.040
6533,-0.220,0.015
6534,-0.235,-0.020
6535,-0.220,0.010
6536,-0.205,0.030
6537,-0.215,0.000
6538,-0.205,0.000
6539,-0.200,0.025
6540,-0.190,0.035
6541,-0.170,0.050
6542,-0.160,0.050
6543,-0.140,0.035
6544,-0.140,0.055
6545,-0.145,0.070
6546,-0.115,0.080
6547,-0.085,0.100
6548,-0.080,0.135
6549,-0.095,0.125
6550,-0.100,0.115
6551,-0.055,0.135
6552,-0.035,0.160
6553,-0.020,0.180
