'sample interval','ECG1','ECG2'
'0.004 sec','mV','mV'
0,-0.220,-0.120
1,-0.190,-0.105
2,-0.210,-0.100
3,-0.220,-0.115
4,-0.210,-0.120
5,-0.215,-0.120
6,-0.210,-0.115
7,-0.210,-0.120
8,-0.210,-0.125
9,-0.210,-0.120
10,-0.215,-0.115
11,-0.225,-0.120
12,-0.220,-0.120
13,-0.215,-0.125
14,-0.210,-0.125
15,-0.215,-0.125
16,-0.220,-0.115
17,-0.215,-0.100
18,-0.215,-0.110
19,-0.230,-0.130
20,-0.220,-0.130
21,-0.210,-0.125
22,-0.220,-0.130
23,-0.225,-0.135
24,-0.215,-0.130
25,-0.210,-0.125
26,-0.220,-0.100
27,-0.215,-0.120
28,-0.225,-0.135
29,-0.215,-0.130
30,-0.200,-0.125
31,-0.220,-0.125
32,-0.235,-0.130
33,-0.230,-0.130
34,-0.230,-0.125
35,-0.215,-0.115
36,-0.220,-0.115
37,-0.225,-0.120
38,-0.210,-0.120
39,-0.200,-0.120
40,-0.220,-0.120
41,-0.225,-0.125
42,-0.225,-0.135
43,-0.225,-0.125
44,-0.215,-0.115
45,-0.230,-0.120
46,-0.220,-0.120
47,-0.210,-0.130
48,-0.225,-0.130
49,-0.230,-0.120
50,-0.220,-0.120
51,-0.205,-0.130
52,-0.220,-0.130
53,-0.220,-0.125
54,-0.215,-0.125
55,-0.210,-0.120
56,-0.215,-0.125
57,-0.235,-0.140
58,-0.210,-0.125
59,-0.195,-0.110
60,-0.205,-0.110
61,-0.215,-0.120
62,-0.215,-0.120
63,-0.210,-0.125
64,-0.210,-0.115
65,-0.225,-0.130
66,-0.235,-0.140
67,-0.210,-0.130
68,-0.195,-0.120
69,-0.210,-0.120
70,-0.205,-0.120
71,-0.170,-0.115
72,-0.150,-0.090
73,-0.145,-0.065
74,-0.120,-0.030
75,-0.105,-0.025
76,-0.090,-0.025
77,-0.070,-0.020
78,-0.060,-0.020
79,-0.060,-0.035
80,-0.045,-0.050
81,-0.035,-0.055
82,-0.055,-0.080
83,-0.080,-0.090
84,-0.090,-0.095
85,-0.100,-0.105
86,-0.130,-0.125
87,-0.150,-0.135
88,-0.170,-0.115
89,-0.180,-0.095
90,-0.200,-0.105
91,-0.225,-0.115
92,-0.230,-0.115
93,-0.245,-0.130
94,-0.265,-0.150
95,-0.275,-0.150
96,-0.260,-0.155
97,-0.265,-0.150
98,-0.280,-0.145
99,-0.275,-0.145
100,-0.270,-0.150
101,-0.270,-0.165
102,-0.260,-0.150
103,-0.265,-0.135
104,-0.265,-0.130
105,-0.260,-0.140
106,-0.265,-0.140
107,-0.270,-0.150
108,-0.315,-0.145
109,-0.400,-0.145
110,-0.505,-0.145
111,-0.545,-0.055
112,-0.475,0.100
113,-0.215,0.215
114,0.210,0.295
115,0.785,0.295
116,1.405,0.305
117,1.825,0.475
118,1.765,0.395
119,1.115,-0.315
120,0.410,-0.805
121,0.015,-0.780
122,-0.190,-0.665
123,-0.310,-0.560
124,-0.290,-0.400
125,-0.275,-0.345
126,-0.195,-0.155
127,-0.180,-0.120
128,-0.210,-0.105
129,-0.215,-0.100
130,-0.210,-0.085
131,-0.220,-0.080
132,-0.225,-0.075
133,-0.225,-0.075
134,-0.220,-0.065
135,-0.210,-0.065
136,-0.230,-0.080
137,-0.230,-0.075
138,-0.205,-0.065
139,-0.200,-0.050
140,-0.220,-0.050
141,-0.225,-0.065
142,-0.220,-0.060
143,-0.210,-0.045
144,-0.215,-0.050
145,-0.220,-0.060
146,-0.210,-0.050
147,-0.185,-0.035
148,-0.200,-0.040
149,-0.230,-0.035
150,-0.225,-0.030
151,-0.180,-0.020
152,-0.205,-0.015
153,-0.210,-0.020
154,-0.195,-0.025
155,-0.190,-0.010
156,-0.190,-0.005
157,-0.195,-0.015
158,-0.190,-0.020
159,-0.180,-0.010
160,-0.170,0.000
161,-0.180,-0.010
162,-0.180,-0.005
163,-0.150,0.005
164,-0.145,0.010
165,-0.165,0.000
166,-0.150,0.010
167,-0.130,0.025
168,-0.115,0.035
169,-0.125,0.030
170,-0.110,0.030
171,-0.090,0.045
172,-0.075,0.065
173,-0.070,0.070
174,-0.055,0.080
175,-0.045,0.085
176,-0.005,0.090
177,0.000,0.095
178,0.010,0.125
179,0.040,0.140
180,0.065,0.150
181,0.070,0.155
182,0.085,0.160
183,0.120,0.180
184,0.150,0.195
185,0.175,0.200
186,0.180,0.200
187,0.215,0.215
188,0.250,0.225
189,0.265,0.235
190,0.290,0.245
191,0.320,0.245
192,0.345,0.250
193,0.370,0.260
194,0.360,0.250
195,0.375,0.260
196,0.405,0.255
197,0.410,0.245
198,0.400,0.235
199,0.395,0.220
200,0.395,0.210
201,0.390,0.195
202,0.350,0.175
203,0.310,0.150
204,0.285,0.145
205,0.255,0.135
206,0.205,0.105
207,0.160,0.085
208,0.125,0.070
209,0.095,0.055
210,0.040,0.035
211,0.000,0.025
212,-0.020,0.015
213,-0.025,0.010
214,-0.055,0.000
215,-0.090,-0.005
216,-0.110,-0.020
217,-0.110,-0.020
218,-0.120,-0.025
219,-0.155,-0.040
220,-0.165,-0.050
221,-0.150,-0.040
222,-0.145,-0.035
223,-0.175,-0.045
224,-0.180,-0.040
225,-0.175,-0.035
226,-0.150,-0.040
227,-0.165,-0.040
228,-0.175,-0.025
229,-0.160,-0.025
230,-0.155,-0.040
231,-0.175,-0.045
232,-0.185,-0.040
233,-0.165,-0.040
234,-0.155,-0.035
235,-0.170,-0.035
236,-0.175,-0.030
237,-0.150,-0.030
238,-0.140,-0.030
239,-0.150,-0.025
240,-0.160,-0.025
241,-0.150,-0.030
242,-0.145,-0.035
243,-0.145,-0.040
244,-0.160,-0.040
245,-0.160,-0.040
246,-0.150,-0.050
247,-0.155,-0.055
248,-0.170,-0.060
249,-0.165,-0.060
250,-0.155,-0.065
251,-0.150,-0.065
252,-0.170,-0.065
253,-0.175,-0.080
254,-0.175,-0.090
255,-0.175,-0.095
256,-0.180,-0.090
257,-0.170,-0.085
258,-0.160,-0.090
259,-0.170,-0.095
260,-0.180,-0.100
261,-0.185,-0.110
262,-0.200,-0.105
263,-0.180,-0.095
264,-0.175,-0.100
265,-0.205,-0.130
266,-0.200,-0.130
267,-0.180,-0.115
268,-0.175,-0.105
269,-0.210,-0.120
270,-0.205,-0.125
271,-0.190,-0.125
272,-0.190,-0.120
273,-0.210,-0.115
274,-0.220,-0.130
275,-0.215,-0.140
276,-0.195,-0.130
277,-0.190,-0.120
278,-0.210,-0.125
279,-0.205,-0.125
280,-0.200,-0.130
281,-0.220,-0.135
282,-0.215,-0.125
283,-0.210,-0.135
284,-0.215,-0.140
285,-0.210,-0.130
286,-0.200,-0.130
287,-0.200,-0.135
288,-0.200,-0.135
289,-0.200,-0.130
290,-0.215,-0.140
291,-0.225,-0.130
292,-0.210,-0.135
293,-0.200,-0.145
294,-0.220,-0.135
295,-0.215,-0.130
296,-0.210,-0.145
297,-0.230,-0.145
298,-0.230,-0.135
299,-0.225,-0.135
300,-0.225,-0.135
301,-0.215,-0.130
302,-0.230,-0.140
303,-0.230,-0.135
304,-0.220,-0.135
305,-0.215,-0.140
306,-0.220,-0.135
307,-0.215,-0.140
308,-0.220,-0.135
309,-0.215,-0.130
310,-0.220,-0.145
311,-0.235,-0.145
312,-0.220,-0.135
313,-0.210,-0.145
314,-0.220,-0.145
315,-0.225,-0.145
316,-0.215,-0.130
317,-0.220,-0.120
318,-0.220,-0.140
319,-0.230,-0.155
320,-0.230,-0.140
321,-0.200,-0.140
322,-0.215,-0.150
323,-0.235,-0.140
324,-0.220,-0.140
325,-0.210,-0.145
326,-0.200,-0.130
327,-0.215,-0.140
328,-0.230,-0.140
329,-0.215,-0.135
330,-0.215,-0.140
331,-0.245,-0.150
332,-0.240,-0.145
333,-0.220,-0.140
334,-0.220,-0.140
335,-0.215,-0.135
336,-0.220,-0.145
337,-0.225,-0.140
338,-0.215,-0.135
339,-0.225,-0.150
340,-0.235,-0.155
341,-0.210,-0.145
342,-0.180,-0.135
343,-0.160,-0.110
344,-0.145,-0.080
345,-0.110,-0.045
346,-0.090,-0.030
347,-0.070,-0.025
348,-0.065,-0.025
349,-0.070,-0.030
350,-0.070,-0.030
351,-0.055,-0.045
352,-0.055,-0.070
353,-0.075,-0.095
354,-0.090,-0.105
355,-0.090,-0.115
356,-0.115,-0.125
357,-0.145,-0.130
358,-0.160,-0.130
359,-0.180,-0.125
360,-0.210,-0.120
361,-0.225,-0.125
362,-0.225,-0.150
363,-0.230,-0.160
364,-0.240,-0.170
365,-0.270,-0.185
366,-0.295,-0.190
367,-0.275,-0.170
368,-0.270,-0.160
369,-0.295,-0.185
370,-0.290,-0.190
371,-0.285,-0.175
372,-0.275,-0.175
373,-0.285,-0.175
374,-0.290,-0.165
375,-0.280,-0.160
376,-0.265,-0.165
377,-0.275,-0.175
378,-0.285,-0.170
379,-0.345,-0.155
380,-0.455,-0.160
381,-0.535,-0.135
382,-0.565,0.010
383,-0.425,0.180
384,-0.115,0.315
385,0.380,0.415
386,0.985,0.415
387,1.645,0.510
388,2.035,0.700
389,1.760,0.295
390,0.955,-0.560
391,0.265,-0.880
392,-0.035,-0.765
393,-0.260,-0.705
394,-0.405,-0.625
395,-0.390,-0.475
396,-0.295,-0.320
397,-0.245,-0.205
398,-0.215,-0.150
399,-0.215,-0.130
400,-0.220,-0.125
401,-0.220,-0.115
402,-0.235,-0.125
403,-0.250,-0.120
404,-0.220,-0.105
405,-0.215,-0.100
406,-0.220,-0.090
407,-0.225,-0.095
408,-0.230,-0.100
409,-0.215,-0.090
410,-0.210,-0.085
411,-0.215,-0.085
412,-0.220,-0.080
413,-0.215,-0.090
414,-0.235,-0.090
415,-0.225,-0.090
416,-0.215,-0.080
417,-0.220,-0.070
418,-0.210,-0.065
419,-0.225,-0.080
420,-0.230,-0.080
421,-0.200,-0.065
422,-0.210,-0.070
423,-0.220,-0.065
424,-0.205,-0.060
425,-0.200,-0.060
426,-0.185,-0.050
427,-0.195,-0.040
428,-0.210,-0.060
429,-0.195,-0.055
430,-0.175,-0.040
431,-0.180,-0.035
432,-0.195,-0.035
433,-0.170,-0.025
434,-0.150,-0.020
435,-0.145,-0.020
436,-0.155,-0.015
437,-0.150,0.000
438,-0.130,0.000
439,-0.125,0.000
440,-0.130,0.000
441,-0.110,0.015
442,-0.095,0.025
443,-0.080,0.030
444,-0.075,0.030
445,-0.055,0.035
446,-0.020,0.050
447,-0.010,0.055
448,-0.015,0.065
449,-0.005,0.070
450,0.000,0.075
451,0.040,0.105
452,0.060,0.125
453,0.090,0.140
454,0.120,0.145
455,0.140,0.150
456,0.165,0.165
457,0.195,0.190
458,0.235,0.195
459,0.270,0.190
460,0.295,0.215
461,0.305,0.225
462,0.325,0.210
463,0.350,0.235
464,0.375,0.240
465,0.385,0.230
466,0.395,0.240
467,0.420,0.240
468,0.430,0.230
469,0.415,0.215
470,0.405,0.205
471,0.420,0.185
472,0.390,0.185
473,0.345,0.170
474,0.315,0.140
475,0.305,0.130
476,0.245,0.125
477,0.190,0.110
478,0.140,0.085
479,0.120,0.070
480,0.085,0.060
481,0.025,0.040
482,-0.015,0.030
483,-0.030,0.015
484,-0.050,0.005
485,-0.090,-0.005
486,-0.135,-0.025
487,-0.150,-0.040
488,-0.150,-0.040
489,-0.150,-0.045
490,-0.180,-0.055
491,-0.185,-0.060
492,-0.185,-0.050
493,-0.195,-0.065
494,-0.210,-0.080
495,-0.200,-0.080
496,-0.185,-0.070
497,-0.190,-0.070
498,-0.195,-0.060
499,-0.190,-0.060
500,-0.190,-0.065
501,-0.185,-0.065
502,-0.190,-0.065
503,-0.215,-0.060
504,-0.195,-0.065
505,-0.175,-0.060
506,-0.170,-0.050
507,-0.185,-0.050
508,-0.180,-0.050
509,-0.160,-0.045
510,-0.175,-0.055
511,-0.185,-0.070
512,-0.170,-0.070
513,-0.150,-0.065
514,-0.160,-0.060
515,-0.175,-0.065
516,-0.170,-0.060
517,-0.160,-0.070
518,-0.170,-0.080
519,-0.185,-0.090
520,-0.180,-0.095
521,-0.160,-0.080
522,-0.170,-0.080
523,-0.200,-0.095
524,-0.205,-0.100
525,-0.200,-0.105
526,-0.190,-0.105
527,-0.185,-0.110
528,-0.190,-0.115
529,-0.200,-0.105
530,-0.195,-0.105
531,-0.205,-0.125
532,-0.220,-0.130
533,-0.205,-0.120
534,-0.190,-0.120
535,-0.215,-0.135
536,-0.225,-0.140
537,-0.215,-0.130
538,-0.210,-0.125
539,-0.215,-0.120
540,-0.220,-0.140
541,-0.240,-0.150
542,-0.225,-0.140
543,-0.210,-0.130
544,-0.230,-0.150
545,-0.230,-0.150
546,-0.210,-0.140
547,-0.220,-0.135
548,-0.235,-0.140
549,-0.240,-0.150
550,-0.235,-0.150
551,-0.215,-0.135
552,-0.225,-0.150
553,-0.240,-0.160
554,-0.225,-0.150
555,-0.215,-0.135
556,-0.225,-0.145
557,-0.240,-0.150
558,-0.235,-0.145
559,-0.225,-0.140
560,-0.230,-0.150
561,-0.240,-0.160
562,-0.225,-0.150
563,-0.215,-0.140
564,-0.225,-0.145
565,-0.235,-0.155
566,-0.240,-0.140
567,-0.230,-0.135
568,-0.225,-0.145
569,-0.235,-0.155
570,-0.225,-0.150
571,-0.215,-0.150
572,-0.225,-0.140
573,-0.235,-0.150
574,-0.230,-0.150
575,-0.230,-0.145
576,-0.225,-0.145
577,-0.235,-0.155
578,-0.230,-0.145
579,-0.215,-0.145
580,-0.215,-0.150
581,-0.225,-0.150
582,-0.220,-0.150
583,-0.215,-0.145
584,-0.215,-0.140
585,-0.235,-0.150
586,-0.240,-0.145
587,-0.220,-0.145
588,-0.215,-0.150
589,-0.230,-0.155
590,-0.230,-0.150
591,-0.225,-0.145
592,-0.215,-0.150
593,-0.215,-0.145
594,-0.235,-0.145
595,-0.230,-0.135
596,-0.220,-0.150
597,-0.225,-0.150
598,-0.225,-0.150
599,-0.225,-0.150
600,-0.225,-0.145
601,-0.210,-0.140
602,-0.220,-0.145
603,-0.240,-0.130
604,-0.230,-0.145
605,-0.225,-0.150
606,-0.225,-0.140
607,-0.210,-0.140
608,-0.215,-0.155
609,-0.215,-0.150
610,-0.210,-0.140
611,-0.215,-0.145
612,-0.215,-0.140
613,-0.200,-0.140
614,-0.220,-0.140
615,-0.225,-0.140
616,-0.215,-0.150
617,-0.200,-0.150
618,-0.175,-0.130
619,-0.150,-0.100
620,-0.130,-0.065
621,-0.105,-0.050
622,-0.105,-0.035
623,-0.085,-0.015
624,-0.055,-0.025
625,-0.050,-0.035
626,-0.030,-0.060
627,-0.035,-0.065
628,-0.035,-0.075
629,-0.050,-0.090
630,-0.080,-0.105
631,-0.115,-0.125
632,-0.130,-0.130
633,-0.120,-0.135
634,-0.130,-0.125
635,-0.175,-0.120
636,-0.220,-0.130
637,-0.215,-0.135
638,-0.210,-0.140
639,-0.230,-0.135
640,-0.260,-0.160
641,-0.280,-0.185
642,-0.265,-0.170
643,-0.255,-0.165
644,-0.270,-0.185
645,-0.270,-0.165
646,-0.270,-0.145
647,-0.275,-0.165
648,-0.285,-0.185
649,-0.270,-0.165
650,-0.260,-0.160
651,-0.255,-0.175
652,-0.265,-0.165
653,-0.275,-0.150
654,-0.280,-0.145
655,-0.360,-0.160
656,-0.480,-0.175
657,-0.545,-0.115
658,-0.510,0.035
659,-0.330,0.185
660,0.045,0.280
661,0.575,0.310
662,1.195,0.325
663,1.760,0.465
664,1.895,0.545
665,1.395,-0.060
666,0.635,-0.740
667,0.125,-0.825
668,-0.135,-0.710
669,-0.285,-0.625
670,-0.325,-0.495
671,-0.285,-0.330
672,-0.225,-0.205
673,-0.190,-0.150
674,-0.190,-0.130
675,-0.185,-0.125
676,-0.205,-0.100
677,-0.215,-0.095
678,-0.220,-0.100
679,-0.220,-0.100
680,-0.210,-0.095
681,-0.215,-0.085
682,-0.225,-0.080
683,-0.210,-0.075
684,-0.200,-0.075
685,-0.210,-0.085
686,-0.220,-0.080
687,-0.210,-0.075
688,-0.195,-0.075
689,-0.200,-0.065
690,-0.200,-0.065
691,-0.200,-0.065
692,-0.195,-0.050
693,-0.190,-0.055
694,-0.200,-0.070
695,-0.205,-0.070
696,-0.185,-0.045
697,-0.185,-0.040
698,-0.210,-0.040
699,-0.185,-0.040
700,-0.175,-0.035
701,-0.175,-0.040
702,-0.185,-0.030
703,-0.185,-0.030
704,-0.165,-0.030
705,-0.170,-0.030
706,-0.170,-0.025
707,-0.170,-0.020
708,-0.165,-0.020
709,-0.155,-0.015
710,-0.140,-0.010
711,-0.140,-0.005
712,-0.135,-0.005
713,-0.130,0.000
714,-0.125,0.000
715,-0.115,0.005
716,-0.095,0.020
717,-0.085,0.030
718,-0.075,0.030
719,-0.070,0.035
720,-0.070,0.035
721,-0.040,0.055
722,-0.020,0.080
723,-0.015,0.080
724,-0.005,0.090
725,0.000,0.100
726,0.040,0.120
727,0.055,0.120
728,0.070,0.140
729,0.105,0.150
730,0.140,0.160
731,0.145,0.160
732,0.155,0.170
733,0.205,0.195
734,0.245,0.205
735,0.255,0.205
736,0.275,0.210
737,0.325,0.215
738,0.335,0.210
739,0.335,0.230
740,0.350,0.235
741,0.385,0.235
742,0.405,0.230
743,0.400,0.235
744,0.390,0.205
745,0.395,0.200
746,0.400,0.190
747,0.385,0.165
748,0.345,0.140
749,0.325,0.145
750,0.320,0.140
751,0.280,0.100
752,0.220,0.090
753,0.185,0.085
754,0.155,0.080
755,0.120,0.065
756,0.070,0.040
757,0.020,0.020
758,0.005,0.015
759,-0.005,0.015
760,-0.045,0.000
761,-0.090,-0.005
762,-0.095,-0.010
763,-0.090,-0.010
764,-0.110,-0.015
765,-0.135,-0.030
766,-0.150,-0.060
767,-0.155,-0.050
768,-0.150,-0.045
769,-0.150,-0.050
770,-0.165,-0.050
771,-0.170,-0.045
772,-0.155,-0.040
773,-0.155,-0.040
774,-0.155,-0.040
775,-0.150,-0.045
776,-0.155,-0.025
777,-0.170,-0.040
778,-0.175,-0.050
779,-0.160,-0.045
780,-0.150,-0.040
781,-0.145,-0.035
782,-0.155,-0.040
783,-0.150,-0.040
784,-0.140,-0.035
785,-0.135,-0.025
786,-0.135,-0.035
787,-0.140,-0.040
788,-0.140,-0.035
789,-0.135,-0.040
790,-0.140,-0.040
791,-0.150,-0.050
792,-0.150,-0.065
793,-0.145,-0.055
794,-0.140,-0.055
795,-0.140,-0.065
796,-0.130,-0.065
797,-0.135,-0.065
798,-0.150,-0.070
799,-0.155,-0.075
800,-0.155,-0.080
801,-0.150,-0.090
802,-0.170,-0.090
803,-0.170,-0.095
804,-0.155,-0.095
805,-0.155,-0.100
806,-0.170,-0.110
807,-0.170,-0.105
808,-0.170,-0.100
809,-0.170,-0.095
810,-0.170,-0.105
811,-0.180,-0.115
812,-0.180,-0.120
813,-0.185,-0.110
814,-0.190,-0.105
815,-0.190,-0.120
816,-0.175,-0.130
817,-0.165,-0.135
818,-0.155,-0.125
819,-0.170,-0.120
820,-0.175,-0.115
821,-0.175,-0.130
822,-0.175,-0.135
823,-0.175,-0.125
824,-0.180,-0.110
825,-0.175,-0.105
826,-0.170,-0.130
827,-0.185,-0.130
828,-0.190,-0.120
829,-0.180,-0.115
830,-0.185,-0.135
831,-0.195,-0.145
832,-0.195,-0.130
833,-0.185,-0.125
834,-0.185,-0.130
835,-0.190,-0.130
836,-0.195,-0.130
837,-0.195,-0.130
838,-0.185,-0.125
839,-0.185,-0.135
840,-0.195,-0.140
841,-0.190,-0.130
842,-0.185,-0.120
843,-0.185,-0.130
844,-0.220,-0.140
845,-0.205,-0.135
846,-0.185,-0.130
847,-0.185,-0.125
848,-0.195,-0.130
849,-0.185,-0.130
850,-0.185,-0.135
851,-0.200,-0.130
852,-0.195,-0.130
853,-0.210,-0.135
854,-0.190,-0.135
855,-0.175,-0.130
856,-0.195,-0.140
857,-0.215,-0.150
858,-0.190,-0.135
859,-0.180,-0.130
860,-0.185,-0.130
861,-0.200,-0.135
862,-0.185,-0.130
863,-0.190,-0.130
864,-0.200,-0.125
865,-0.200,-0.135
866,-0.200,-0.150
867,-0.190,-0.145
868,-0.185,-0.135
869,-0.190,-0.135
870,-0.205,-0.145
871,-0.190,-0.130
872,-0.185,-0.130
873,-0.200,-0.135
874,-0.195,-0.140
875,-0.190,-0.135
876,-0.190,-0.130
877,-0.195,-0.125
878,-0.200,-0.135
879,-0.200,-0.145
880,-0.190,-0.145
881,-0.185,-0.135
882,-0.185,-0.140
883,-0.195,-0.145
884,-0.195,-0.140
885,-0.190,-0.135
886,-0.200,-0.145
887,-0.180,-0.140
888,-0.140,-0.115
889,-0.125,-0.095
890,-0.125,-0.060
891,-0.090,-0.030
892,-0.060,-0.030
893,-0.040,-0.015
894,-0.035,-0.015
895,-0.030,-0.020
896,-0.030,-0.040
897,-0.020,-0.070
898,-0.015,-0.090
899,-0.025,-0.100
900,-0.035,-0.105
901,-0.085,-0.130
902,-0.125,-0.140
903,-0.130,-0.145
904,-0.135,-0.135
905,-0.150,-0.125
906,-0.185,-0.130
907,-0.215,-0.145
908,-0.200,-0.140
909,-0.190,-0.135
910,-0.210,-0.160
911,-0.250,-0.175
912,-0.250,-0.175
913,-0.240,-0.160
914,-0.255,-0.175
915,-0.270,-0.185
916,-0.260,-0.175
917,-0.240,-0.170
918,-0.240,-0.175
919,-0.255,-0.170
920,-0.255,-0.155
921,-0.255,-0.145
922,-0.265,-0.155
923,-0.275,-0.160
924,-0.310,-0.155
925,-0.325,-0.150
926,-0.475,-0.165
927,-0.520,-0.090
928,-0.470,0.065
929,-0.240,0.190
930,0.165,0.290
931,0.735,0.310
932,1.350,0.320
933,1.850,0.500
934,1.880,0.475
935,1.240,-0.270
936,0.485,-0.845
937,0.065,-0.825
938,-0.150,-0.725
939,-0.310,-0.645
940,-0.355,-0.505
941,-0.310,-0.340
942,-0.240,-0.215
943,-0.205,-0.155
944,-0.210,-0.140
945,-0.205,-0.130
946,-0.190,-0.125
947,-0.195,-0.120
948,-0.200,-0.105
949,-0.210,-0.100
950,-0.215,-0.095
951,-0.205,-0.095
952,-0.220,-0.095
953,-0.225,-0.100
954,-0.195,-0.090
955,-0.195,-0.075
956,-0.215,-0.075
957,-0.220,-0.090
958,-0.220,-0.090
959,-0.205,-0.080
960,-0.190,-0.075
961,-0.200,-0.085
962,-0.200,-0.070
963,-0.185,-0.065
964,-0.195,-0.075
965,-0.205,-0.060
966,-0.190,-0.065
967,-0.190,-0.065
968,-0.195,-0.065
969,-0.205,-0.065
970,-0.180,-0.055
971,-0.170,-0.040
972,-0.180,-0.035
973,-0.190,-0.040
974,-0.185,-0.040
975,-0.185,-0.045
976,-0.170,-0.030
977,-0.170,-0.030
978,-0.185,-0.040
979,-0.160,-0.030
980,-0.140,-0.020
981,-0.140,-0.020
982,-0.140,-0.010
983,-0.135,-0.005
984,-0.130,0.000
985,-0.105,0.005
986,-0.090,0.005
987,-0.070,0.010
988,-0.070,0.025
989,-0.090,0.030
990,-0.080,0.030
991,-0.050,0.040
992,-0.025,0.050
993,-0.010,0.070
994,-0.005,0.095
995,0.010,0.115
996,0.030,0.120
997,0.045,0.120
998,0.050,0.125
999,0.090,0.140
1000,0.110,0.150
1001,0.170,0.185
1002,0.175,0.185
1003,0.200,0.195
1004,0.250,0.220
1005,0.270,0.225
1006,0.285,0.235
1007,0.325,0.240
1008,0.345,0.235
1009,0.350,0.245
1010,0.365,0.260
1011,0.370,0.255
1012,0.390,0.255
1013,0.405,0.250
1014,0.395,0.250
1015,0.400,0.225
1016,0.400,0.195
1017,0.385,0.190
1018,0.360,0.190
1019,0.325,0.155
1020,0.285,0.130
1021,0.260,0.120
1022,0.220,0.110
1023,0.155,0.090
1024,0.120,0.070
1025,0.110,0.065
1026,0.050,0.040
1027,-0.005,0.025
1028,-0.035,0.010
1029,-0.050,0.005
1030,-0.065,0.000
1031,-0.100,-0.015
1032,-0.130,-0.035
1033,-0.135,-0.040
1034,-0.135,-0.040
1035,-0.155,-0.040
1036,-0.175,-0.055
1037,-0.185,-0.070
1038,-0.180,-0.050
1039,-0.185,-0.065
1040,-0.195,-0.080
1041,-0.210,-0.075
1042,-0.190,-0.065
1043,-0.175,-0.065
1044,-0.200,-0.060
1045,-0.190,-0.050
1046,-0.170,-0.050
1047,-0.185,-0.060
1048,-0.200,-0.070
1049,-0.180,-0.060
1050,-0.170,-0.050
1051,-0.175,-0.060
1052,-0.180,-0.065
1053,-0.175,-0.045
1054,-0.155,-0.045
1055,-0.170,-0.050
1056,-0.175,-0.040
1057,-0.185,-0.065
1058,-0.185,-0.075
1059,-0.175,-0.075
1060,-0.170,-0.070
1061,-0.170,-0.075
1062,-0.175,-0.065
1063,-0.180,-0.055
1064,-0.180,-0.075
1065,-0.185,-0.090
1066,-0.190,-0.100
1067,-0.175,-0.095
1068,-0.175,-0.085
1069,-0.195,-0.085
1070,-0.180,-0.095
1071,-0.170,-0.115
1072,-0.185,-0.110
1073,-0.215,-0.115
1074,-0.220,-0.115
1075,-0.215,-0.120
1076,-0.215,-0.120
1077,-0.215,-0.125
1078,-0.210,-0.135
1079,-0.200,-0.125
1080,-0.200,-0.115
1081,-0.240,-0.135
1082,-0.260,-0.140
1083,-0.220,-0.135
1084,-0.210,-0.130
1085,-0.225,-0.135
1086,-0.235,-0.135
1087,-0.240,-0.135
1088,-0.230,-0.130
1089,-0.225,-0.150
1090,-0.235,-0.155
1091,-0.225,-0.145
1092,-0.215,-0.145
1093,-0.220,-0.150
1094,-0.235,-0.140
1095,-0.245,-0.145
1096,-0.255,-0.135
1097,-0.250,-0.145
1098,-0.255,-0.160
1099,-0.245,-0.150
1100,-0.230,-0.145
1101,-0.225,-0.135
1102,-0.245,-0.145
1103,-0.265,-0.150
1104,-0.245,-0.145
1105,-0.235,-0.145
1106,-0.250,-0.150
1107,-0.240,-0.155
1108,-0.225,-0.150
1109,-0.225,-0.145
1110,-0.245,-0.150
1111,-0.255,-0.155
1112,-0.240,-0.150
1113,-0.235,-0.150
1114,-0.255,-0.160
1115,-0.255,-0.160
1116,-0.240,-0.145
1117,-0.250,-0.140
1118,-0.255,-0.145
1119,-0.260,-0.150
1120,-0.255,-0.150
1121,-0.255,-0.150
1122,-0.250,-0.155
1123,-0.250,-0.160
1124,-0.245,-0.150
1125,-0.235,-0.145
1126,-0.240,-0.150
1127,-0.260,-0.160
1128,-0.260,-0.150
1129,-0.240,-0.150
1130,-0.240,-0.160
1131,-0.245,-0.155
1132,-0.270,-0.140
1133,-0.250,-0.150
1134,-0.240,-0.155
1135,-0.250,-0.150
1136,-0.245,-0.150
1137,-0.240,-0.160
1138,-0.235,-0.155
1139,-0.240,-0.145
1140,-0.255,-0.145
1141,-0.255,-0.160
1142,-0.255,-0.155
1143,-0.240,-0.150
1144,-0.245,-0.155
1145,-0.255,-0.160
1146,-0.225,-0.150
1147,-0.235,-0.145
1148,-0.260,-0.150
1149,-0.265,-0.165
1150,-0.260,-0.170
1151,-0.235,-0.150
1152,-0.235,-0.155
1153,-0.245,-0.170
1154,-0.225,-0.160
1155,-0.220,-0.140
1156,-0.210,-0.130
1157,-0.210,-0.115
1158,-0.175,-0.075
1159,-0.145,-0.050
1160,-0.120,-0.035
1161,-0.090,-0.035
1162,-0.085,-0.040
1163,-0.090,-0.045
1164,-0.090,-0.060
1165,-0.080,-0.075
1166,-0.065,-0.095
1167,-0.065,-0.100
1168,-0.095,-0.100
1169,-0.145,-0.130
1170,-0.155,-0.140
1171,-0.155,-0.135
1172,-0.185,-0.135
1173,-0.210,-0.130
1174,-0.230,-0.130
1175,-0.235,-0.135
1176,-0.260,-0.155
1177,-0.275,-0.170
1178,-0.295,-0.190
1179,-0.300,-0.190
1180,-0.280,-0.175
1181,-0.295,-0.180
1182,-0.315,-0.195
1183,-0.305,-0.190
1184,-0.290,-0.185
1185,-0.305,-0.195
1186,-0.315,-0.180
1187,-0.305,-0.170
1188,-0.295,-0.185
1189,-0.295,-0.190
1190,-0.295,-0.180
1191,-0.285,-0.180
1192,-0.330,-0.175
1193,-0.420,-0.170
1194,-0.525,-0.170
1195,-0.570,-0.090
1196,-0.535,0.095
1197,-0.300,0.280
1198,0.110,0.415
1199,0.675,0.465
1200,0.860,0.460
1201,1.905,0.665
1202,2.035,0.650
1203,1.425,-0.120
1204,0.600,-0.780
1205,0.095,-0.810
1206,-0.165,-0.735
1207,-0.375,-0.695
1208,-0.425,-0.590
1209,-0.385,-0.425
1210,-0.330,-0.295
1211,-0.275,-0.200
1212,-0.235,-0.160
1213,-0.235,-0.145
1214,-0.240,-0.130
1215,-0.245,-0.130
1216,-0.260,-0.125
1217,-0.250,-0.120
1218,-0.245,-0.120
1219,-0.250,-0.120
1220,-0.240,-0.105
1221,-0.235,-0.090
1222,-0.245,-0.100
1223,-0.260,-0.115
1224,-0.255,-0.100
1225,-0.250,-0.095
1226,-0.225,-0.085
1227,-0.245,-0.085
1228,-0.240,-0.100
1229,-0.240,-0.095
1230,-0.225,-0.080
1231,-0.230,-0.085
1232,-0.235,-0.085
1233,-0.225,-0.080
1234,-0.220,-0.075
1235,-0.220,-0.075
1236,-0.235,-0.085
1237,-0.225,-0.080
1238,-0.200,-0.070
1239,-0.190,-0.065
1240,-0.215,-0.055
1241,-0.210,-0.050
1242,-0.200,-0.065
1243,-0.200,-0.055
1244,-0.200,-0.050
1245,-0.190,-0.050
1246,-0.180,-0.050
1247,-0.185,-0.045
1248,-0.170,-0.030
1249,-0.170,-0.030
1250,-0.170,-0.025
1251,-0.150,-0.015
1252,-0.140,-0.010
1253,-0.135,-0.005
1254,-0.120,-0.005
1255,-0.110,0.010
1256,-0.105,0.020
1257,-0.090,0.010
1258,-0.065,0.015
1259,-0.055,0.030
1260,-0.035,0.045
1261,-0.025,0.045
1262,-0.005,0.050
1263,0.010,0.070
1264,0.020,0.080
1265,0.040,0.080
1266,0.070,0.100
1267,0.095,0.135
1268,0.120,0.150
1269,0.135,0.140
1270,0.175,0.140
1271,0.220,0.145
1272,0.230,0.165
1273,0.255,0.180
1274,0.275,0.180
1275,0.285,0.185
1276,0.335,0.210
1277,0.345,0.200
1278,0.355,0.190
1279,0.380,0.205
1280,0.405,0.205
1281,0.410,0.195
1282,0.410,0.185
1283,0.415,0.180
1284,0.425,0.165
1285,0.390,0.140
1286,0.345,0.135
1287,0.340,0.140
1288,0.320,0.120
1289,0.260,0.100
1290,0.205,0.085
1291,0.185,0.075
1292,0.140,0.060
1293,0.090,0.045
1294,0.050,0.035
1295,0.015,0.030
1296,0.000,0.025
1297,-0.035,0.020
1298,-0.070,0.000
1299,-0.095,-0.010
1300,-0.100,-0.015
1301,-0.130,-0.015
1302,-0.150,-0.045
1303,-0.170,-0.065
1304,-0.170,-0.065
1305,-0.175,-0.060
1306,-0.175,-0.070
1307,-0.185,-0.070
1308,-0.190,-0.060
1309,-0.175,-0.050
1310,-0.180,-0.065
1311,-0.205,-0.075
1312,-0.195,-0.065
1313,-0.180,-0.060
1314,-0.185,-0.075
1315,-0.195,-0.070
1316,-0.160,-0.060
1317,-0.150,-0.060
1318,-0.150,-0.050
1319,-0.170,-0.045
1320,-0.165,-0.040
1321,-0.150,-0.050
1322,-0.155,-0.065
1323,-0.170,-0.060
1324,-0.155,-0.045
1325,-0.150,-0.050
1326,-0.145,-0.040
1327,-0.150,-0.045
1328,-0.150,-0.060
1329,-0.140,-0.060
1330,-0.140,-0.075
1331,-0.160,-0.085
1332,-0.155,-0.075
1333,-0.145,-0.075
1334,-0.145,-0.075
1335,-0.155,-0.070
1336,-0.155,-0.080
1337,-0.170,-0.095
1338,-0.170,-0.095
1339,-0.175,-0.095
1340,-0.175,-0.100
1341,-0.155,-0.100
1342,-0.160,-0.100
1343,-0.170,-0.100
1344,-0.185,-0.100
1345,-0.180,-0.115
1346,-0.185,-0.115
1347,-0.185,-0.110
1348,-0.200,-0.135
1349,-0.210,-0.135
1350,-0.200,-0.130
1351,-0.175,-0.115
1352,-0.185,-0.125
1353,-0.200,-0.130
1354,-0.185,-0.130
1355,-0.185,-0.130
1356,-0.205,-0.125
1357,-0.200,-0.115
1358,-0.200,-0.135
1359,-0.210,-0.145
1360,-0.210,-0.135
1361,-0.205,-0.140
1362,-0.210,-0.140
1363,-0.195,-0.130
1364,-0.190,-0.135
1365,-0.200,-0.135
1366,-0.200,-0.130
1367,-0.195,-0.135
1368,-0.190,-0.135
1369,-0.210,-0.130
1370,-0.205,-0.125
1371,-0.200,-0.145
1372,-0.210,-0.145
1373,-0.215,-0.140
1374,-0.205,-0.140
1375,-0.200,-0.140
1376,-0.195,-0.130
1377,-0.195,-0.130
1378,-0.210,-0.130
1379,-0.205,-0.130
1380,-0.200,-0.140
1381,-0.205,-0.140
1382,-0.200,-0.130
1383,-0.190,-0.130
1384,-0.190,-0.145
1385,-0.200,-0.150
1386,-0.195,-0.145
1387,-0.195,-0.140
1388,-0.195,-0.130
1389,-0.195,-0.130
1390,-0.205,-0.135
1391,-0.200,-0.120
1392,-0.195,-0.135
1393,-0.205,-0.145
1394,-0.220,-0.150
1395,-0.205,-0.140
1396,-0.190,-0.130
1397,-0.190,-0.135
1398,-0.200,-0.145
1399,-0.190,-0.140
1400,-0.185,-0.140
1401,-0.185,-0.135
1402,-0.190,-0.135
1403,-0.210,-0.135
1404,-0.195,-0.125
1405,-0.190,-0.130
1406,-0.215,-0.145
1407,-0.210,-0.135
1408,-0.185,-0.130
1409,-0.180,-0.130
1410,-0.195,-0.140
1411,-0.200,-0.140
1412,-0.185,-0.130
1413,-0.175,-0.130
1414,-0.190,-0.135
1415,-0.195,-0.140
1416,-0.200,-0.130
1417,-0.190,-0.120
1418,-0.185,-0.125
1419,-0.210,-0.150
1420,-0.200,-0.135
1421,-0.170,-0.125
1422,-0.190,-0.140
1423,-0.215,-0.145
1424,-0.190,-0.135
1425,-0.185,-0.135
1426,-0.175,-0.125
1427,-0.190,-0.135
1428,-0.200,-0.145
1429,-0.180,-0.135
1430,-0.175,-0.120
1431,-0.185,-0.125
1432,-0.190,-0.135
1433,-0.185,-0.135
1434,-0.180,-0.130
1435,-0.175,-0.135
1436,-0.180,-0.145
1437,-0.150,-0.125
1438,-0.115,-0.075
1439,-0.090,-0.045
1440,-0.090,-0.030
1441,-0.050,-0.010
1442,-0.010,-0.010
1443,0.000,-0.015
1444,-0.015,-0.040
1445,-0.020,-0.060
1446,-0.005,-0.070
1447,-0.020,-0.085
1448,-0.070,-0.100
1449,-0.085,-0.105
1450,-0.075,-0.105
1451,-0.075,-0.105
1452,-0.120,-0.125
1453,-0.140,-0.130
1454,-0.140,-0.110
1455,-0.160,-0.105
1456,-0.190,-0.130
1457,-0.200,-0.135
1458,-0.215,-0.135
1459,-0.220,-0.140
1460,-0.245,-0.170
1461,-0.260,-0.185
1462,-0.240,-0.160
1463,-0.230,-0.155
1464,-0.240,-0.150
1465,-0.255,-0.155
1466,-0.250,-0.155
1467,-0.235,-0.150
1468,-0.235,-0.155
1469,-0.250,-0.160
1470,-0.225,-0.150
1471,-0.210,-0.150
1472,-0.240,-0.150
1473,-0.300,-0.155
1474,-0.400,-0.155
1475,-0.440,-0.160
1476,-0.495,-0.025
1477,-0.405,0.130
1478,-0.095,0.235
1479,0.410,0.300
1480,1.005,0.295
1481,1.585,0.350
1482,1.920,0.530
1483,1.640,0.220
1484,0.945,-0.525
1485,0.320,-0.830
1486,-0.020,-0.745
1487,-0.190,-0.640
1488,-0.265,-0.535
1489,-0.260,-0.385
1490,-0.215,-0.240
1491,-0.175,-0.155
1492,-0.160,-0.120
1493,-0.150,-0.105
1494,-0.180,-0.105
1495,-0.190,-0.090
1496,-0.170,-0.080
1497,-0.185,-0.100
1498,-0.195,-0.095
1499,-0.180,-0.085
1500,-0.175,-0.080
1501,-0.160,-0.070
1502,-0.180,-0.075
1503,-0.195,-0.080
1504,-0.175,-0.070
1505,-0.170,-0.065
1506,-0.185,-0.065
1507,-0.175,-0.060
1508,-0.155,-0.055
1509,-0.165,-0.050
1510,-0.175,-0.040
1511,-0.180,-0.040
1512,-0.180,-0.065
1513,-0.170,-0.055
1514,-0.170,-0.040
1515,-0.165,-0.040
1516,-0.145,-0.040
1517,-0.150,-0.030
1518,-0.155,-0.025
1519,-0.155,-0.030
1520,-0.140,-0.020
1521,-0.130,-0.030
1522,-0.135,-0.005
1523,-0.150,0.000
1524,-0.150,-0.020
1525,-0.145,-0.025
1526,-0.135,-0.010
1527,-0.135,0.000
1528,-0.125,0.000
1529,-0.110,-0.005
1530,-0.105,0.005
1531,-0.110,0.005
1532,-0.105,0.010
1533,-0.080,0.020
1534,-0.065,0.040
1535,-0.055,0.050
1536,-0.065,0.050
1537,-0.040,0.045
1538,-0.020,0.055
1539,-0.010,0.070
1540,-0.010,0.075
1541,0.010,0.090
1542,0.035,0.095
1543,0.045,0.115
1544,0.060,0.135
1545,0.090,0.150
1546,0.110,0.155
1547,0.120,0.150
1548,0.135,0.160
1549,0.175,0.190
1550,0.190,0.195
1551,0.220,0.200
1552,0.245,0.220
1553,0.280,0.230
1554,0.315,0.215
1555,0.325,0.225
1556,0.335,0.240
1557,0.345,0.240
1558,0.380,0.240
1559,0.405,0.245
1560,0.405,0.235
1561,0.400,0.240
1562,0.430,0.230
1563,0.440,0.220
1564,0.430,0.210
1565,0.410,0.180
1566,0.395,0.160
1567,0.390,0.150
1568,0.360,0.140
1569,0.310,0.120
1570,0.285,0.095
1571,0.255,0.085
1572,0.220,0.085
1573,0.175,0.070
1574,0.125,0.040
1575,0.105,0.035
1576,0.080,0.035
1577,0.035,0.025
1578,0.005,0.015
1579,0.005,0.010
1580,-0.020,0.000
1581,-0.060,-0.020
1582,-0.085,-0.035
1583,-0.085,-0.035
1584,-0.095,-0.030
1585,-0.105,-0.035
1586,-0.115,-0.040
1587,-0.100,-0.045
1588,-0.095,-0.040
1589,-0.105,-0.040
1590,-0.120,-0.040
1591,-0.115,-0.030
1592,-0.105,-0.025
1593,-0.110,-0.035
1594,-0.135,-0.050
1595,-0.140,-0.045
1596,-0.115,-0.030
1597,-0.100,-0.025
1598,-0.110,-0.030
1599,-0.105,-0.030
1600,-0.100,-0.035
1601,-0.105,-0.035
1602,-0.120,-0.030
1603,-0.110,-0.035
1604,-0.090,-0.030
1605,-0.085,-0.030
1606,-0.090,-0.040
1607,-0.105,-0.045
1608,-0.095,-0.040
1609,-0.090,-0.035
1610,-0.095,-0.030
1611,-0.110,-0.045
1612,-0.110,-0.060
1613,-0.105,-0.065
1614,-0.115,-0.070
1615,-0.115,-0.070
1616,-0.100,-0.065
1617,-0.090,-0.065
1618,-0.100,-0.070
1619,-0.115,-0.085
1620,-0.125,-0.090
1621,-0.125,-0.090
1622,-0.110,-0.085
1623,-0.130,-0.095
1624,-0.135,-0.110
1625,-0.135,-0.120
1626,-0.135,-0.105
1627,-0.135,-0.105
1628,-0.140,-0.105
1629,-0.120,-0.105
1630,-0.125,-0.115
1631,-0.145,-0.115
1632,-0.150,-0.120
1633,-0.125,-0.110
1634,-0.130,-0.115
1635,-0.155,-0.130
1636,-0.160,-0.135
1637,-0.130,-0.130
1638,-0.125,-0.130
1639,-0.150,-0.120
1640,-0.155,-0.130
1641,-0.140,-0.120
1642,-0.140,-0.120
1643,-0.150,-0.110
1644,-0.170,-0.105
1645,-0.175,-0.125
1646,-0.155,-0.135
1647,-0.155,-0.130
1648,-0.155,-0.120
1649,-0.155,-0.135
1650,-0.155,-0.140
1651,-0.145,-0.130
1652,-0.150,-0.125
1653,-0.170,-0.130
1654,-0.175,-0.135
1655,-0.170,-0.135
1656,-0.160,-0.135
1657,-0.155,-0.130
1658,-0.150,-0.135
1659,-0.145,-0.135
1660,-0.160,-0.135
1661,-0.170,-0.125
1662,-0.155,-0.130
1663,-0.165,-0.140
1664,-0.175,-0.145
1665,-0.165,-0.140
1666,-0.155,-0.145
1667,-0.170,-0.150
1668,-0.175,-0.140
1669,-0.155,-0.135
1670,-0.145,-0.145
1671,-0.155,-0.145
1672,-0.155,-0.135
1673,-0.155,-0.140
1674,-0.155,-0.140
1675,-0.160,-0.140
1676,-0.160,-0.130
1677,-0.165,-0.130
1678,-0.170,-0.130
1679,-0.155,-0.135
1680,-0.145,-0.145
1681,-0.150,-0.145
1682,-0.155,-0.135
1683,-0.150,-0.130
1684,-0.155,-0.135
1685,-0.155,-0.140
1686,-0.165,-0.140
1687,-0.155,-0.135
1688,-0.145,-0.135
1689,-0.140,-0.135
1690,-0.155,-0.140
1691,-0.155,-0.130
1692,-0.150,-0.125
1693,-0.150,-0.130
1694,-0.170,-0.135
1695,-0.165,-0.130
1696,-0.150,-0.125
1697,-0.150,-0.135
1698,-0.175,-0.145
1699,-0.165,-0.130
1700,-0.155,-0.125
1701,-0.145,-0.135
1702,-0.165,-0.140
1703,-0.170,-0.135
1704,-0.155,-0.130
1705,-0.145,-0.135
1706,-0.150,-0.145
1707,-0.150,-0.135
1708,-0.140,-0.130
1709,-0.140,-0.125
1710,-0.140,-0.135
1711,-0.150,-0.140
1712,-0.155,-0.135
1713,-0.140,-0.130
1714,-0.140,-0.135
1715,-0.150,-0.135
1716,-0.125,-0.105
1717,-0.090,-0.070
1718,-0.065,-0.040
1719,-0.055,-0.030
1720,-0.025,-0.020
1721,0.010,-0.015
1722,0.010,-0.030
1723,-0.010,-0.050
1724,0.000,-0.060
1725,0.010,-0.065
1726,0.020,-0.080
1727,-0.015,-0.090
1728,-0.035,-0.110
1729,-0.035,-0.125
1730,-0.050,-0.125
1731,-0.080,-0.130
1732,-0.110,-0.125
1733,-0.140,-0.140
1734,-0.150,-0.145
1735,-0.150,-0.145
1736,-0.170,-0.150
1737,-0.175,-0.160
1738,-0.195,-0.180
1739,-0.220,-0.180
1740,-0.225,-0.175
1741,-0.210,-0.175
1742,-0.190,-0.170
1743,-0.185,-0.160
1744,-0.205,-0.170
1745,-0.215,-0.180
1746,-0.195,-0.170
1747,-0.195,-0.165
1748,-0.210,-0.170
1749,-0.195,-0.160
1750,-0.190,-0.160
1751,-0.205,-0.140
1752,-0.265,-0.165
1753,-0.370,-0.175
1754,-0.435,-0.140
1755,-0.475,-0.030
1756,-0.415,0.155
1757,-0.130,0.305
1758,0.345,0.420
1759,0.915,0.435
1760,1.540,0.490
1761,2.045,0.700
1762,1.950,0.480
1763,1.235,-0.360
1764,0.470,-0.845
1765,0.075,-0.775
1766,-0.160,-0.700
1767,-0.310,-0.630
1768,-0.345,-0.500
1769,-0.290,-0.355
1770,-0.210,-0.230
1771,-0.165,-0.165
1772,-0.145,-0.140
1773,-0.175,-0.125
1774,-0.175,-0.110
1775,-0.170,-0.105
1776,-0.155,-0.105
1777,-0.155,-0.095
1778,-0.150,-0.095
1779,-0.145,-0.095
1780,-0.155,-0.085
1781,-0.165,-0.085
1782,-0.175,-0.090
1783,-0.160,-0.075
1784,-0.145,-0.070
1785,-0.165,-0.090
1786,-0.185,-0.090
1787,-0.150,-0.075
1788,-0.140,-0.075
1789,-0.160,-0.085
1790,-0.175,-0.070
1791,-0.150,-0.060
1792,-0.145,-0.050
1793,-0.145,-0.060
1794,-0.170,-0.075
1795,-0.150,-0.070
1796,-0.125,-0.060
1797,-0.125,-0.050
1798,-0.150,-0.045
1799,-0.150,-0.035
1800,-0.140,-0.030
1801,-0.115,-0.030
1802,-0.125,-0.040
1803,-0.140,-0.040
1804,-0.130,-0.030
1805,-0.115,-0.030
1806,-0.115,-0.025
1807,-0.105,-0.020
1808,-0.095,-0.020
1809,-0.090,-0.020
1810,-0.090,-0.030
1811,-0.100,-0.020
1812,-0.065,0.000
1813,-0.040,0.010
1814,-0.030,0.010
1815,-0.035,0.010
1816,-0.020,0.020
1817,-0.005,0.040
1818,0.000,0.055
1819,-0.005,0.065
1820,0.005,0.060
1821,0.030,0.075
1822,0.050,0.090
1823,0.060,0.100
1824,0.090,0.115
1825,0.105,0.120
1826,0.140,0.130
1827,0.155,0.155
1828,0.190,0.175
1829,0.245,0.180
1830,0.270,0.195
1831,0.275,0.195
1832,0.300,0.200
1833,0.340,0.215
1834,0.370,0.235
1835,0.385,0.235
1836,0.390,0.230
1837,0.415,0.245
1838,0.450,0.250
1839,0.450,0.235
1840,0.440,0.245
1841,0.480,0.235
1842,0.480,0.230
1843,0.475,0.235
1844,0.470,0.205
1845,0.450,0.195
1846,0.430,0.190
1847,0.395,0.165
1848,0.360,0.140
1849,0.315,0.130
1850,0.305,0.130
1851,0.255,0.110
1852,0.195,0.090
1853,0.135,0.070
1854,0.085,0.045
1855,0.065,0.040
1856,0.035,0.035
1857,0.000,0.025
1858,-0.015,0.010
1859,-0.045,-0.005
1860,-0.090,-0.020
1861,-0.105,-0.030
1862,-0.095,-0.030
1863,-0.100,-0.035
1864,-0.115,-0.040
1865,-0.120,-0.050
1866,-0.125,-0.060
1867,-0.135,-0.050
1868,-0.140,-0.045
1869,-0.145,-0.055
1870,-0.140,-0.065
1871,-0.130,-0.070
1872,-0.135,-0.065
1873,-0.135,-0.050
1874,-0.125,-0.045
1875,-0.125,-0.045
1876,-0.140,-0.045
1877,-0.140,-0.040
1878,-0.130,-0.040
1879,-0.105,-0.040
1880,-0.100,-0.030
1881,-0.105,-0.035
1882,-0.125,-0.045
1883,-0.110,-0.045
1884,-0.105,-0.040
1885,-0.090,-0.040
1886,-0.105,-0.045
1887,-0.130,-0.050
1888,-0.120,-0.045
1889,-0.115,-0.050
1890,-0.125,-0.060
1891,-0.105,-0.065
1892,-0.105,-0.075
1893,-0.125,-0.080
1894,-0.140,-0.085
1895,-0.135,-0.085
1896,-0.110,-0.080
1897,-0.130,-0.090
1898,-0.155,-0.095
1899,-0.150,-0.085
1900,-0.140,-0.080
1901,-0.140,-0.095
1902,-0.150,-0.095
1903,-0.155,-0.095
1904,-0.150,-0.100
1905,-0.150,-0.120
1906,-0.155,-0.120
1907,-0.170,-0.115
1908,-0.155,-0.105
1909,-0.145,-0.110
1910,-0.175,-0.140
1911,-0.190,-0.145
1912,-0.165,-0.130
1913,-0.150,-0.125
1914,-0.190,-0.140
1915,-0.200,-0.135
1916,-0.170,-0.125
1917,-0.165,-0.125
1918,-0.180,-0.120
1919,-0.190,-0.130
1920,-0.195,-0.135
1921,-0.185,-0.135
1922,-0.190,-0.130
1923,-0.200,-0.140
1924,-0.190,-0.145
1925,-0.185,-0.140
1926,-0.180,-0.135
1927,-0.195,-0.140
1928,-0.200,-0.150
1929,-0.180,-0.145
1930,-0.175,-0.140
1931,-0.200,-0.145
1932,-0.200,-0.150
1933,-0.175,-0.145
1934,-0.170,-0.140
1935,-0.190,-0.135
1936,-0.200,-0.135
1937,-0.200,-0.140
1938,-0.195,-0.135
1939,-0.195,-0.135
1940,-0.205,-0.160
1941,-0.215,-0.160
1942,-0.195,-0.145
1943,-0.190,-0.150
1944,-0.210,-0.160
1945,-0.200,-0.145
1946,-0.185,-0.135
1947,-0.195,-0.140
1948,-0.220,-0.150
1949,-0.205,-0.155
1950,-0.195,-0.150
1951,-0.190,-0.140
1952,-0.205,-0.145
1953,-0.210,-0.150
1954,-0.195,-0.140
1955,-0.190,-0.130
1956,-0.200,-0.150
1957,-0.215,-0.160
1958,-0.195,-0.140
1959,-0.185,-0.140
1960,-0.210,-0.160
1961,-0.205,-0.155
1962,-0.185,-0.150
1963,-0.185,-0.150
1964,-0.195,-0.145
1965,-0.210,-0.145
1966,-0.195,-0.140
1967,-0.190,-0.130
1968,-0.210,-0.150
1969,-0.235,-0.165
1970,-0.205,-0.145
1971,-0.190,-0.145
1972,-0.210,-0.155
1973,-0.215,-0.150
1974,-0.195,-0.145
1975,-0.190,-0.140
1976,-0.200,-0.145
1977,-0.205,-0.150
1978,-0.195,-0.145
1979,-0.195,-0.140
1980,-0.195,-0.150
1981,-0.195,-0.150
1982,-0.210,-0.145
1983,-0.210,-0.140
1984,-0.200,-0.135
1985,-0.210,-0.150
1986,-0.215,-0.145
1987,-0.190,-0.140
1988,-0.205,-0.165
1989,-0.220,-0.160
1990,-0.205,-0.150
1991,-0.195,-0.150
1992,-0.195,-0.145
1993,-0.195,-0.135
1994,-0.215,-0.145
1995,-0.205,-0.140
1996,-0.190,-0.145
1997,-0.185,-0.140
1998,-0.170,-0.115
1999,-0.140,-0.080
2000,-0.125,-0.070
2001,-0.100,-0.050
2002,-0.095,-0.045
2003,-0.065,-0.040
2004,-0.050,-0.055
2005,-0.050,-0.065
2006,-0.050,-0.070
2007,-0.035,-0.075
2008,-0.045,-0.090
2009,-0.080,-0.095
2010,-0.090,-0.110
2011,-0.095,-0.125
2012,-0.105,-0.130
2013,-0.140,-0.120
2014,-0.185,-0.120
2015,-0.200,-0.130
2016,-0.200,-0.145
2017,-0.210,-0.140
2018,-0.230,-0.150
2019,-0.260,-0.185
2020,-0.265,-0.190
2021,-0.255,-0.180
2022,-0.265,-0.175
2023,-0.280,-0.180
2024,-0.275,-0.175
2025,-0.270,-0.175
2026,-0.265,-0.185
2027,-0.275,-0.185
2028,-0.275,-0.175
2029,-0.265,-0.175
2030,-0.255,-0.175
2031,-0.255,-0.160
2032,-0.260,-0.170
2033,-0.270,-0.175
2034,-0.330,-0.165
2035,-0.455,-0.175
2036,-0.530,-0.145
2037,-0.520,0.010
2038,-0.365,0.205
2039,-0.025,0.335
2040,0.485,0.435
2041,1.105,0.445
2042,1.740,0.560
2043,2.080,0.715
2044,1.695,0.195
2045,0.885,-0.625
2046,0.255,-0.860
2047,-0.050,-0.755
2048,-0.270,-0.695
2049,-0.365,-0.585
2050,-0.375,-0.540
2051,-0.280,-0.290
2052,-0.230,-0.195
2053,-0.200,-0.150
2054,-0.210,-0.140
2055,-0.200,-0.125
2056,-0.205,-0.120
2057,-0.235,-0.105
2058,-0.225,-0.110
2059,-0.220,-0.110
2060,-0.220,-0.105
2061,-0.225,-0.100
2062,-0.210,-0.085
2063,-0.205,-0.085
2064,-0.225,-0.100
2065,-0.230,-0.100
2066,-0.215,-0.085
2067,-0.200,-0.085
2068,-0.195,-0.080
2069,-0.215,-0.080
2070,-0.215,-0.080
2071,-0.200,-0.085
2072,-0.205,-0.080
2073,-0.210,-0.070
2074,-0.200,-0.070
2075,-0.195,-0.070
2076,-0.190,-0.050
2077,-0.190,-0.055
2078,-0.190,-0.065
2079,-0.180,-0.055
2080,-0.180,-0.050
2081,-0.190,-0.060
2082,-0.190,-0.050
2083,-0.165,-0.045
2084,-0.155,-0.035
2085,-0.170,-0.030
2086,-0.175,-0.025
2087,-0.150,-0.030
2088,-0.150,-0.035
2089,-0.160,-0.025
2090,-0.155,-0.005
2091,-0.135,-0.010
2092,-0.135,-0.020
2093,-0.135,-0.020
2094,-0.130,0.000
2095,-0.105,0.005
2096,-0.090,0.010
2097,-0.080,0.010
2098,-0.075,0.020
2099,-0.065,0.025
2100,-0.060,0.030
2101,-0.030,0.045
2102,-0.020,0.055
2103,0.000,0.065
2104,0.025,0.080
2105,0.030,0.100
2106,0.040,0.100
2107,0.060,0.115
2108,0.095,0.140
2109,0.125,0.150
2110,0.140,0.155
2111,0.175,0.155
2112,0.225,0.180
2113,0.240,0.185
2114,0.260,0.185
2115,0.275,0.195
2116,0.310,0.205
2117,0.330,0.215
2118,0.345,0.210
2119,0.350,0.200
2120,0.380,0.210
2121,0.405,0.215
2122,0.410,0.210
2123,0.405,0.210
2124,0.415,0.195
2125,0.420,0.190
2126,0.415,0.185
2127,0.395,0.155
2128,0.370,0.130
2129,0.340,0.130
2130,0.315,0.125
2131,0.270,0.110
2132,0.220,0.095
2133,0.195,0.080
2134,0.155,0.070
2135,0.090,0.045
2136,0.035,0.030
2137,0.015,0.020
2138,0.000,0.015
2139,-0.035,0.000
2140,-0.070,-0.015
2141,-0.090,-0.030
2142,-0.090,-0.030
2143,-0.105,-0.025
2144,-0.135,-0.040
2145,-0.150,-0.045
2146,-0.150,-0.045
2147,-0.150,-0.050
2148,-0.170,-0.065
2149,-0.175,-0.060
2150,-0.170,-0.050
2151,-0.160,-0.050
2152,-0.180,-0.065
2153,-0.185,-0.075
2154,-0.165,-0.065
2155,-0.155,-0.050
2156,-0.155,-0.050
2157,-0.160,-0.040
2158,-0.155,-0.035
2159,-0.150,-0.035
2160,-0.160,-0.050
2161,-0.165,-0.050
2162,-0.145,-0.035
2163,-0.135,-0.040
2164,-0.135,-0.050
2165,-0.140,-0.045
2166,-0.130,-0.040
2167,-0.125,-0.040
2168,-0.125,-0.030
2169,-0.135,-0.040
2170,-0.130,-0.055
2171,-0.135,-0.065
2172,-0.135,-0.065
2173,-0.135,-0.060
2174,-0.130,-0.065
2175,-0.135,-0.065
2176,-0.150,-0.065
2177,-0.145,-0.065
2178,-0.140,-0.080
2179,-0.150,-0.100
2180,-0.160,-0.100
2181,-0.165,-0.095
2182,-0.155,-0.095
2183,-0.155,-0.095
2184,-0.150,-0.085
2185,-0.170,-0.090
2186,-0.180,-0.110
2187,-0.185,-0.115
2188,-0.170,-0.100
2189,-0.175,-0.105
2190,-0.190,-0.125
2191,-0.185,-0.125
2192,-0.175,-0.115
2193,-0.175,-0.115
2194,-0.185,-0.120
2195,-0.185,-0.115
2196,-0.175,-0.120
2197,-0.175,-0.125
2198,-0.200,-0.125
2199,-0.195,-0.120
2200,-0.190,-0.120
2201,-0.180,-0.130
2202,-0.190,-0.130
2203,-0.190,-0.125
2204,-0.175,-0.120
2205,-0.180,-0.125
2206,-0.195,-0.135
2207,-0.185,-0.135
2208,-0.175,-0.130
2209,-0.180,-0.130
2210,-0.190,-0.125
2211,-0.190,-0.130
2212,-0.190,-0.125
2213,-0.190,-0.115
2214,-0.195,-0.135
2215,-0.205,-0.150
2216,-0.190,-0.130
2217,-0.170,-0.125
2218,-0.195,-0.145
2219,-0.210,-0.140
2220,-0.185,-0.135
2221,-0.175,-0.125
2222,-0.195,-0.120
2223,-0.200,-0.130
2224,-0.200,-0.140
2225,-0.200,-0.135
2226,-0.185,-0.120
2227,-0.195,-0.145
2228,-0.215,-0.155
2229,-0.185,-0.135
2230,-0.175,-0.130
2231,-0.190,-0.135
2232,-0.200,-0.135
2233,-0.190,-0.130
2234,-0.190,-0.125
2235,-0.210,-0.125
2236,-0.200,-0.125
2237,-0.190,-0.140
2238,-0.200,-0.135
2239,-0.190,-0.130
2240,-0.195,-0.140
2241,-0.210,-0.150
2242,-0.200,-0.140
2243,-0.190,-0.130
2244,-0.200,-0.130
2245,-0.195,-0.130
2246,-0.175,-0.130
2247,-0.195,-0.130
2248,-0.210,-0.115
2249,-0.195,-0.120
2250,-0.190,-0.130
2251,-0.200,-0.145
2252,-0.195,-0.135
2253,-0.200,-0.140
2254,-0.195,-0.140
2255,-0.185,-0.130
2256,-0.185,-0.130
2257,-0.190,-0.125
2258,-0.190,-0.120
2259,-0.185,-0.125
2260,-0.195,-0.140
2261,-0.200,-0.130
2262,-0.185,-0.130
2263,-0.180,-0.135
2264,-0.200,-0.135
2265,-0.200,-0.130
2266,-0.185,-0.135
2267,-0.185,-0.130
2268,-0.185,-0.130
2269,-0.200,-0.135
2270,-0.195,-0.130
2271,-0.185,-0.120
2272,-0.185,-0.130
2273,-0.190,-0.145
2274,-0.180,-0.135
2275,-0.170,-0.125
2276,-0.125,-0.095
2277,-0.135,-0.090
2278,-0.110,-0.055
2279,-0.075,-0.030
2280,-0.055,-0.010
2281,-0.035,-0.020
2282,-0.025,-0.030
2283,-0.025,-0.035
2284,-0.020,-0.040
2285,-0.015,-0.050
2286,-0.020,-0.070
2287,-0.045,-0.095
2288,-0.060,-0.105
2289,-0.070,-0.120
2290,-0.085,-0.120
2291,-0.105,-0.125
2292,-0.140,-0.125
2293,-0.165,-0.120
2294,-0.175,-0.120
2295,-0.185,-0.130
2296,-0.200,-0.120
2297,-0.210,-0.135
2298,-0.240,-0.170
2299,-0.250,-0.165
2300,-0.240,-0.155
2301,-0.240,-0.185
2302,-0.255,-0.175
2303,-0.255,-0.160
2304,-0.240,-0.160
2305,-0.225,-0.145
2306,-0.230,-0.145
2307,-0.255,-0.140
2308,-0.240,-0.145
2309,-0.235,-0.155
2310,-0.235,-0.150
2311,-0.235,-0.150
2312,-0.300,-0.145
2313,-0.415,-0.150
2314,-0.490,-0.130
2315,-0.500,-0.010
2316,-0.385,0.135
2317,-0.050,0.230
2318,0.445,0.290
2319,1.040,0.285
2320,1.640,0.345
2321,1.920,0.510
2322,1.590,0.140
2323,0.850,-0.590
2324,0.260,-0.840
2325,0.125,-0.835
2326,-0.205,-0.635
2327,-0.280,-0.530
2328,-0.255,-0.365
2329,-0.195,-0.210
2330,-0.155,-0.130
2331,-0.160,-0.120
2332,-0.175,-0.115
2333,-0.165,-0.095
2334,-0.155,-0.085
2335,-0.155,-0.080
2336,-0.180,-0.085
2337,-0.185,-0.085
2338,-0.170,-0.080
2339,-0.175,-0.080
2340,-0.190,-0.075
2341,-0.175,-0.075
2342,-0.155,-0.065
2343,-0.170,-0.060
2344,-0.185,-0.060
2345,-0.160,-0.065
2346,-0.150,-0.065
2347,-0.155,-0.065
2348,-0.160,-0.050
2349,-0.155,-0.045
2350,-0.150,-0.040
2351,-0.145,-0.030
2352,-0.155,-0.035
2353,-0.170,-0.040
2354,-0.155,-0.040
2355,-0.150,-0.035
2356,-0.155,-0.040
2357,-0.150,-0.040
2358,-0.135,-0.030
2359,-0.130,-0.025
2360,-0.145,-0.025
2361,-0.140,-0.020
2362,-0.115,-0.010
2363,-0.100,-0.005
2364,-0.105,0.000
2365,-0.115,0.000
2366,-0.100,0.010
2367,-0.090,0.020
2368,-0.090,0.015
2369,-0.090,0.005
2370,-0.080,0.005
2371,-0.065,0.020
2372,-0.065,0.030
2373,-0.070,0.030
2374,-0.050,0.035
2375,-0.035,0.040
2376,-0.010,0.060
2377,-0.010,0.070
2378,0.000,0.080
2379,0.000,0.095
2380,0.015,0.105
2381,0.020,0.120
2382,0.035,0.120
2383,0.075,0.125
2384,0.085,0.140
2385,0.110,0.160
2386,0.140,0.170
2387,0.160,0.180
2388,0.180,0.185
2389,0.195,0.200
2390,0.215,0.205
2391,0.255,0.210
2392,0.285,0.235
2393,0.300,0.245
2394,0.325,0.240
2395,0.345,0.240
2396,0.375,0.250
2397,0.395,0.260
2398,0.405,0.255
2399,0.405,0.240
2400,0.410,0.240
2401,0.440,0.240
2402,0.435,0.215
2403,0.425,0.215
2404,0.425,0.200
2405,0.405,0.185
2406,0.370,0.160
2407,0.345,0.130
2408,0.320,0.125
2409,0.290,0.110
2410,0.245,0.080
2411,0.195,0.065
2412,0.165,0.075
2413,0.125,0.075
2414,0.085,0.050
2415,0.045,0.030
2416,0.020,0.020
2417,0.005,0.015
2418,-0.015,0.005
2419,-0.050,0.000
2420,-0.050,-0.010
2421,-0.070,-0.015
2422,-0.085,-0.010
2423,-0.100,-0.020
2424,-0.120,-0.045
2425,-0.130,-0.050
2426,-0.140,-0.055
2427,-0.135,-0.045
2428,-0.125,-0.045
2429,-0.115,-0.040
2430,-0.135,-0.035
2431,-0.160,-0.035
2432,-0.155,-0.030
2433,-0.130,-0.035
2434,-0.130,-0.040
2435,-0.140,-0.045
2436,-0.145,-0.035
2437,-0.130,-0.030
2438,-0.130,-0.035
2439,-0.140,-0.045
2440,-0.140,-0.045
2441,-0.115,-0.040
2442,-0.105,-0.035
2443,-0.105,-0.030
2444,-0.115,-0.040
2445,-0.120,-0.040
2446,-0.100,-0.035
2447,-0.110,-0.040
2448,-0.135,-0.065
2449,-0.130,-0.065
2450,-0.125,-0.065
2451,-0.120,-0.060
2452,-0.130,-0.065
2453,-0.120,-0.070
2454,-0.105,-0.070
2455,-0.125,-0.085
2456,-0.150,-0.095
2457,-0.145,-0.095
2458,-0.135,-0.085
2459,-0.135,-0.080
2460,-0.145,-0.090
2461,-0.155,-0.090
2462,-0.150,-0.085
2463,-0.150,-0.100
2464,-0.175,-0.115
2465,-0.185,-0.105
2466,-0.160,-0.105
2467,-0.160,-0.120
2468,-0.180,-0.125
2469,-0.190,-0.120
2470,-0.165,-0.120
2471,-0.150,-0.105
2472,-0.165,-0.100
2473,-0.185,-0.125
2474,-0.180,-0.135
2475,-0.180,-0.130
2476,-0.170,-0.115
2477,-0.185,-0.125
2478,-0.190,-0.135
2479,-0.180,-0.135
2480,-0.170,-0.120
2481,-0.170,-0.120
2482,-0.185,-0.135
2483,-0.180,-0.135
2484,-0.175,-0.125
2485,-0.175,-0.125
2486,-0.180,-0.140
2487,-0.185,-0.145
2488,-0.175,-0.135
2489,-0.175,-0.130
2490,-0.195,-0.130
2491,-0.190,-0.125
2492,-0.175,-0.130
2493,-0.190,-0.135
2494,-0.200,-0.120
2495,-0.190,-0.130
2496,-0.190,-0.145
2497,-0.190,-0.145
2498,-0.190,-0.135
2499,-0.190,-0.145
2500,-0.195,-0.150
2501,-0.175,-0.120
2502,-0.195,-0.125
2503,-0.215,-0.130
2504,-0.190,-0.120
2505,-0.190,-0.135
2506,-0.200,-0.140
2507,-0.190,-0.135
2508,-0.185,-0.140
2509,-0.195,-0.145
2510,-0.195,-0.140
2511,-0.195,-0.130
2512,-0.185,-0.135
2513,-0.195,-0.140
2514,-0.200,-0.150
2515,-0.195,-0.140
2516,-0.185,-0.130
2517,-0.185,-0.135
2518,-0.190,-0.135
2519,-0.200,-0.135
2520,-0.195,-0.130
2521,-0.180,-0.125
2522,-0.200,-0.140
2523,-0.225,-0.150
2524,-0.195,-0.140
2525,-0.185,-0.135
2526,-0.190,-0.140
2527,-0.195,-0.145
2528,-0.200,-0.140
2529,-0.180,-0.130
2530,-0.185,-0.125
2531,-0.205,-0.145
2532,-0.210,-0.145
2533,-0.190,-0.130
2534,-0.190,-0.130
2535,-0.210,-0.140
2536,-0.215,-0.145
2537,-0.195,-0.130
2538,-0.185,-0.130
2539,-0.190,-0.140
2540,-0.205,-0.145
2541,-0.175,-0.140
2542,-0.180,-0.135
2543,-0.205,-0.130
2544,-0.210,-0.135
2545,-0.195,-0.145
2546,-0.185,-0.130
2547,-0.185,-0.125
2548,-0.185,-0.135
2549,-0.180,-0.110
2550,-0.170,-0.095
2551,-0.095,-0.040
2552,-0.095,-0.045
2553,-0.080,-0.035
2554,-0.040,-0.030
2555,-0.030,-0.030
2556,-0.035,-0.040
2557,-0.030,-0.065
2558,-0.020,-0.070
2559,-0.040,-0.075
2560,-0.080,-0.085
2561,-0.095,-0.090
2562,-0.090,-0.100
2563,-0.105,-0.115
2564,-0.150,-0.125
2565,-0.180,-0.120
2566,-0.175,-0.105
2567,-0.180,-0.130
2568,-0.220,-0.145
2569,-0.240,-0.155
2570,-0.235,-0.160
2571,-0.240,-0.160
2572,-0.255,-0.170
2573,-0.255,-0.170
2574,-0.260,-0.170
2575,-0.260,-0.175
2576,-0.260,-0.170
2577,-0.260,-0.160
2578,-0.265,-0.175
2579,-0.255,-0.175
2580,-0.235,-0.160
2581,-0.255,-0.155
2582,-0.265,-0.170
2583,-0.255,-0.160
2584,-0.265,-0.155
2585,-0.350,-0.160
2586,-0.465,-0.170
2587,-0.515,-0.110
2588,-0.510,0.070
2589,-0.350,0.265
2590,0.015,0.410
2591,0.560,0.500
2592,1.190,0.480
2593,1.830,0.605
2594,2.080,0.700
2595,1.660,0.105
2596,0.825,-0.680
2597,0.205,-0.840
2598,-0.090,-0.750
2599,-0.300,-0.715
2600,-0.355,-0.695
2601,-0.370,-0.445
2602,-0.295,-0.310
2603,-0.235,-0.200
2604,-0.195,-0.140
2605,-0.195,-0.130
2606,-0.220,-0.125
2607,-0.215,-0.115
2608,-0.205,-0.120
2609,-0.215,-0.120
2610,-0.215,-0.105
2611,-0.205,-0.100
2612,-0.200,-0.095
2613,-0.210,-0.085
2614,-0.210,-0.090
2615,-0.215,-0.095
2616,-0.200,-0.090
2617,-0.185,-0.085
2618,-0.185,-0.080
2619,-0.200,-0.075
2620,-0.195,-0.075
2621,-0.190,-0.085
2622,-0.200,-0.085
2623,-0.190,-0.080
2624,-0.185,-0.080
2625,-0.190,-0.075
2626,-0.190,-0.060
2627,-0.190,-0.075
2628,-0.200,-0.080
2629,-0.180,-0.055
2630,-0.175,-0.050
2631,-0.185,-0.065
2632,-0.185,-0.065
2633,-0.165,-0.045
2634,-0.155,-0.040
2635,-0.160,-0.045
2636,-0.160,-0.045
2637,-0.150,-0.035
2638,-0.140,-0.025
2639,-0.140,-0.040
2640,-0.155,-0.050
2641,-0.135,-0.030
2642,-0.110,-0.015
2643,-0.120,-0.015
2644,-0.140,-0.020
2645,-0.120,-0.015
2646,-0.090,0.000
2647,-0.080,0.000
2648,-0.070,0.000
2649,-0.045,0.010
2650,-0.035,0.015
2651,-0.015,0.035
2652,-0.010,0.040
2653,-0.005,0.040
2654,0.005,0.045
2655,0.020,0.070
2656,0.030,0.080
2657,0.065,0.095
2658,0.095,0.110
2659,0.110,0.120
2660,0.130,0.120
2661,0.155,0.135
2662,0.200,0.155
2663,0.235,0.170
2664,0.255,0.160
2665,0.265,0.155
2666,0.295,0.190
2667,0.330,0.205
2668,0.345,0.185
2669,0.360,0.185
2670,0.390,0.205
2671,0.410,0.200
2672,0.420,0.195
2673,0.430,0.190
2674,0.430,0.175
2675,0.430,0.180
2676,0.440,0.170
2677,0.410,0.160
2678,0.390,0.150
2679,0.395,0.130
2680,0.360,0.115
2681,0.300,0.090
2682,0.255,0.095
2683,0.235,0.100
2684,0.205,0.085
2685,0.155,0.070
2686,0.095,0.040
2687,0.045,0.030
2688,0.020,0.030
2689,-0.005,0.010
2690,-0.040,0.005
2691,-0.055,-0.005
2692,-0.070,-0.010
2693,-0.100,-0.020
2694,-0.115,-0.035
2695,-0.110,-0.035
2696,-0.115,-0.040
2697,-0.145,-0.035
2698,-0.160,-0.040
2699,-0.155,-0.055
2700,-0.150,-0.060
2701,-0.160,-0.065
2702,-0.170,-0.055
2703,-0.155,-0.060
2704,-0.150,-0.060
2705,-0.170,-0.060
2706,-0.165,-0.050
2707,-0.140,-0.060
2708,-0.135,-0.055
2709,-0.140,-0.035
2710,-0.140,-0.030
2711,-0.140,-0.040
2712,-0.140,-0.050
2713,-0.135,-0.050
2714,-0.135,-0.045
2715,-0.140,-0.050
2716,-0.125,-0.045
2717,-0.105,-0.040
2718,-0.110,-0.040
2719,-0.125,-0.050
2720,-0.130,-0.050
2721,-0.110,-0.040
2722,-0.120,-0.050
2723,-0.140,-0.075
2724,-0.150,-0.085
2725,-0.145,-0.080
2726,-0.125,-0.065
2727,-0.140,-0.080
2728,-0.150,-0.095
2729,-0.145,-0.085
2730,-0.140,-0.075
2731,-0.145,-0.085
2732,-0.155,-0.095
2733,-0.150,-0.080
2734,-0.150,-0.075
2735,-0.160,-0.100
2736,-0.175,-0.120
2737,-0.175,-0.120
2738,-0.160,-0.105
2739,-0.155,-0.105
2740,-0.175,-0.115
2741,-0.175,-0.115
2742,-0.160,-0.105
2743,-0.165,-0.110
2744,-0.155,-0.120
2745,-0.165,-0.120
2746,-0.170,-0.115
2747,-0.170,-0.120
2748,-0.175,-0.125
2749,-0.180,-0.125
2750,-0.175,-0.120
2751,-0.175,-0.115
2752,-0.185,-0.130
2753,-0.185,-0.135
2754,-0.160,-0.120
2755,-0.170,-0.125
2756,-0.190,-0.135
2757,-0.180,-0.140
2758,-0.155,-0.130
2759,-0.170,-0.130
2760,-0.185,-0.130
2761,-0.180,-0.130
2762,-0.170,-0.130
2763,-0.180,-0.110
2764,-0.185,-0.105
2765,-0.180,-0.130
2766,-0.190,-0.135
2767,-0.185,-0.115
2768,-0.175,-0.120
2769,-0.190,-0.145
2770,-0.190,-0.145
2771,-0.160,-0.130
2772,-0.170,-0.125
2773,-0.200,-0.140
2774,-0.190,-0.135
2775,-0.180,-0.130
2776,-0.175,-0.120
2777,-0.195,-0.125
2778,-0.190,-0.120
2779,-0.185,-0.125
2780,-0.185,-0.125
2781,-0.190,-0.120
2782,-0.175,-0.130
2783,-0.175,-0.140
2784,-0.180,-0.145
2785,-0.185,-0.130
2786,-0.185,-0.130
2787,-0.185,-0.135
2788,-0.180,-0.125
2789,-0.170,-0.125
2790,-0.180,-0.135
2791,-0.180,-0.115
2792,-0.170,-0.110
2793,-0.180,-0.125
2794,-0.190,-0.135
2795,-0.180,-0.120
2796,-0.160,-0.105
2797,-0.180,-0.135
2798,-0.195,-0.140
2799,-0.185,-0.130
2800,-0.175,-0.125
2801,-0.180,-0.130
2802,-0.190,-0.135
2803,-0.170,-0.130
2804,-0.155,-0.130
2805,-0.170,-0.120
2806,-0.175,-0.125
2807,-0.185,-0.135
2808,-0.160,-0.125
2809,-0.150,-0.110
2810,-0.165,-0.115
2811,-0.175,-0.130
2812,-0.155,-0.135
2813,-0.150,-0.120
2814,-0.160,-0.115
2815,-0.175,-0.130
2816,-0.160,-0.130
2817,-0.155,-0.125
2818,-0.155,-0.120
2819,-0.170,-0.120
2820,-0.155,-0.125
2821,-0.140,-0.120
2822,-0.165,-0.120
2823,-0.175,-0.130
2824,-0.155,-0.130
2825,-0.150,-0.125
2826,-0.115,-0.100
2827,-0.105,-0.075
2828,-0.065,-0.040
2829,-0.030,-0.015
2830,-0.015,0.000
2831,-0.005,0.000
2832,0.005,-0.010
2833,0.005,-0.015
2834,0.010,-0.025
2835,0.010,-0.040
2836,0.005,-0.060
2837,-0.005,-0.080
2838,-0.030,-0.085
2839,-0.050,-0.095
2840,-0.065,-0.110
2841,-0.085,-0.120
2842,-0.105,-0.115
2843,-0.130,-0.105
2844,-0.150,-0.105
2845,-0.155,-0.115
2846,-0.160,-0.115
2847,-0.180,-0.120
2848,-0.200,-0.145
2849,-0.210,-0.145
2850,-0.215,-0.140
2851,-0.210,-0.140
2852,-0.225,-0.155
2853,-0.235,-0.160
2854,-0.215,-0.145
2855,-0.210,-0.135
2856,-0.220,-0.145
2857,-0.215,-0.145
2858,-0.195,-0.130
2859,-0.195,-0.125
2860,-0.210,-0.140
2861,-0.220,-0.145
2862,-0.255,-0.130
2863,-0.355,-0.140
2864,-0.450,-0.145
2865,-0.480,-0.045
2866,-0.400,0.120
2867,-0.110,0.255
2868,0.350,0.340
2869,0.925,0.320
2870,1.535,0.360
2871,1.935,0.530
2872,1.770,0.330
2873,1.085,-0.400
2874,0.405,-0.800
2875,0.235,-0.835
2876,-0.160,-0.655
2877,-0.270,-0.570
2878,-0.255,-0.405
2879,-0.175,-0.245
2880,-0.145,-0.155
2881,-0.145,-0.130
2882,-0.150,-0.105
2883,-0.140,-0.095
2884,-0.140,-0.085
2885,-0.165,-0.085
2886,-0.165,-0.075
2887,-0.155,-0.065
2888,-0.165,-0.070
2889,-0.175,-0.070
2890,-0.165,-0.065
2891,-0.145,-0.060
2892,-0.145,-0.065
2893,-0.155,-0.065
2894,-0.170,-0.045
2895,-0.160,-0.040
2896,-0.150,-0.050
2897,-0.165,-0.060
2898,-0.170,-0.050
2899,-0.145,-0.045
2900,-0.140,-0.040
2901,-0.140,-0.030
2902,-0.150,-0.020
2903,-0.145,-0.020
2904,-0.120,-0.020
2905,-0.125,-0.020
2906,-0.130,-0.030
2907,-0.130,-0.025
2908,-0.120,-0.010
2909,-0.110,-0.010
2910,-0.120,-0.020
2911,-0.130,-0.025
2912,-0.115,-0.015
2913,-0.100,-0.005
2914,-0.100,0.000
2915,-0.100,-0.005
2916,-0.085,0.000
2917,-0.070,0.000
2918,-0.070,0.000
2919,-0.090,0.005
2920,-0.075,0.005
2921,-0.055,0.010
2922,-0.050,0.020
2923,-0.050,0.020
2924,-0.030,0.030
2925,-0.025,0.040
2926,-0.005,0.075
2927,0.000,0.080
2928,0.010,0.080
2929,0.025,0.090
2930,0.035,0.100
2931,0.045,0.095
2932,0.055,0.095
2933,0.085,0.115
2934,0.110,0.140
2935,0.135,0.150
2936,0.150,0.150
2937,0.170,0.160
2938,0.200,0.195
2939,0.225,0.205
2940,0.235,0.195
2941,0.275,0.210
2942,0.310,0.230
2943,0.320,0.230
2944,0.335,0.225
2945,0.370,0.240
2946,0.385,0.250
2947,0.400,0.250
2948,0.405,0.240
2949,0.430,0.235
2950,0.440,0.240
2951,0.460,0.225
2952,0.450,0.215
2953,0.460,0.210
2954,0.455,0.195
2955,0.430,0.170
2956,0.405,0.150
2957,0.390,0.140
2958,0.365,0.130
2959,0.330,0.105
2960,0.275,0.075
2961,0.215,0.055
2962,0.195,0.070
2963,0.170,0.070
2964,0.130,0.040
2965,0.095,0.030
2966,0.070,0.030
2967,0.045,0.030
2968,0.020,0.015
2969,-0.010,0.000
2970,-0.030,-0.005
2971,-0.035,-0.015
2972,-0.065,-0.030
2973,-0.090,-0.045
2974,-0.095,-0.055
2975,-0.100,-0.050
2976,-0.090,-0.040
2977,-0.100,-0.040
2978,-0.100,-0.035
2979,-0.090,-0.035
2980,-0.100,-0.040
2981,-0.105,-0.035
2982,-0.105,-0.025
2983,-0.100,-0.020
2984,-0.100,-0.025
2985,-0.115,-0.040
2986,-0.115,-0.045
2987,-0.105,-0.050
2988,-0.100,-0.035
2989,-0.100,-0.030
2990,-0.100,-0.035
2991,-0.090,-0.040
2992,-0.085,-0.035
2993,-0.095,-0.030
2994,-0.090,-0.035
2995,-0.090,-0.035
2996,-0.075,-0.025
2997,-0.085,-0.035
2998,-0.100,-0.050
2999,-0.095,-0.060
3000,-0.090,-0.065
3001,-0.085,-0.065
3002,-0.095,-0.065
3003,-0.095,-0.075
3004,-0.090,-0.055
3005,-0.090,-0.050
3006,-0.105,-0.070
3007,-0.115,-0.090
3008,-0.110,-0.090
3009,-0.105,-0.095
3010,-0.105,-0.100
3011,-0.105,-0.095
3012,-0.100,-0.090
3013,-0.105,-0.100
3014,-0.140,-0.120
3015,-0.140,-0.120
3016,-0.125,-0.100
3017,-0.115,-0.105
3018,-0.135,-0.115
3019,-0.150,-0.130
3020,-0.130,-0.130
3021,-0.110,-0.115
3022,-0.125,-0.115
3023,-0.145,-0.130
3024,-0.145,-0.135
3025,-0.140,-0.130
3026,-0.125,-0.120
3027,-0.145,-0.120
3028,-0.150,-0.135
3029,-0.145,-0.140
3030,-0.135,-0.125
3031,-0.140,-0.130
3032,-0.155,-0.135
3033,-0.145,-0.130
3034,-0.140,-0.130
3035,-0.140,-0.130
3036,-0.150,-0.140
3037,-0.150,-0.135
3038,-0.140,-0.130
3039,-0.145,-0.130
3040,-0.155,-0.130
3041,-0.155,-0.130
3042,-0.150,-0.135
3043,-0.145,-0.135
3044,-0.160,-0.140
3045,-0.165,-0.140
3046,-0.155,-0.130
3047,-0.165,-0.135
3048,-0.175,-0.140
3049,-0.155,-0.130
3050,-0.145,-0.130
3051,-0.160,-0.140
3052,-0.175,-0.145
3053,-0.170,-0.140
3054,-0.145,-0.130
3055,-0.150,-0.135
3056,-0.170,-0.140
3057,-0.170,-0.140
3058,-0.160,-0.135
3059,-0.155,-0.135
3060,-0.170,-0.140
3061,-0.175,-0.145
3062,-0.150,-0.135
3063,-0.150,-0.135
3064,-0.170,-0.150
3065,-0.165,-0.145
3066,-0.150,-0.140
3067,-0.165,-0.140
3068,-0.180,-0.140
3069,-0.170,-0.140
3070,-0.150,-0.140
3071,-0.150,-0.130
3072,-0.170,-0.140
3073,-0.180,-0.150
3074,-0.165,-0.140
3075,-0.155,-0.135
3076,-0.150,-0.130
3077,-0.155,-0.130
3078,-0.160,-0.140
3079,-0.160,-0.135
3080,-0.170,-0.135
3081,-0.165,-0.145
3082,-0.160,-0.145
3083,-0.150,-0.130
3084,-0.150,-0.125
3085,-0.170,-0.140
3086,-0.160,-0.145
3087,-0.150,-0.135
3088,-0.155,-0.130
3089,-0.175,-0.140
3090,-0.180,-0.145
3091,-0.170,-0.135
3092,-0.155,-0.130
3093,-0.145,-0.140
3094,-0.160,-0.150
3095,-0.165,-0.140
3096,-0.155,-0.130
3097,-0.155,-0.140
3098,-0.175,-0.150
3099,-0.165,-0.140
3100,-0.155,-0.130
3101,-0.155,-0.135
3102,-0.165,-0.145
3103,-0.170,-0.150
3104,-0.140,-0.125
3105,-0.125,-0.105
3106,-0.120,-0.090
3107,-0.090,-0.075
3108,-0.065,-0.045
3109,-0.040,-0.025
3110,-0.020,-0.020
3111,-0.015,-0.035
3112,-0.005,-0.040
3113,0.000,-0.040
3114,0.000,-0.075
3115,-0.010,-0.105
3116,-0.035,-0.120
3117,-0.050,-0.115
3118,-0.065,-0.105
3119,-0.070,-0.105
3120,-0.085,-0.105
3121,-0.115,-0.105
3122,-0.150,-0.120
3123,-0.175,-0.130
3124,-0.175,-0.130
3125,-0.170,-0.135
3126,-0.205,-0.160
3127,-0.220,-0.170
3128,-0.215,-0.180
3129,-0.215,-0.185
3130,-0.225,-0.175
3131,-0.230,-0.175
3132,-0.225,-0.175
3133,-0.215,-0.170
3134,-0.210,-0.160
3135,-0.230,-0.160
3136,-0.230,-0.155
3137,-0.210,-0.160
3138,-0.205,-0.150
3139,-0.220,-0.150
3140,-0.245,-0.175
3141,-0.285,-0.160
3142,-0.395,-0.150
3143,-0.475,-0.130
3144,-0.495,-0.005
3145,-0.375,0.205
3146,-0.070,0.360
3147,0.420,0.460
3148,1.000,0.465
3149,1.655,0.535
3150,1.860,0.590
3151,1.885,0.375
3152,1.090,-0.510
3153,0.375,-0.860
3154,0.035,-0.770
3155,-0.180,-0.705
3156,-0.345,-0.645
3157,-0.345,-0.500
3158,-0.260,-0.340
3159,-0.205,-0.215
3160,-0.160,-0.160
3161,-0.150,-0.140
3162,-0.170,-0.120
3163,-0.170,-0.100
3164,-0.175,-0.100
3165,-0.180,-0.105
3166,-0.175,-0.080
3167,-0.155,-0.075
3168,-0.155,-0.095
3169,-0.180,-0.105
3170,-0.180,-0.095
3171,-0.150,-0.075
3172,-0.155,-0.070
3173,-0.175,-0.080
3174,-0.165,-0.070
3175,-0.155,-0.065
3176,-0.165,-0.075
3177,-0.180,-0.085
3178,-0.170,-0.085
3179,-0.145,-0.070
3180,-0.145,-0.065
3181,-0.150,-0.065
3182,-0.155,-0.060
3183,-0.140,-0.050
3184,-0.135,-0.060
3185,-0.150,-0.065
3186,-0.155,-0.065
3187,-0.140,-0.045
3188,-0.120,-0.035
3189,-0.110,-0.035
3190,-0.125,-0.040
3191,-0.125,-0.030
3192,-0.115,-0.030
3193,-0.120,-0.025
3194,-0.135,-0.015
3195,-0.115,-0.030
3196,-0.100,-0.040
3197,-0.105,-0.030
3198,-0.095,-0.020
3199,-0.065,-0.005
3200,-0.055,0.000
3201,-0.055,0.010
3202,-0.070,0.000
3203,-0.070,0.000
3204,-0.055,0.000
3205,-0.045,0.015
3206,-0.030,0.020
3207,-0.005,0.025
3208,0.010,0.045
3209,0.020,0.060
3210,0.040,0.070
3211,0.065,0.080
3212,0.095,0.100
3213,0.105,0.115
3214,0.105,0.115
3215,0.130,0.115
3216,0.170,0.140
3217,0.200,0.165
3218,0.220,0.175
3219,0.250,0.175
3220,0.280,0.180
3221,0.310,0.195
3222,0.330,0.200
3223,0.345,0.195
3224,0.390,0.210
3225,0.405,0.215
3226,0.405,0.225
3227,0.425,0.230
3228,0.450,0.215
3229,0.475,0.225
3230,0.475,0.215
3231,0.465,0.200
3232,0.470,0.185
3233,0.475,0.190
3234,0.470,0.180
3235,0.430,0.150
3236,0.395,0.140
3237,0.370,0.140
3238,0.330,0.130
3239,0.280,0.100
3240,0.235,0.080
3241,0.200,0.075
3242,0.170,0.075
3243,0.100,0.045
3244,0.050,0.030
3245,0.025,0.025
3246,0.015,0.020
3247,-0.010,0.010
3248,-0.035,0.000
3249,-0.050,-0.005
3250,-0.050,-0.010
3251,-0.090,-0.020
3252,-0.100,-0.035
3253,-0.100,-0.045
3254,-0.105,-0.040
3255,-0.120,-0.050
3256,-0.145,-0.055
3257,-0.130,-0.060
3258,-0.110,-0.040
3259,-0.105,-0.035
3260,-0.115,-0.060
3261,-0.130,-0.065
3262,-0.120,-0.045
3263,-0.105,-0.035
3264,-0.110,-0.040
3265,-0.125,-0.045
3266,-0.125,-0.045
3267,-0.115,-0.040
3268,-0.110,-0.035
3269,-0.090,-0.040
3270,-0.090,-0.040
3271,-0.080,-0.040
3272,-0.110,-0.035
3273,-0.115,-0.035
3274,-0.095,-0.035
3275,-0.090,-0.035
3276,-0.100,-0.040
3277,-0.100,-0.060
3278,-0.105,-0.070
3279,-0.095,-0.055
3280,-0.100,-0.050
3281,-0.115,-0.060
3282,-0.105,-0.065
3283,-0.105,-0.065
3284,-0.105,-0.070
3285,-0.125,-0.085
3286,-0.130,-0.095
3287,-0.105,-0.080
3288,-0.095,-0.075
3289,-0.115,-0.090
3290,-0.135,-0.105
3291,-0.125,-0.105
3292,-0.115,-0.100
3293,-0.115,-0.095
3294,-0.135,-0.105
3295,-0.135,-0.110
3296,-0.135,-0.100
3297,-0.140,-0.095
3298,-0.150,-0.105
3299,-0.140,-0.110
3300,-0.140,-0.105
3301,-0.145,-0.095
3302,-0.150,-0.115
3303,-0.155,-0.125
3304,-0.155,-0.110
3305,-0.150,-0.095
3306,-0.155,-0.110
3307,-0.160,-0.135
3308,-0.155,-0.130
3309,-0.150,-0.105
3310,-0.150,-0.110
3311,-0.155,-0.130
3312,-0.155,-0.140
3313,-0.150,-0.125
3314,-0.150,-0.115
3315,-0.155,-0.130
3316,-0.160,-0.145
3317,-0.170,-0.140
3318,-0.165,-0.130
3319,-0.155,-0.130
3320,-0.155,-0.140
3321,-0.170,-0.140
3322,-0.160,-0.130
3323,-0.160,-0.130
3324,-0.155,-0.135
3325,-0.155,-0.140
3326,-0.155,-0.130
3327,-0.155,-0.135
3328,-0.150,-0.140
3329,-0.150,-0.135
3330,-0.155,-0.130
3331,-0.155,-0.130
3332,-0.155,-0.135
3333,-0.155,-0.130
3334,-0.155,-0.125
3335,-0.150,-0.125
3336,-0.150,-0.130
3337,-0.150,-0.125
3338,-0.150,-0.120
3339,-0.150,-0.120
3340,-0.150,-0.130
3341,-0.155,-0.125
3342,-0.150,-0.115
3343,-0.155,-0.115
3344,-0.155,-0.130
3345,-0.155,-0.130
3346,-0.150,-0.115
3347,-0.150,-0.110
3348,-0.150,-0.125
3349,-0.155,-0.135
3350,-0.150,-0.135
3351,-0.145,-0.105
3352,-0.145,-0.125
3353,-0.150,-0.140
3354,-0.155,-0.125
3355,-0.150,-0.115
3356,-0.145,-0.115
3357,-0.145,-0.130
3358,-0.145,-0.130
3359,-0.145,-0.125
3360,-0.150,-0.120
3361,-0.155,-0.120
3362,-0.150,-0.130
3363,-0.150,-0.135
3364,-0.150,-0.120
3365,-0.145,-0.120
3366,-0.140,-0.130
3367,-0.140,-0.130
3368,-0.145,-0.125
3369,-0.150,-0.125
3370,-0.140,-0.125
3371,-0.135,-0.125
3372,-0.145,-0.130
3373,-0.150,-0.130
3374,-0.135,-0.125
3375,-0.130,-0.120
3376,-0.140,-0.140
3377,-0.145,-0.135
3378,-0.110,-0.110
3379,-0.070,-0.075
3380,-0.060,-0.045
3381,-0.050,-0.030
3382,-0.035,-0.025
3383,-0.005,-0.010
3384,0.010,-0.005
3385,0.010,-0.025
3386,0.000,-0.040
3387,0.035,-0.050
3388,0.050,-0.050
3389,0.030,-0.070
3390,-0.005,-0.085
3391,-0.020,-0.090
3392,-0.025,-0.095
3393,-0.045,-0.110
3394,-0.070,-0.115
3395,-0.090,-0.105
3396,-0.110,-0.100
3397,-0.140,-0.110
3398,-0.150,-0.130
3399,-0.150,-0.135
3400,-0.150,-0.135
3401,-0.185,-0.140
3402,-0.195,-0.150
3403,-0.190,-0.155
3404,-0.190,-0.140
3405,-0.185,-0.135
3406,-0.205,-0.155
3407,-0.210,-0.155
3408,-0.180,-0.140
3409,-0.175,-0.140
3410,-0.200,-0.155
3411,-0.195,-0.160
3412,-0.175,-0.145
3413,-0.180,-0.140
3414,-0.230,-0.145
3415,-0.315,-0.145
3416,-0.410,-0.150
3417,-0.440,-0.070
3418,-0.425,0.080
3419,-0.205,0.220
3420,0.205,0.320
3421,0.755,0.355
3422,1.360,0.350
3423,1.870,0.485
3424,1.920,0.485
3425,1.845,0.395
3426,0.625,-0.750
3427,0.120,-0.820
3428,-0.095,-0.720
3429,-0.215,-0.615
3430,-0.255,-0.470
3431,-0.215,-0.320
3432,-0.160,-0.185
3433,-0.120,-0.125
3434,-0.120,-0.110
3435,-0.145,-0.105
3436,-0.155,-0.100
3437,-0.130,-0.085
3438,-0.135,-0.080
3439,-0.150,-0.085
3440,-0.150,-0.085
3441,-0.135,-0.075
3442,-0.125,-0.070
3443,-0.130,-0.065
3444,-0.140,-0.070
3445,-0.140,-0.055
3446,-0.125,-0.045
3447,-0.130,-0.060
3448,-0.145,-0.075
3449,-0.140,-0.070
3450,-0.135,-0.065
3451,-0.115,-0.050
3452,-0.120,-0.045
3453,-0.125,-0.040
3454,-0.115,-0.035
3455,-0.110,-0.020
3456,-0.115,-0.020
3457,-0.115,-0.035
3458,-0.105,-0.045
3459,-0.110,-0.045
3460,-0.115,-0.035
3461,-0.105,-0.030
3462,-0.085,-0.020
3463,-0.080,-0.010
3464,-0.115,-0.020
3465,-0.125,-0.025
3466,-0.095,-0.010
3467,-0.075,-0.005
3468,-0.070,0.000
3469,-0.075,0.000
3470,-0.070,0.005
3471,-0.055,0.010
3472,-0.060,0.015
3473,-0.065,0.015
3474,-0.045,0.020
3475,-0.035,0.025
3476,-0.030,0.030
3477,-0.030,0.035
3478,-0.015,0.045
3479,0.015,0.050
3480,0.015,0.065
3481,0.015,0.070
3482,0.035,0.085
3483,0.070,0.100
3484,0.085,0.110
3485,0.105,0.120
3486,0.120,0.135
3487,0.135,0.150
3488,0.160,0.165
3489,0.175,0.170
3490,0.205,0.180
3491,0.235,0.195
3492,0.265,0.210
3493,0.275,0.200
3494,0.280,0.220
3495,0.330,0.235
3496,0.365,0.230
3497,0.385,0.235
3498,0.395,0.245
3499,0.415,0.250
3500,0.430,0.250
3501,0.445,0.250
3502,0.445,0.240
3503,0.460,0.235
3504,0.475,0.240
3505,0.475,0.230
3506,0.465,0.205
3507,0.460,0.175
3508,0.435,0.165
3509,0.410,0.165
3510,0.380,0.135
3511,0.345,0.110
3512,0.330,0.095
3513,0.280,0.085
3514,0.220,0.080
3515,0.180,0.065
3516,0.150,0.060
3517,0.130,0.060
3518,0.080,0.040
3519,0.030,0.030
3520,0.020,0.020
3521,0.000,0.015
3522,-0.015,0.010
3523,-0.035,0.000
3524,-0.045,-0.005
3525,-0.045,-0.010
3526,-0.070,-0.025
3527,-0.095,-0.045
3528,-0.110,-0.060
3529,-0.105,-0.055
3530,-0.105,-0.040
3531,-0.105,-0.040
3532,-0.090,-0.040
3533,-0.075,-0.040
3534,-0.085,-0.035
3535,-0.100,-0.035
3536,-0.100,-0.025
3537,-0.090,-0.020
3538,-0.085,-0.020
3539,-0.100,-0.025
3540,-0.100,-0.035
3541,-0.095,-0.040
3542,-0.090,-0.035
3543,-0.100,-0.030
3544,-0.100,-0.040
3545,-0.075,-0.035
3546,-0.065,-0.030
3547,-0.080,-0.030
3548,-0.075,-0.040
3549,-0.070,-0.040
3550,-0.075,-0.035
3551,-0.090,-0.030
3552,-0.100,-0.040
3553,-0.085,-0.050
3554,-0.070,-0.045
3555,-0.085,-0.065
3556,-0.105,-0.080
3557,-0.105,-0.085
3558,-0.100,-0.070
3559,-0.100,-0.065
3560,-0.110,-0.070
3561,-0.110,-0.075
3562,-0.100,-0.085
3563,-0.105,-0.090
3564,-0.130,-0.090
3565,-0.130,-0.095
3566,-0.115,-0.090
3567,-0.115,-0.085
3568,-0.135,-0.110
3569,-0.150,-0.125
3570,-0.130,-0.110
3571,-0.105,-0.095
3572,-0.110,-0.100
3573,-0.130,-0.120
3574,-0.140,-0.120
3575,-0.140,-0.120
3576,-0.125,-0.115
3577,-0.140,-0.115
3578,-0.145,-0.120
3579,-0.140,-0.120
3580,-0.135,-0.120
3581,-0.135,-0.120
3582,-0.140,-0.125
3583,-0.145,-0.125
3584,-0.150,-0.125
3585,-0.145,-0.125
3586,-0.150,-0.130
3587,-0.145,-0.120
3588,-0.140,-0.120
3589,-0.150,-0.130
3590,-0.150,-0.125
3591,-0.150,-0.105
3592,-0.150,-0.110
3593,-0.165,-0.130
3594,-0.175,-0.135
3595,-0.160,-0.120
3596,-0.150,-0.105
3597,-0.155,-0.130
3598,-0.170,-0.140
3599,-0.165,-0.130
3600,-0.160,-0.120
3601,-0.165,-0.130
3602,-0.175,-0.145
3603,-0.175,-0.145
3604,-0.160,-0.120
3605,-0.160,-0.120
3606,-0.180,-0.145
3607,-0.185,-0.150
3608,-0.165,-0.125
3609,-0.150,-0.120
3610,-0.175,-0.140
3611,-0.190,-0.150
3612,-0.160,-0.135
3613,-0.150,-0.125
3614,-0.175,-0.140
3615,-0.180,-0.145
3616,-0.145,-0.130
3617,-0.140,-0.125
3618,-0.155,-0.135
3619,-0.180,-0.140
3620,-0.160,-0.135
3621,-0.145,-0.130
3622,-0.160,-0.130
3623,-0.175,-0.125
3624,-0.165,-0.125
3625,-0.155,-0.125
3626,-0.175,-0.125
3627,-0.185,-0.120
3628,-0.175,-0.120
3629,-0.165,-0.130
3630,-0.185,-0.135
3631,-0.185,-0.135
3632,-0.155,-0.130
3633,-0.150,-0.130
3634,-0.165,-0.135
3635,-0.170,-0.130
3636,-0.175,-0.125
3637,-0.160,-0.140
3638,-0.155,-0.145
3639,-0.170,-0.140
3640,-0.155,-0.135
3641,-0.155,-0.135
3642,-0.155,-0.130
3643,-0.155,-0.135
3644,-0.155,-0.140
3645,-0.155,-0.135
3646,-0.140,-0.115
3647,-0.120,-0.090
3648,-0.090,-0.075
3649,-0.065,-0.065
3650,-0.060,-0.065
3651,-0.065,-0.050
3652,-0.065,-0.045
3653,-0.050,-0.040
3654,-0.035,-0.040
3655,-0.050,-0.045
3656,-0.045,-0.070
3657,-0.025,-0.085
3658,-0.025,-0.080
3659,-0.010,-0.075
3660,-0.005,-0.090
3661,-0.015,-0.090
3662,-0.025,-0.090
3663,-0.060,-0.120
3664,-0.090,-0.135
3665,-0.100,-0.115
3666,-0.105,-0.090
3667,-0.115,-0.095
3668,-0.135,-0.120
3669,-0.160,-0.135
3670,-0.180,-0.135
3671,-0.190,-0.135
3672,-0.215,-0.150
3673,-0.240,-0.170
3674,-0.225,-0.160
3675,-0.215,-0.160
3676,-0.225,-0.175
3677,-0.235,-0.175
3678,-0.225,-0.160
3679,-0.220,-0.160
3680,-0.225,-0.160
3681,-0.235,-0.160
3682,-0.235,-0.150
3683,-0.225,-0.155
3684,-0.230,-0.155
3685,-0.250,-0.145
3686,-0.305,-0.140
3687,-0.410,-0.150
3688,-0.470,-0.110
3689,-0.495,0.025
3690,-0.355,0.205
3691,-0.040,0.350
3692,0.480,0.460
3693,1.095,0.460
3694,1.730,0.545
3695,2.100,0.710
3696,1.775,0.245
3697,0.930,-0.595
3698,0.275,-0.885
3699,-0.020,-0.770
3700,-0.090,-0.735
3701,-0.350,-0.605
3702,-0.340,-0.465
3703,-0.280,-0.315
3704,-0.195,-0.195
3705,-0.170,-0.145
3706,-0.190,-0.140
3707,-0.175,-0.120
3708,-0.165,-0.100
3709,-0.180,-0.095
3710,-0.185,-0.095
3711,-0.175,-0.090
3712,-0.170,-0.085
3713,-0.185,-0.080
3714,-0.190,-0.075
3715,-0.185,-0.075
3716,-0.185,-0.080
3717,-0.180,-0.075
3718,-0.175,-0.070
3719,-0.185,-0.075
3720,-0.175,-0.070
3721,-0.155,-0.050
3722,-0.150,-0.060
3723,-0.175,-0.065
3724,-0.175,-0.060
3725,-0.170,-0.050
3726,-0.165,-0.055
3727,-0.175,-0.065
3728,-0.160,-0.050
3729,-0.135,-0.045
3730,-0.140,-0.045
3731,-0.165,-0.035
3732,-0.170,-0.025
3733,-0.135,-0.020
3734,-0.135,-0.025
3735,-0.155,-0.040
3736,-0.155,-0.030
3737,-0.140,-0.010
3738,-0.120,-0.010
3739,-0.125,-0.030
3740,-0.135,-0.030
3741,-0.115,-0.015
3742,-0.110,0.000
3743,-0.105,0.005
3744,-0.100,0.000
3745,-0.105,-0.005
3746,-0.085,0.000
3747,-0.080,0.010
3748,-0.070,0.020
3749,-0.050,0.025
3750,-0.045,0.035
3751,-0.030,0.070
3752,-0.020,0.065
3753,-0.015,0.065
3754,0.010,0.085
3755,0.030,0.095
3756,0.050,0.100
3757,0.070,0.105
3758,0.090,0.125
3759,0.105,0.145
3760,0.135,0.160
3761,0.165,0.165
3762,0.195,0.180
3763,0.225,0.205
3764,0.250,0.215
3765,0.275,0.230
3766,0.305,0.250
3767,0.335,0.250
3768,0.370,0.255
3769,0.385,0.260
3770,0.400,0.265
3771,0.420,0.285
3772,0.435,0.270
3773,0.445,0.265
3774,0.460,0.270
3775,0.475,0.270
3776,0.455,0.265
3777,0.440,0.250
3778,0.460,0.240
3779,0.455,0.235
3780,0.425,0.205
3781,0.375,0.190
3782,0.355,0.175
3783,0.330,0.155
3784,0.270,0.135
3785,0.200,0.105
3786,0.155,0.110
3787,0.130,0.115
3788,0.080,0.090
3789,0.045,0.065
3790,0.010,0.040
3791,-0.015,0.030
3792,-0.030,0.020
3793,-0.065,0.005
3794,-0.090,-0.015
3795,-0.100,-0.020
3796,-0.095,-0.015
3797,-0.115,-0.015
3798,-0.140,-0.030
3799,-0.140,-0.040
3800,-0.135,-0.035
3801,-0.150,-0.030
3802,-0.145,-0.055
3803,-0.140,-0.045
3804,-0.140,-0.025
3805,-0.140,-0.020
3806,-0.150,-0.025
3807,-0.170,-0.050
3808,-0.155,-0.050
3809,-0.145,-0.025
3810,-0.135,-0.025
3811,-0.130,-0.030
3812,-0.135,-0.030
3813,-0.140,-0.020
3814,-0.140,-0.020
3815,-0.135,-0.025
3816,-0.115,-0.020
3817,-0.105,-0.010
3818,-0.110,-0.005
3819,-0.135,-0.015
3820,-0.120,-0.015
3821,-0.115,-0.030
3822,-0.145,-0.045
3823,-0.140,-0.050
3824,-0.115,-0.035
3825,-0.105,-0.030
3826,-0.125,-0.045
3827,-0.130,-0.050
3828,-0.140,-0.050
3829,-0.145,-0.040
3830,-0.140,-0.045
3831,-0.160,-0.070
3832,-0.160,-0.075
3833,-0.150,-0.070
3834,-0.140,-0.075
3835,-0.145,-0.075
3836,-0.155,-0.080
3837,-0.160,-0.075
3838,-0.155,-0.075
3839,-0.175,-0.095
3840,-0.185,-0.105
3841,-0.175,-0.090
3842,-0.155,-0.085
3843,-0.150,-0.085
3844,-0.165,-0.095
3845,-0.180,-0.085
3846,-0.175,-0.095
3847,-0.180,-0.115
3848,-0.195,-0.115
3849,-0.175,-0.100
3850,-0.160,-0.095
3851,-0.200,-0.105
3852,-0.215,-0.105
3853,-0.185,-0.105
3854,-0.175,-0.100
3855,-0.195,-0.095
3856,-0.205,-0.095
3857,-0.190,-0.120
3858,-0.195,-0.130
3859,-0.195,-0.110
3860,-0.190,-0.110
3861,-0.180,-0.120
3862,-0.185,-0.110
3863,-0.180,-0.095
3864,-0.190,-0.115
3865,-0.210,-0.110
3866,-0.175,-0.085
3867,-0.170,-0.100
3868,-0.195,-0.125
3869,-0.210,-0.130
3870,-0.185,-0.120
3871,-0.185,-0.115
3872,-0.195,-0.115
3873,-0.200,-0.115
3874,-0.180,-0.105
3875,-0.175,-0.105
3876,-0.185,-0.100
3877,-0.195,-0.110
3878,-0.210,-0.130
3879,-0.215,-0.125
3880,-0.190,-0.105
3881,-0.185,-0.110
3882,-0.195,-0.115
3883,-0.190,-0.100
3884,-0.185,-0.100
3885,-0.210,-0.115
3886,-0.195,-0.100
3887,-0.180,-0.105
3888,-0.200,-0.130
3889,-0.210,-0.125
3890,-0.185,-0.120
3891,-0.170,-0.115
3892,-0.180,-0.105
3893,-0.205,-0.105
3894,-0.210,-0.115
3895,-0.205,-0.110
3896,-0.175,-0.095
3897,-0.185,-0.105
3898,-0.215,-0.130
3899,-0.200,-0.120
3900,-0.190,-0.105
3901,-0.180,-0.105
3902,-0.195,-0.105
3903,-0.190,-0.100
3904,-0.150,-0.085
3905,-0.145,-0.075
3906,-0.150,-0.065
3907,-0.125,-0.045
3908,-0.080,-0.035
3909,-0.070,-0.025
3910,-0.065,-0.010
3911,-0.065,-0.020
3912,-0.055,-0.020
3913,-0.055,-0.020
3914,-0.075,-0.030
3915,-0.070,-0.040
3916,-0.050,-0.040
3917,-0.050,-0.050
3918,-0.050,-0.060
3919,-0.030,-0.065
3920,-0.030,-0.070
3921,-0.070,-0.090
3922,-0.115,-0.110
3923,-0.140,-0.100
3924,-0.140,-0.075
3925,-0.140,-0.070
3926,-0.155,-0.090
3927,-0.195,-0.110
3928,-0.200,-0.105
3929,-0.200,-0.120
3930,-0.215,-0.140
3931,-0.245,-0.150
3932,-0.240,-0.140
3933,-0.230,-0.140
3934,-0.235,-0.140
3935,-0.255,-0.135
3936,-0.255,-0.135
3937,-0.235,-0.125
3938,-0.245,-0.145
3939,-0.265,-0.145
3940,-0.235,-0.130
3941,-0.220,-0.115
3942,-0.225,-0.105
3943,-0.270,-0.140
3944,-0.335,-0.145
3945,-0.390,-0.110
3946,-0.450,-0.065
3947,-0.480,0.075
3948,-0.370,0.295
3949,-0.045,0.440
3950,0.070,0.480
3951,1.015,0.600
3952,1.680,0.650
3953,2.185,0.760
3954,2.020,0.360
3955,1.190,-0.495
3956,0.415,-0.860
3957,0.040,-0.785
3958,-0.175,-0.710
3959,-0.360,-0.630
3960,-0.375,-0.510
3961,-0.330,-0.360
3962,-0.245,-0.210
3963,-0.195,-0.130
3964,-0.180,-0.105
3965,-0.165,-0.095
3966,-0.160,-0.085
3967,-0.180,-0.075
3968,-0.190,-0.065
3969,-0.185,-0.060
3970,-0.180,-0.060
3971,-0.185,-0.060
3972,-0.165,-0.045
3973,-0.175,-0.045
3974,-0.165,-0.035
3975,-0.155,-0.025
3976,-0.165,-0.030
3977,-0.205,-0.040
3978,-0.175,-0.030
3979,-0.150,-0.020
3980,-0.180,-0.035
3981,-0.190,-0.045
3982,-0.155,-0.030
3983,-0.135,-0.025
3984,-0.135,-0.020
3985,-0.175,-0.025
3986,-0.160,-0.025
3987,-0.135,-0.010
3988,-0.135,-0.010
3989,-0.155,-0.005
3990,-0.145,0.000
3991,-0.115,0.000
3992,-0.125,0.000
3993,-0.140,0.000
3994,-0.140,0.000
3995,-0.130,0.010
3996,-0.105,0.025
3997,-0.100,0.015
3998,-0.110,0.010
3999,-0.100,0.015
4000,-0.095,0.020
4001,-0.090,0.045
4002,-0.095,0.045
4003,-0.065,0.035
4004,-0.050,0.040
4005,-0.060,0.045
4006,-0.040,0.040
4007,-0.015,0.065
4008,-0.005,0.080
4009,-0.010,0.085
4010,0.005,0.095
4011,0.030,0.115
4012,0.055,0.125
4013,0.065,0.150
4014,0.055,0.175
4015,0.085,0.180
4016,0.125,0.185
4017,0.165,0.185
4018,0.205,0.210
4019,0.210,0.230
4020,0.230,0.250
4021,0.260,0.285
4022,0.290,0.285
4023,0.320,0.285
4024,0.375,0.300
4025,0.395,0.305
4026,0.390,0.320
4027,0.400,0.320
4028,0.445,0.335
4029,0.500,0.350
4030,0.515,0.355
4031,0.520,0.350
4032,0.545,0.350
4033,0.550,0.360
4034,0.535,0.345
4035,0.510,0.325
4036,0.510,0.325
4037,0.515,0.320
4038,0.495,0.295
4039,0.440,0.265
4040,0.405,0.260
4041,0.380,0.255
4042,0.325,0.225
4043,0.260,0.190
4044,0.200,0.160
4045,0.155,0.145
4046,0.135,0.145
4047,0.085,0.130
4048,0.020,0.095
4049,0.005,0.080
4050,0.000,0.075
4051,-0.030,0.035
4052,-0.080,0.015
4053,-0.090,0.010
4054,-0.105,0.010
4055,-0.125,0.000
4056,-0.125,-0.010
4057,-0.125,-0.025
4058,-0.115,-0.015
4059,-0.140,-0.005
4060,-0.170,-0.035
4061,-0.155,-0.045
4062,-0.125,-0.020
4063,-0.130,-0.005
4064,-0.145,-0.025
4065,-0.150,-0.015
4066,-0.125,-0.005
4067,-0.115,0.000
4068,-0.130,-0.010
4069,-0.125,-0.015
4070,-0.110,-0.005
4071,-0.100,0.005
4072,-0.105,0.005
4073,-0.110,0.000
4074,-0.110,0.000
4075,-0.105,0.000
4076,-0.110,0.010
4077,-0.115,0.005
4078,-0.095,0.000
4079,-0.085,0.005
4080,-0.100,-0.010
4081,-0.120,-0.005
4082,-0.115,0.000
4083,-0.110,0.000
4084,-0.115,-0.005
4085,-0.115,-0.025
4086,-0.135,-0.035
4087,-0.125,-0.020
4088,-0.125,-0.015
4089,-0.140,-0.040
4090,-0.140,-0.050
4091,-0.155,-0.050
4092,-0.150,-0.050
4093,-0.150,-0.040
4094,-0.150,-0.060
4095,-0.130,-0.045
4096,-0.120,-0.035
4097,-0.150,-0.055
4098,-0.170,-0.080
4099,-0.170,-0.075
4100,-0.170,-0.065
4101,-0.175,-0.075
4102,-0.165,-0.085
4103,-0.145,-0.065
4104,-0.140,-0.070
4105,-0.150,-0.080
4106,-0.155,-0.085
4107,-0.150,-0.080
4108,-0.170,-0.080
4109,-0.170,-0.075
4110,-0.160,-0.085
4111,-0.170,-0.080
4112,-0.175,-0.075
4113,-0.160,-0.080
4114,-0.175,-0.095
4115,-0.205,-0.100
4116,-0.190,-0.085
4117,-0.160,-0.085
4118,-0.165,-0.080
4119,-0.170,-0.095
4120,-0.160,-0.090
4121,-0.155,-0.080
4122,-0.165,-0.095
4123,-0.190,-0.105
4124,-0.185,-0.100
4125,-0.180,-0.095
4126,-0.175,-0.075
4127,-0.175,-0.100
4128,-0.175,-0.120
4129,-0.165,-0.095
4130,-0.185,-0.080
4131,-0.200,-0.095
4132,-0.185,-0.115
4133,-0.180,-0.095
4134,-0.175,-0.090
4135,-0.180,-0.080
4136,-0.180,-0.090
4137,-0.140,-0.100
4138,-0.135,-0.070
4139,-0.135,-0.040
4140,-0.100,-0.035
4141,-0.070,-0.020
4142,-0.065,-0.010
4143,-0.060,-0.005
4144,-0.065,-0.020
4145,-0.040,-0.010
4146,-0.030,0.005
4147,-0.040,0.005
4148,-0.015,-0.005
4149,-0.025,-0.015
4150,-0.030,-0.025
4151,-0.040,-0.040
4152,-0.040,-0.040
4153,-0.020,-0.060
4154,-0.040,-0.055
4155,-0.065,-0.065
4156,-0.075,-0.085
4157,-0.105,-0.075
4158,-0.135,-0.050
4159,-0.145,-0.060
4160,-0.165,-0.080
4161,-0.185,-0.110
4162,-0.175,-0.115
4163,-0.190,-0.115
4164,-0.215,-0.130
4165,-0.220,-0.100
4166,-0.225,-0.105
4167,-0.225,-0.145
4168,-0.245,-0.145
4169,-0.230,-0.130
4170,-0.215,-0.135
4171,-0.225,-0.120
4172,-0.240,-0.120
4173,-0.240,-0.115
4174,-0.225,-0.100
4175,-0.225,-0.105
4176,-0.250,-0.135
4177,-0.215,-0.125
4178,-0.250,-0.110
4179,-0.360,-0.110
4180,-0.440,-0.090
4181,-0.460,0.060
4182,-0.360,0.305
4183,-0.055,0.450
4184,0.410,0.585
4185,1.020,0.635
4186,1.715,0.665
4187,2.225,0.725
4188,2.060,0.330
4189,1.250,-0.510
4190,0.445,-0.880
4191,0.030,-0.790
4192,-0.155,-0.680
4193,-0.330,-0.600
4194,-0.350,-0.500
4195,-0.295,-0.365
4196,-0.230,-0.205
4197,-0.190,-0.115
4198,-0.170,-0.085
4199,-0.125,-0.070
4200,-0.115,-0.060
4201,-0.200,-0.060
4202,-0.190,-0.055
4203,-0.175,-0.065
4204,-0.180,-0.050
4205,-0.170,-0.030
4206,-0.180,-0.020
4207,-0.185,-0.030
4208,-0.145,-0.025
4209,-0.130,-0.015
4210,-0.165,-0.010
4211,-0.175,-0.020
4212,-0.150,0.000
4213,-0.145,0.000
4214,-0.140,-0.015
4215,-0.135,-0.035
4216,-0.140,-0.005
4217,-0.140,0.000
4218,-0.140,0.000
4219,-0.150,-0.020
4220,-0.155,-0.015
4221,-0.145,0.000
4222,-0.150,0.010
4223,-0.140,0.000
4224,-0.095,0.005
4225,-0.085,0.010
4226,-0.130,0.020
4227,-0.120,0.025
4228,-0.095,0.025
4229,-0.085,0.010
4230,-0.105,0.020
4231,-0.105,0.035
4232,-0.075,0.040
4233,-0.055,0.045
4234,-0.060,0.070
4235,-0.070,0.075
4236,-0.055,0.070
4237,-0.025,0.065
4238,0.000,0.075
4239,-0.030,0.080
4240,-0.010,0.120
4241,0.000,0.145
4242,0.005,0.120
4243,0.025,0.105
4244,0.040,0.125
4245,0.065,0.140
4246,0.065,0.165
4247,0.085,0.205
4248,0.110,0.195
4249,0.095,0.200
4250,0.105,0.205
4251,0.190,0.235
4252,0.230,0.275
4253,0.250,0.290
4254,0.280,0.305
4255,0.320,0.320
4256,0.340,0.315
4257,0.375,0.355
4258,0.445,0.390
4259,0.465,0.395
4260,0.480,0.370
4261,0.505,0.405
4262,0.520,0.445
4263,0.565,0.440
4264,0.585,0.425
4265,0.600,0.435
4266,0.590,0.465
4267,0.585,0.450
4268,0.595,0.420
4269,0.585,0.420
4270,0.605,0.415
4271,0.600,0.380
4272,0.540,0.370
4273,0.500,0.350
4274,0.435,0.325
4275,0.410,0.335
4276,0.335,0.280
4277,0.265,0.215
4278,0.235,0.215
4279,0.225,0.220
4280,0.140,0.185
4281,0.095,0.150
4282,0.065,0.120
4283,0.020,0.095
4284,-0.015,0.085
4285,-0.030,0.075
4286,-0.025,0.040
4287,-0.050,0.025
4288,-0.080,0.030
4289,-0.095,0.020
4290,-0.095,0.015
4291,-0.075,0.010
4292,-0.060,0.020
4293,-0.085,0.015
4294,-0.125,0.000
4295,-0.130,0.000
4296,-0.125,0.000
4297,-0.095,0.005
4298,-0.065,0.000
4299,-0.060,0.015
4300,-0.070,0.025
4301,-0.105,0.015
4302,-0.110,-0.005
4303,-0.105,0.000
4304,-0.075,0.030
4305,-0.060,0.050
4306,-0.090,0.045
4307,-0.085,0.030
4308,-0.060,0.020
4309,-0.080,0.015
4310,-0.085,0.025
4311,-0.075,0.025
4312,-0.065,0.030
4313,-0.080,0.040
4314,-0.085,0.040
4315,-0.065,0.030
4316,-0.050,0.030
4317,-0.030,0.040
4318,-0.050,0.025
4319,-0.090,0.000
4320,-0.090,-0.010
4321,-0.065,0.010
4322,-0.065,0.025
4323,-0.085,0.010
4324,-0.100,0.010
4325,-0.095,0.015
4326,-0.090,-0.010
4327,-0.095,-0.010
4328,-0.100,-0.015
4329,-0.090,-0.020
4330,-0.090,-0.010
4331,-0.085,-0.010
4332,-0.090,-0.005
4333,-0.120,-0.015
4334,-0.115,-0.025
4335,-0.130,-0.060
4336,-0.105,-0.070
4337,-0.100,-0.035
4338,-0.095,-0.030
4339,-0.110,-0.040
4340,-0.140,-0.025
4341,-0.140,-0.025
4342,-0.100,-0.020
4343,-0.090,-0.030
4344,-0.115,-0.070
4345,-0.120,-0.070
4346,-0.125,-0.050
4347,-0.125,-0.050
4348,-0.140,-0.040
4349,-0.135,-0.045
4350,-0.115,-0.050
4351,-0.110,-0.065
4352,-0.135,-0.050
4353,-0.135,-0.020
4354,-0.120,-0.040
4355,-0.130,-0.065
4356,-0.145,-0.070
4357,-0.110,-0.070
4358,-0.130,-0.060
4359,-0.140,-0.050
4360,-0.110,-0.065
4361,-0.100,-0.055
4362,-0.080,-0.015
4363,-0.060,0.010
4364,-0.055,0.025
4365,-0.055,0.005
4366,-0.030,0.020
4367,-0.010,0.060
4368,-0.015,0.045
4369,0.010,0.020
4370,0.020,0.015
4371,0.020,0.020
4372,-0.010,0.005
4373,-0.030,-0.010
4374,-0.010,-0.010
4375,0.000,-0.005
4376,0.010,0.005
4377,-0.015,0.000
4378,-0.005,-0.050
4379,-0.020,-0.065
4380,-0.070,-0.030
4381,-0.100,-0.040
4382,-0.105,-0.060
4383,-0.095,-0.055
4384,-0.145,-0.070
4385,-0.170,-0.080
4386,-0.160,-0.095
4387,-0.170,-0.090
4388,-0.180,-0.070
4389,-0.200,-0.095
4390,-0.220,-0.110
4391,-0.220,-0.085
4392,-0.180,-0.070
4393,-0.180,-0.125
4394,-0.220,-0.135
4395,-0.205,-0.105
4396,-0.185,-0.100
4397,-0.200,-0.095
4398,-0.215,-0.075
4399,-0.180,-0.080
4400,-0.180,-0.095
4401,-0.255,-0.115
4402,-0.300,-0.085
4403,-0.395,-0.075
4404,-0.425,-0.015
4405,-0.370,0.170
4406,-0.170,0.410
4407,0.215,0.555
4408,0.785,0.640
4409,1.455,0.650
4410,2.110,0.670
4411,2.320,0.550
4412,1.735,-0.130
4413,0.785,-0.770
4414,0.140,-0.865
4415,-0.125,-0.740
4416,-0.280,-0.630
4417,-0.320,-0.505
4418,-0.310,-0.365
4419,-0.240,-0.235
4420,-0.160,-0.120
4421,-0.125,-0.050
4422,-0.140,-0.035
4423,-0.170,-0.075
4424,-0.145,-0.065
4425,-0.150,-0.045
4426,-0.170,-0.030
4427,-0.150,-0.020
4428,-0.115,-0.030
4429,-0.125,-0.035
4430,-0.155,-0.010
4431,-0.150,0.005
4432,-0.145,0.000
4433,-0.145,0.005
4434,-0.130,-0.005
4435,-0.135,-0.010
4436,-0.135,-0.010
4437,-0.150,0.000
4438,-0.135,0.005
4439,-0.130,0.020
4440,-0.110,0.020
4441,-0.090,0.015
4442,-0.115,0.000
4443,-0.145,-0.005
4444,-0.125,0.025
4445,-0.105,0.035
4446,-0.105,0.010
4447,-0.105,0.010
4448,-0.095,0.035
4449,-0.100,0.005
4450,-0.095,0.000
4451,-0.090,0.040
4452,-0.080,0.050
4453,-0.070,0.040
4454,-0.075,0.055
4455,-0.065,0.045
4456,-0.080,0.030
4457,-0.030,0.045
4458,-0.030,0.055
4459,-0.045,0.045
4460,-0.055,0.035
4461,-0.050,0.065
4462,-0.025,0.120
4463,-0.025,0.125
4464,-0.035,0.095
4465,0.015,0.090
4466,0.035,0.120
4467,0.035,0.110
4468,0.055,0.135
4469,0.095,0.160
4470,0.105,0.155
4471,0.115,0.185
4472,0.145,0.225
4473,0.150,0.225
4474,0.175,0.235
4475,0.185,0.245
4476,0.240,0.255
4477,0.265,0.295
4478,0.310,0.315
4479,0.375,0.305
4480,0.400,0.320
4481,0.410,0.355
4482,0.450,0.375
4483,0.485,0.375
4484,0.505,0.390
4485,0.535,0.405
4486,0.535,0.395
4487,0.540,0.420
4488,0.600,0.420
4489,0.605,0.415
4490,0.605,0.430
4491,0.615,0.420
4492,0.600,0.400
4493,0.570,0.415
4494,0.565,0.400
4495,0.555,0.355
4496,0.500,0.340
4497,0.445,0.340
4498,0.405,0.300
4499,0.355,0.260
4500,0.335,0.250
4501,0.215,0.235
4502,0.205,0.190
4503,0.160,0.160
4504,0.100,0.155
4505,0.035,0.115
4506,0.035,0.060
4507,0.005,0.065
4508,-0.015,0.070
4509,-0.020,0.035
4510,-0.055,0.000
4511,-0.085,-0.010
4512,-0.090,0.015
4513,-0.085,0.020
4514,-0.090,-0.020
4515,-0.090,-0.030
4516,-0.085,-0.005
4517,-0.115,-0.005
4518,-0.130,0.000
4519,-0.135,-0.005
4520,-0.120,-0.005
4521,-0.125,-0.010
4522,-0.130,-0.005
4523,-0.135,-0.010
4524,-0.115,-0.010
4525,-0.105,0.000
4526,-0.095,0.030
4527,-0.095,0.005
4528,-0.095,-0.005
4529,-0.080,-0.005
4530,-0.100,0.000
4531,-0.105,0.000
4532,-0.095,0.000
4533,-0.100,0.010
4534,-0.075,0.015
4535,-0.065,0.010
4536,-0.095,0.005
4537,-0.125,0.010
4538,-0.100,-0.010
4539,-0.085,-0.010
4540,-0.090,0.005
4541,-0.070,0.000
4542,-0.065,-0.015
4543,-0.065,-0.025
4544,-0.085,-0.025
4545,-0.080,-0.010
4546,-0.110,-0.005
4547,-0.125,-0.020
4548,-0.125,-0.040
4549,-0.105,-0.055
4550,-0.095,-0.045
4551,-0.130,-0.035
4552,-0.145,-0.045
4553,-0.115,-0.040
4554,-0.125,-0.045
4555,-0.135,-0.075
4556,-0.145,-0.070
4557,-0.145,-0.060
4558,-0.125,-0.070
4559,-0.135,-0.065
4560,-0.155,-0.090
4561,-0.155,-0.095
4562,-0.140,-0.060
4563,-0.135,-0.075
4564,-0.135,-0.085
4565,-0.155,-0.075
4566,-0.145,-0.080
4567,-0.135,-0.085
4568,-0.150,-0.075
4569,-0.155,-0.085
4570,-0.140,-0.095
4571,-0.150,-0.085
4572,-0.165,-0.090
4573,-0.175,-0.095
4574,-0.150,-0.085
4575,-0.135,-0.075
4576,-0.150,-0.085
4577,-0.190,-0.105
4578,-0.190,-0.080
4579,-0.155,-0.070
4580,-0.130,-0.095
4581,-0.135,-0.085
4582,-0.130,-0.040
4583,-0.085,-0.035
4584,-0.065,-0.020
4585,-0.050,0.000
4586,-0.050,-0.015
4587,-0.015,-0.010
4588,0.000,0.000
4589,-0.020,0.000
4590,-0.020,0.000
4591,-0.015,-0.010
4592,-0.020,-0.040
4593,-0.025,-0.035
4594,-0.045,-0.055
4595,-0.020,-0.080
4596,-0.010,-0.075
4597,-0.055,-0.070
4598,-0.085,-0.085
4599,-0.085,-0.085
4600,-0.075,-0.075
4601,-0.085,-0.040
4602,-0.125,-0.080
4603,-0.140,-0.105
4604,-0.165,-0.120
4605,-0.190,-0.120
4606,-0.190,-0.120
4607,-0.190,-0.125
4608,-0.195,-0.130
4609,-0.210,-0.135
4610,-0.240,-0.130
4611,-0.220,-0.135
4612,-0.220,-0.160
4613,-0.245,-0.155
4614,-0.240,-0.130
4615,-0.215,-0.150
4616,-0.215,-0.155
4617,-0.230,-0.140
4618,-0.220,-0.140
4619,-0.225,-0.130
4620,-0.225,-0.120
4621,-0.275,-0.135
4622,-0.380,-0.145
4623,-0.435,-0.100
4624,-0.430,0.010
4625,-0.430,0.070
4626,-0.070,0.420
4627,0.420,0.500
4628,1.045,0.545
4629,1.730,0.575
4630,2.245,0.590
4631,2.100,0.205
4632,1.265,-0.565
4633,0.405,-0.905
4634,-0.050,-0.815
4635,-0.235,-0.720
4636,-0.350,-0.610
4637,-0.355,-0.485
4638,-0.305,-0.340
4639,-0.220,-0.225
4640,-0.170,-0.155
4641,-0.145,-0.105
4642,-0.155,-0.085
4643,-0.185,-0.080
4644,-0.210,-0.105
4645,-0.200,-0.095
4646,-0.185,-0.085
4647,-0.180,-0.065
4648,-0.175,-0.060
4649,-0.170,-0.060
4650,-0.170,-0.060
4651,-0.165,-0.030
4652,-0.155,-0.045
4653,-0.170,-0.065
4654,-0.155,-0.055
4655,-0.160,-0.045
4656,-0.180,-0.045
4657,-0.170,-0.045
4658,-0.150,-0.035
4659,-0.145,-0.030
4660,-0.145,-0.035
4661,-0.150,-0.020
4662,-0.130,-0.015
4663,-0.145,-0.015
4664,-0.170,-0.040
4665,-0.150,-0.045
4666,-0.130,-0.020
4667,-0.125,-0.010
4668,-0.135,-0.010
4669,-0.145,-0.015
4670,-0.150,-0.010
4671,-0.135,-0.015
4672,-0.115,-0.015
4673,-0.110,-0.010
4674,-0.095,-0.005
4675,-0.090,0.000
4676,-0.105,0.020
4677,-0.105,0.015
4678,-0.075,0.025
4679,-0.060,0.030
4680,-0.070,0.035
4681,-0.090,0.030
4682,-0.055,0.020
4683,-0.040,0.045
4684,-0.040,0.065
4685,-0.025,0.075
4686,-0.005,0.080
4687,0.025,0.110
4688,0.035,0.125
4689,0.035,0.105
4690,0.050,0.120
4691,0.095,0.150
4692,0.135,0.180
4693,0.135,0.180
4694,0.150,0.190
4695,0.190,0.245
4696,0.210,0.255
4697,0.255,0.240
4698,0.310,0.260
4699,0.325,0.285
4700,0.335,0.300
4701,0.380,0.305
4702,0.390,0.320
4703,0.425,0.350
4704,0.465,0.350
4705,0.490,0.360
4706,0.505,0.365
4707,0.520,0.365
4708,0.550,0.370
4709,0.555,0.375
4710,0.565,0.370
4711,0.550,0.370
4712,0.535,0.355
4713,0.520,0.340
4714,0.480,0.320
4715,0.465,0.300
4716,0.430,0.260
4717,0.355,0.255
4718,0.300,0.235
4719,0.250,0.200
4720,0.195,0.175
4721,0.155,0.155
4722,0.110,0.125
4723,0.055,0.075
4724,0.025,0.055
4725,0.020,0.050
4726,-0.030,0.025
4727,-0.065,0.005
4728,-0.075,-0.020
4729,-0.095,-0.030
4730,-0.115,-0.030
4731,-0.130,-0.035
4732,-0.115,-0.040
4733,-0.115,-0.040
4734,-0.150,-0.040
4735,-0.180,-0.050
4736,-0.160,-0.050
4737,-0.140,-0.050
4738,-0.145,-0.055
4739,-0.175,-0.070
4740,-0.155,-0.070
4741,-0.125,-0.050
4742,-0.140,-0.045
4743,-0.165,-0.055
4744,-0.160,-0.045
4745,-0.140,-0.045
4746,-0.140,-0.045
4747,-0.165,-0.045
4748,-0.175,-0.045
4749,-0.145,-0.035
4750,-0.135,-0.030
4751,-0.150,-0.045
4752,-0.150,-0.055
4753,-0.135,-0.050
4754,-0.110,-0.040
4755,-0.115,-0.040
4756,-0.140,-0.055
4757,-0.150,-0.050
4758,-0.150,-0.055
4759,-0.150,-0.075
4760,-0.170,-0.090
4761,-0.155,-0.095
4762,-0.145,-0.085
4763,-0.150,-0.080
4764,-0.170,-0.100
4765,-0.175,-0.105
4766,-0.150,-0.095
4767,-0.145,-0.095
4768,-0.175,-0.100
4769,-0.190,-0.105
4770,-0.165,-0.105
4771,-0.170,-0.115
4772,-0.175,-0.125
4773,-0.185,-0.130
4774,-0.175,-0.130
4775,-0.170,-0.135
4776,-0.185,-0.130
4777,-0.190,-0.135
4778,-0.185,-0.140
4779,-0.185,-0.140
4780,-0.190,-0.135
4781,-0.195,-0.145
4782,-0.185,-0.145
4783,-0.185,-0.135
4784,-0.195,-0.145
4785,-0.215,-0.160
4786,-0.215,-0.150
4787,-0.200,-0.140
4788,-0.215,-0.155
4789,-0.225,-0.175
4790,-0.190,-0.160
4791,-0.175,-0.150
4792,-0.195,-0.155
4793,-0.210,-0.160
4794,-0.200,-0.160
4795,-0.190,-0.135
4796,-0.175,-0.120
4797,-0.155,-0.110
4798,-0.130,-0.095
4799,-0.110,-0.075
4800,-0.105,-0.070
4801,-0.100,-0.050
4802,-0.080,-0.060
4803,-0.050,-0.065
4804,-0.045,-0.050
4805,-0.050,-0.070
4806,-0.060,-0.085
4807,-0.070,-0.085
4808,-0.085,-0.090
4809,-0.090,-0.095
4810,-0.085,-0.115
4811,-0.070,-0.125
4812,-0.070,-0.120
4813,-0.100,-0.140
4814,-0.140,-0.160
4815,-0.150,-0.145
4816,-0.140,-0.120
4817,-0.160,-0.125
4818,-0.210,-0.155
4819,-0.230,-0.175
4820,-0.225,-0.165
4821,-0.240,-0.170
4822,-0.265,-0.185
4823,-0.270,-0.205
4824,-0.270,-0.195
4825,-0.270,-0.190
4826,-0.275,-0.200
4827,-0.285,-0.200
4828,-0.280,-0.205
4829,-0.275,-0.195
4830,-0.275,-0.190
4831,-0.275,-0.195
4832,-0.255,-0.190
4833,-0.265,-0.185
4834,-0.270,-0.185
4835,-0.295,-0.195
4836,-0.335,-0.190
4837,-0.425,-0.185
4838,-0.515,-0.180
4839,-0.550,-0.055
4840,-0.450,0.150
4841,-0.145,0.300
4842,0.355,0.420
4843,0.965,0.455
4844,1.630,0.465
4845,2.165,0.535
4846,2.020,0.215
4847,1.200,-0.570
4848,0.360,-0.975
4849,-0.030,-0.860
4850,-0.105,-0.810
4851,-0.360,-0.655
4852,-0.395,-0.535
4853,-0.345,-0.385
4854,-0.265,-0.250
4855,-0.220,-0.180
4856,-0.225,-0.160
4857,-0.220,-0.150
4858,-0.220,-0.140
4859,-0.230,-0.130
4860,-0.240,-0.130
4861,-0.235,-0.140
4862,-0.235,-0.120
4863,-0.225,-0.105
4864,-0.235,-0.100
4865,-0.230,-0.100
4866,-0.225,-0.115
4867,-0.225,-0.115
4868,-0.225,-0.105
4869,-0.225,-0.100
4870,-0.215,-0.090
4871,-0.200,-0.095
4872,-0.230,-0.105
4873,-0.235,-0.100
4874,-0.215,-0.090
4875,-0.210,-0.085
4876,-0.215,-0.070
4877,-0.220,-0.075
4878,-0.200,-0.085
4879,-0.195,-0.090
4880,-0.195,-0.075
4881,-0.190,-0.075
4882,-0.190,-0.065
4883,-0.180,-0.060
4884,-0.180,-0.070
4885,-0.200,-0.075
4886,-0.180,-0.050
4887,-0.155,-0.040
4888,-0.170,-0.045
4889,-0.185,-0.045
4890,-0.160,-0.035
4891,-0.135,-0.030
4892,-0.125,-0.020
4893,-0.145,-0.020
4894,-0.140,-0.010
4895,-0.120,-0.010
4896,-0.115,-0.010
4897,-0.120,-0.015
4898,-0.115,-0.005
4899,-0.090,0.010
4900,-0.075,0.020
4901,-0.055,0.040
4902,-0.040,0.045
4903,-0.015,0.060
4904,0.000,0.070
4905,0.010,0.080
4906,0.020,0.085
4907,0.055,0.095
4908,0.075,0.115
4909,0.085,0.130
4910,0.110,0.140
4911,0.160,0.155
4912,0.195,0.160
4913,0.210,0.180
4914,0.230,0.200
4915,0.265,0.205
4916,0.305,0.215
4917,0.330,0.240
4918,0.350,0.240
4919,0.365,0.240
4920,0.400,0.260
4921,0.420,0.270
4922,0.425,0.260
4923,0.430,0.255
4924,0.435,0.265
4925,0.440,0.270
4926,0.445,0.255
4927,0.425,0.240
4928,0.420,0.230
4929,0.395,0.210
4930,0.350,0.200
4931,0.305,0.180
4932,0.275,0.145
4933,0.225,0.130
4934,0.160,0.120
4935,0.125,0.095
4936,0.090,0.080
4937,0.050,0.060
4938,0.010,0.035
4939,-0.030,0.010
4940,-0.050,-0.005
4941,-0.065,-0.015
4942,-0.090,-0.025
4943,-0.120,-0.045
4944,-0.140,-0.065
4945,-0.145,-0.065
4946,-0.155,-0.070
4947,-0.180,-0.085
4948,-0.190,-0.095
4949,-0.185,-0.090
4950,-0.175,-0.085
4951,-0.170,-0.080
4952,-0.190,-0.090
4953,-0.195,-0.090
4954,-0.185,-0.090
4955,-0.200,-0.095
4956,-0.195,-0.090
4957,-0.175,-0.075
4958,-0.170,-0.075
4959,-0.180,-0.075
4960,-0.185,-0.070
4961,-0.185,-0.080
4962,-0.190,-0.080
4963,-0.185,-0.075
4964,-0.185,-0.075
4965,-0.185,-0.080
4966,-0.180,-0.070
4967,-0.175,-0.065
4968,-0.185,-0.080
4969,-0.190,-0.095
4970,-0.180,-0.090
4971,-0.170,-0.090
4972,-0.195,-0.110
4973,-0.200,-0.120
4974,-0.185,-0.115
4975,-0.175,-0.115
4976,-0.190,-0.115
4977,-0.200,-0.110
4978,-0.200,-0.130
4979,-0.210,-0.140
4980,-0.210,-0.130
4981,-0.215,-0.135
4982,-0.220,-0.140
4983,-0.215,-0.135
4984,-0.210,-0.140
4985,-0.220,-0.145
4986,-0.230,-0.155
4987,-0.235,-0.170
4988,-0.235,-0.155
4989,-0.230,-0.145
4990,-0.225,-0.160
4991,-0.225,-0.160
4992,-0.225,-0.155
4993,-0.235,-0.165
4994,-0.240,-0.175
4995,-0.230,-0.175
4996,-0.230,-0.160
4997,-0.250,-0.165
4998,-0.255,-0.185
4999,-0.240,-0.175
5000,-0.230,-0.170
5001,-0.240,-0.180
5002,-0.255,-0.185
5003,-0.230,-0.180
5004,-0.230,-0.180
5005,-0.255,-0.180
5006,-0.260,-0.175
5007,-0.240,-0.175
5008,-0.235,-0.175
5009,-0.250,-0.175
5010,-0.260,-0.185
5011,-0.260,-0.200
5012,-0.240,-0.190
5013,-0.230,-0.175
5014,-0.255,-0.185
5015,-0.255,-0.190
5016,-0.240,-0.180
5017,-0.250,-0.175
5018,-0.250,-0.185
5019,-0.255,-0.195
5020,-0.255,-0.185
5021,-0.260,-0.185
5022,-0.265,-0.190
5023,-0.240,-0.190
5024,-0.245,-0.190
5025,-0.250,-0.185
5026,-0.245,-0.190
5027,-0.265,-0.200
5028,-0.250,-0.190
5029,-0.235,-0.180
5030,-0.250,-0.175
5031,-0.265,-0.190
5032,-0.265,-0.190
5033,-0.240,-0.180
5034,-0.245,-0.185
5035,-0.260,-0.195
5036,-0.255,-0.195
5037,-0.235,-0.200
5038,-0.240,-0.195
5039,-0.250,-0.180
5040,-0.255,-0.175
5041,-0.240,-0.185
5042,-0.240,-0.185
5043,-0.245,-0.180
5044,-0.230,-0.170
5045,-0.195,-0.135
5046,-0.155,-0.105
5047,-0.150,-0.110
5048,-0.150,-0.125
5049,-0.135,-0.100
5050,-0.125,-0.090
5051,-0.110,-0.085
5052,-0.110,-0.095
5053,-0.105,-0.100
5054,-0.090,-0.120
5055,-0.115,-0.130
5056,-0.130,-0.130
5057,-0.105,-0.135
5058,-0.100,-0.145
5059,-0.100,-0.150
5060,-0.125,-0.155
5061,-0.145,-0.165
5062,-0.140,-0.175
5063,-0.145,-0.175
5064,-0.185,-0.160
5065,-0.215,-0.170
5066,-0.225,-0.175
5067,-0.245,-0.175
5068,-0.265,-0.180
5069,-0.285,-0.205
5070,-0.285,-0.205
5071,-0.295,-0.225
5072,-0.310,-0.235
5073,-0.300,-0.225
5074,-0.295,-0.225
5075,-0.295,-0.225
5076,-0.305,-0.205
5077,-0.310,-0.220
5078,-0.300,-0.215
5079,-0.285,-0.200
5080,-0.295,-0.210
5081,-0.305,-0.215
5082,-0.305,-0.210
5083,-0.320,-0.200
5084,-0.400,-0.210
5085,-0.520,-0.230
5086,-0.560,-0.165
5087,-0.510,0.005
5088,-0.290,0.135
5089,0.105,0.225
5090,0.695,0.250
5091,1.325,0.255
5092,1.785,0.330
5093,1.795,0.275
5094,1.200,-0.335
5095,0.480,-0.895
5096,0.010,-0.925
5097,-0.190,-0.780
5098,-0.295,-0.650
5099,-0.285,-0.470
5100,-0.270,-0.410
5101,-0.220,-0.215
5102,-0.210,-0.180
5103,-0.215,-0.150
5104,-0.220,-0.140
5105,-0.230,-0.140
5106,-0.245,-0.145
5107,-0.240,-0.140
5108,-0.245,-0.140
5109,-0.255,-0.140
5110,-0.230,-0.135
5111,-0.225,-0.125
5112,-0.235,-0.120
5113,-0.235,-0.125
5114,-0.255,-0.135
5115,-0.230,-0.115
5116,-0.210,-0.105
5117,-0.215,-0.100
5118,-0.235,-0.110
5119,-0.245,-0.115
5120,-0.220,-0.100
5121,-0.190,-0.085
5122,-0.205,-0.085
5123,-0.215,-0.075
5124,-0.210,-0.085
5125,-0.210,-0.090
5126,-0.210,-0.085
5127,-0.195,-0.075
5128,-0.185,-0.055
5129,-0.185,-0.040
5130,-0.185,-0.045
5131,-0.190,-0.060
5132,-0.180,-0.065
5133,-0.165,-0.040
5134,-0.165,-0.035
5135,-0.185,-0.040
5136,-0.175,-0.045
5137,-0.145,-0.025
5138,-0.130,-0.020
5139,-0.135,-0.020
5140,-0.140,-0.010
5141,-0.125,0.005
5142,-0.105,0.010
5143,-0.100,0.005
5144,-0.095,0.010
5145,-0.070,0.020
5146,-0.065,0.035
5147,-0.070,0.035
5148,-0.065,0.045
5149,-0.035,0.065
5150,-0.020,0.065
5151,-0.005,0.065
5152,0.000,0.070
5153,0.020,0.080
5154,0.045,0.110
5155,0.055,0.125
5156,0.065,0.130
5157,0.100,0.140
5158,0.130,0.160
5159,0.145,0.180
5160,0.160,0.185
5161,0.195,0.180
5162,0.235,0.190
5163,0.250,0.195
5164,0.270,0.210
5165,0.295,0.205
5166,0.320,0.230
5167,0.340,0.240
5168,0.350,0.220
5169,0.355,0.215
5170,0.380,0.230
5171,0.395,0.225
5172,0.390,0.200
5173,0.385,0.190
5174,0.390,0.185
5175,0.390,0.175
5176,0.350,0.140
5177,0.330,0.125
5178,0.300,0.105
5179,0.270,0.085
5180,0.240,0.075
5181,0.195,0.050
5182,0.155,0.035
5183,0.140,0.035
5184,0.105,0.040
5185,0.065,0.020
5186,0.040,0.005
5187,0.030,0.000
5188,0.005,-0.010
5189,-0.030,-0.025
5190,-0.050,-0.035
5191,-0.065,-0.040
5192,-0.085,-0.040
5193,-0.095,-0.045
5194,-0.105,-0.065
5195,-0.110,-0.065
5196,-0.130,-0.050
5197,-0.140,-0.070
5198,-0.145,-0.080
5199,-0.150,-0.080
5200,-0.150,-0.085
5201,-0.155,-0.085
5202,-0.155,-0.080
5203,-0.140,-0.070
5204,-0.135,-0.065
5205,-0.150,-0.060
5206,-0.155,-0.055
5207,-0.145,-0.060
5208,-0.140,-0.060
5209,-0.150,-0.060
5210,-0.165,-0.075
5211,-0.150,-0.070
5212,-0.140,-0.070
5213,-0.145,-0.075
5214,-0.155,-0.080
5215,-0.150,-0.080
5216,-0.135,-0.085
5217,-0.145,-0.085
5218,-0.165,-0.090
5219,-0.150,-0.085
5220,-0.130,-0.080
5221,-0.140,-0.090
5222,-0.165,-0.110
5223,-0.170,-0.120
5224,-0.145,-0.120
5225,-0.140,-0.120
5226,-0.160,-0.125
5227,-0.165,-0.135
5228,-0.150,-0.135
5229,-0.150,-0.130
5230,-0.175,-0.135
5231,-0.185,-0.145
5232,-0.175,-0.150
5233,-0.155,-0.140
5234,-0.170,-0.135
5235,-0.190,-0.140
5236,-0.195,-0.150
5237,-0.185,-0.155
5238,-0.185,-0.150
5239,-0.200,-0.160
5240,-0.200,-0.170
5241,-0.200,-0.145
5242,-0.195,-0.145
5243,-0.195,-0.165
5244,-0.210,-0.175
5245,-0.195,-0.170
5246,-0.200,-0.175
5247,-0.225,-0.190
5248,-0.215,-0.175
5249,-0.190,-0.160
5250,-0.190,-0.160
5251,-0.210,-0.180
5252,-0.205,-0.180
5253,-0.210,-0.185
5254,-0.205,-0.180
5255,-0.195,-0.160
5256,-0.205,-0.170
5257,-0.210,-0.175
5258,-0.190,-0.180
5259,-0.190,-0.175
5260,-0.215,-0.185
5261,-0.215,-0.185
5262,-0.210,-0.160
5263,-0.210,-0.165
5264,-0.210,-0.185
5265,-0.210,-0.185
5266,-0.215,-0.170
5267,-0.215,-0.180
5268,-0.225,-0.190
5269,-0.220,-0.180
5270,-0.205,-0.175
5271,-0.210,-0.180
5272,-0.215,-0.175
5273,-0.215,-0.180
5274,-0.215,-0.190
5275,-0.220,-0.195
5276,-0.215,-0.180
5277,-0.225,-0.185
5278,-0.210,-0.185
5279,-0.190,-0.175
5280,-0.210,-0.180
5281,-0.225,-0.185
5282,-0.210,-0.185
5283,-0.205,-0.180
5284,-0.215,-0.180
5285,-0.210,-0.185
5286,-0.200,-0.175
5287,-0.210,-0.170
5288,-0.220,-0.175
5289,-0.225,-0.180
5290,-0.220,-0.185
5291,-0.210,-0.185
5292,-0.210,-0.170
5293,-0.215,-0.160
5294,-0.220,-0.180
5295,-0.215,-0.185
5296,-0.210,-0.170
5297,-0.220,-0.180
5298,-0.220,-0.185
5299,-0.170,-0.140
5300,-0.150,-0.125
5301,-0.125,-0.115
5302,-0.130,-0.125
5303,-0.110,-0.100
5304,-0.090,-0.075
5305,-0.085,-0.075
5306,-0.090,-0.090
5307,-0.075,-0.100
5308,-0.065,-0.100
5309,-0.080,-0.115
5310,-0.090,-0.120
5311,-0.080,-0.130
5312,-0.065,-0.140
5313,-0.060,-0.145
5314,-0.075,-0.160
5315,-0.095,-0.175
5316,-0.115,-0.175
5317,-0.120,-0.175
5318,-0.145,-0.155
5319,-0.175,-0.145
5320,-0.195,-0.170
5321,-0.215,-0.175
5322,-0.235,-0.175
5323,-0.255,-0.195
5324,-0.260,-0.205
5325,-0.260,-0.205
5326,-0.285,-0.230
5327,-0.285,-0.220
5328,-0.270,-0.210
5329,-0.275,-0.205
5330,-0.285,-0.205
5331,-0.285,-0.205
5332,-0.275,-0.215
5333,-0.275,-0.195
5334,-0.280,-0.200
5335,-0.295,-0.225
5336,-0.275,-0.205
5337,-0.270,-0.200
5338,-0.340,-0.205
5339,-0.470,-0.215
5340,-0.545,-0.220
5341,-0.565,-0.115
5342,-0.445,0.040
5343,-0.165,0.135
5344,0.315,0.185
5345,0.930,0.175
5346,1.520,0.195
5347,1.800,0.290
5348,1.500,-0.025
5349,0.775,-0.705
5350,0.545,-0.890
5351,-0.155,-0.875
5352,-0.325,-0.770
5353,-0.370,-0.635
5354,-0.330,-0.445
5355,-0.290,-0.295
5356,-0.240,-0.215
5357,-0.210,-0.175
5358,-0.225,-0.165
5359,-0.235,-0.160
5360,-0.255,-0.155
5361,-0.255,-0.150
5362,-0.240,-0.145
5363,-0.255,-0.150
5364,-0.260,-0.145
5365,-0.250,-0.145
5366,-0.240,-0.140
5367,-0.245,-0.135
5368,-0.255,-0.135
5369,-0.250,-0.130
5370,-0.240,-0.130
5371,-0.240,-0.130
5372,-0.250,-0.130
5373,-0.255,-0.120
5374,-0.245,-0.100
5375,-0.235,-0.100
5376,-0.240,-0.120
5377,-0.245,-0.120
5378,-0.240,-0.105
5379,-0.235,-0.090
5380,-0.235,-0.095
5381,-0.240,-0.100
5382,-0.235,-0.090
5383,-0.225,-0.090
5384,-0.235,-0.090
5385,-0.235,-0.085
5386,-0.205,-0.090
5387,-0.200,-0.075
5388,-0.215,-0.065
5389,-0.230,-0.085
5390,-0.220,-0.080
5391,-0.190,-0.060
5392,-0.185,-0.050
5393,-0.195,-0.050
5394,-0.190,-0.050
5395,-0.175,-0.050
5396,-0.175,-0.040
5397,-0.185,-0.030
5398,-0.170,-0.035
5399,-0.155,-0.035
5400,-0.150,-0.030
5401,-0.145,-0.015
5402,-0.120,-0.010
5403,-0.095,0.000
5404,-0.085,0.000
5405,-0.090,0.005
5406,-0.095,0.005
5407,-0.065,0.020
5408,-0.035,0.030
5409,-0.030,0.030
5410,-0.015,0.040
5411,0.010,0.060
5412,0.035,0.075
5413,0.050,0.085
5414,0.065,0.095
5415,0.100,0.090
5416,0.130,0.105
5417,0.140,0.115
5418,0.150,0.100
5419,0.175,0.105
5420,0.205,0.125
5421,0.220,0.130
5422,0.230,0.120
5423,0.250,0.115
5424,0.265,0.120
5425,0.270,0.125
5426,0.280,0.115
5427,0.290,0.090
5428,0.285,0.085
5429,0.285,0.085
5430,0.275,0.060
5431,0.250,0.050
5432,0.235,0.040
5433,0.220,0.035
5434,0.180,0.035
5435,0.130,0.010
5436,0.105,0.000
5437,0.070,0.005
5438,0.030,0.000
5439,0.000,-0.015
5440,-0.025,-0.025
5441,-0.055,-0.030
5442,-0.090,-0.030
5443,-0.120,-0.040
5444,-0.135,-0.060
5445,-0.135,-0.060
5446,-0.165,-0.065
5447,-0.195,-0.075
5448,-0.195,-0.075
5449,-0.185,-0.070
5450,-0.180,-0.070
5451,-0.210,-0.075
5452,-0.230,-0.090
5453,-0.235,-0.095
5454,-0.215,-0.080
5455,-0.200,-0.070
5456,-0.220,-0.075
5457,-0.225,-0.075
5458,-0.225,-0.090
5459,-0.230,-0.095
5460,-0.230,-0.095
5461,-0.225,-0.090
5462,-0.220,-0.075
5463,-0.215,-0.080
5464,-0.225,-0.095
5465,-0.230,-0.095
5466,-0.215,-0.095
5467,-0.225,-0.095
5468,-0.235,-0.095
5469,-0.220,-0.100
5470,-0.215,-0.100
5471,-0.225,-0.100
5472,-0.235,-0.125
5473,-0.240,-0.130
5474,-0.225,-0.120
5475,-0.215,-0.120
5476,-0.230,-0.130
5477,-0.240,-0.135
5478,-0.240,-0.135
5479,-0.240,-0.125
5480,-0.240,-0.130
5481,-0.255,-0.145
5482,-0.250,-0.145
5483,-0.240,-0.135
5484,-0.255,-0.130
5485,-0.265,-0.145
5486,-0.265,-0.155
5487,-0.255,-0.150
5488,-0.260,-0.150
5489,-0.270,-0.160
5490,-0.260,-0.160
5491,-0.255,-0.150
5492,-0.275,-0.160
5493,-0.290,-0.175
5494,-0.270,-0.170
5495,-0.255,-0.160
5496,-0.260,-0.160
5497,-0.280,-0.170
5498,-0.285,-0.155
5499,-0.260,-0.155
5500,-0.255,-0.160
5501,-0.275,-0.175
5502,-0.280,-0.165
5503,-0.260,-0.155
5504,-0.260,-0.155
5505,-0.275,-0.170
5506,-0.275,-0.170
5507,-0.275,-0.175
5508,-0.265,-0.170
5509,-0.260,-0.160
5510,-0.270,-0.170
5511,-0.280,-0.180
5512,-0.270,-0.170
5513,-0.265,-0.155
5514,-0.275,-0.175
5515,-0.275,-0.175
5516,-0.265,-0.150
5517,-0.270,-0.140
5518,-0.280,-0.170
5519,-0.275,-0.180
5520,-0.265,-0.165
5521,-0.265,-0.160
5522,-0.275,-0.160
5523,-0.270,-0.170
5524,-0.260,-0.160
5525,-0.260,-0.160
5526,-0.280,-0.185
5527,-0.275,-0.175
5528,-0.255,-0.160
5529,-0.255,-0.165
5530,-0.270,-0.170
5531,-0.275,-0.155
5532,-0.265,-0.160
5533,-0.270,-0.175
5534,-0.265,-0.165
5535,-0.265,-0.160
5536,-0.275,-0.160
5537,-0.240,-0.160
5538,-0.260,-0.160
5539,-0.280,-0.170
5540,-0.280,-0.185
5541,-0.260,-0.160
5542,-0.250,-0.155
5543,-0.260,-0.170
5544,-0.260,-0.175
5545,-0.255,-0.155
5546,-0.250,-0.140
5547,-0.265,-0.170
5548,-0.270,-0.180
5549,-0.255,-0.170
5550,-0.250,-0.170
5551,-0.270,-0.175
5552,-0.260,-0.175
5553,-0.240,-0.155
5554,-0.230,-0.145
5555,-0.215,-0.135
5556,-0.195,-0.110
5557,-0.155,-0.090
5558,-0.135,-0.090
5559,-0.145,-0.085
5560,-0.150,-0.090
5561,-0.120,-0.095
5562,-0.100,-0.085
5563,-0.090,-0.080
5564,-0.110,-0.095
5565,-0.125,-0.110
5566,-0.105,-0.130
5567,-0.105,-0.140
5568,-0.105,-0.145
5569,-0.130,-0.160
5570,-0.145,-0.170
5571,-0.155,-0.175
5572,-0.165,-0.175
5573,-0.185,-0.160
5574,-0.205,-0.150
5575,-0.210,-0.145
5576,-0.255,-0.165
5577,-0.270,-0.175
5578,-0.270,-0.185
5579,-0.290,-0.190
5580,-0.320,-0.205
5581,-0.330,-0.225
5582,-0.305,-0.205
5583,-0.310,-0.200
5584,-0.330,-0.205
5585,-0.325,-0.195
5586,-0.315,-0.205
5587,-0.320,-0.215
5588,-0.310,-0.200
5589,-0.325,-0.195
5590,-0.330,-0.200
5591,-0.315,-0.190
5592,-0.315,-0.195
5593,-0.360,-0.200
5594,-0.460,-0.195
5595,-0.555,-0.205
5596,-0.600,-0.130
5597,-0.545,0.010
5598,-0.310,0.120
5599,0.140,0.210
5600,0.295,0.230
5601,1.265,0.135
5602,1.685,0.255
5603,1.560,0.130
5604,0.915,-0.530
5605,0.245,-0.945
5606,-0.125,-0.880
5607,-0.315,-0.785
5608,-0.415,-0.675
5609,-0.415,-0.515
5610,-0.355,-0.340
5611,-0.280,-0.230
5612,-0.235,-0.185
5613,-0.260,-0.175
5614,-0.285,-0.180
5615,-0.260,-0.160
5616,-0.255,-0.145
5617,-0.270,-0.145
5618,-0.290,-0.155
5619,-0.290,-0.150
5620,-0.260,-0.140
5621,-0.260,-0.140
5622,-0.270,-0.145
5623,-0.275,-0.135
5624,-0.260,-0.125
5625,-0.255,-0.125
5626,-0.270,-0.135
5627,-0.270,-0.130
5628,-0.260,-0.120
5629,-0.255,-0.105
5630,-0.255,-0.120
5631,-0.265,-0.125
5632,-0.250,-0.120
5633,-0.245,-0.100
5634,-0.250,-0.095
5635,-0.255,-0.115
5636,-0.255,-0.105
5637,-0.235,-0.095
5638,-0.230,-0.090
5639,-0.240,-0.095
5640,-0.230,-0.090
5641,-0.225,-0.080
5642,-0.220,-0.070
5643,-0.220,-0.075
5644,-0.225,-0.085
5645,-0.200,-0.070
5646,-0.195,-0.065
5647,-0.215,-0.065
5648,-0.190,-0.060
5649,-0.175,-0.050
5650,-0.175,-0.050
5651,-0.185,-0.050
5652,-0.185,-0.045
5653,-0.170,-0.050
5654,-0.155,-0.040
5655,-0.145,-0.030
5656,-0.140,-0.030
5657,-0.110,-0.015
5658,-0.095,-0.005
5659,-0.090,0.000
5660,-0.095,0.010
5661,-0.075,0.015
5662,-0.045,0.020
5663,-0.025,0.020
5664,-0.015,0.030
5665,0.000,0.030
5666,0.025,0.045
5667,0.030,0.050
5668,0.045,0.050
5669,0.070,0.050
5670,0.085,0.050
5671,0.100,0.050
5672,0.125,0.075
5673,0.155,0.095
5674,0.180,0.090
5675,0.190,0.085
5676,0.225,0.090
5677,0.230,0.090
5678,0.260,0.095
5679,0.275,0.095
5680,0.275,0.095
5681,0.290,0.090
5682,0.305,0.080
5683,0.325,0.085
5684,0.320,0.075
5685,0.305,0.045
5686,0.295,0.040
5687,0.280,0.030
5688,0.230,0.020
5689,0.200,0.010
5690,0.180,0.000
5691,0.140,0.000
5692,0.110,0.005
5693,0.080,0.000
5694,0.035,-0.015
5695,0.010,-0.020
5696,-0.015,-0.020
5697,-0.050,-0.030
5698,-0.070,-0.035
5699,-0.090,-0.040
5700,-0.100,-0.040
5701,-0.145,-0.040
5702,-0.155,-0.055
5703,-0.145,-0.065
5704,-0.150,-0.070
5705,-0.180,-0.085
5706,-0.185,-0.085
5707,-0.175,-0.085
5708,-0.180,-0.080
5709,-0.195,-0.080
5710,-0.210,-0.090
5711,-0.200,-0.095
5712,-0.190,-0.090
5713,-0.190,-0.080
5714,-0.195,-0.090
5715,-0.195,-0.085
5716,-0.180,-0.075
5717,-0.180,-0.090
5718,-0.195,-0.100
5719,-0.185,-0.105
5720,-0.160,-0.100
5721,-0.170,-0.105
5722,-0.200,-0.105
5723,-0.200,-0.120
5724,-0.185,-0.115
5725,-0.185,-0.115
5726,-0.200,-0.115
5727,-0.210,-0.135
5728,-0.200,-0.145
5729,-0.190,-0.135
5730,-0.180,-0.130
5731,-0.200,-0.130
5732,-0.215,-0.140
5733,-0.205,-0.140
5734,-0.220,-0.140
5735,-0.240,-0.130
5736,-0.220,-0.140
5737,-0.215,-0.155
5738,-0.220,-0.155
5739,-0.235,-0.160
5740,-0.240,-0.175
5741,-0.220,-0.170
5742,-0.225,-0.160
5743,-0.245,-0.170
5744,-0.230,-0.180
5745,-0.220,-0.175
5746,-0.230,-0.160
5747,-0.255,-0.180
5748,-0.260,-0.185
5749,-0.230,-0.165
5750,-0.220,-0.160
5751,-0.255,-0.190
5752,-0.245,-0.185
5753,-0.235,-0.175
5754,-0.245,-0.180
5755,-0.255,-0.180
5756,-0.250,-0.180
5757,-0.235,-0.180
5758,-0.245,-0.180
5759,-0.255,-0.175
5760,-0.265,-0.195
5761,-0.270,-0.200
5762,-0.240,-0.185
5763,-0.250,-0.190
5764,-0.270,-0.200
5765,-0.260,-0.190
5766,-0.255,-0.175
5767,-0.265,-0.180
5768,-0.275,-0.190
5769,-0.270,-0.185
5770,-0.260,-0.185
5771,-0.265,-0.190
5772,-0.260,-0.185
5773,-0.265,-0.190
5774,-0.260,-0.185
5775,-0.255,-0.185
5776,-0.275,-0.185
5777,-0.265,-0.190
5778,-0.255,-0.190
5779,-0.255,-0.185
5780,-0.275,-0.200
5781,-0.275,-0.200
5782,-0.255,-0.195
5783,-0.260,-0.200
5784,-0.265,-0.195
5785,-0.260,-0.185
5786,-0.265,-0.190
5787,-0.270,-0.195
5788,-0.270,-0.180
5789,-0.280,-0.195
5790,-0.280,-0.205
5791,-0.255,-0.185
5792,-0.260,-0.185
5793,-0.275,-0.195
5794,-0.280,-0.190
5795,-0.270,-0.180
5796,-0.275,-0.185
5797,-0.285,-0.195
5798,-0.275,-0.190
5799,-0.270,-0.195
5800,-0.270,-0.190
5801,-0.270,-0.185
5802,-0.275,-0.195
5803,-0.275,-0.195
5804,-0.270,-0.175
5805,-0.270,-0.185
5806,-0.275,-0.205
5807,-0.265,-0.195
5808,-0.265,-0.185
5809,-0.270,-0.185
5810,-0.275,-0.185
5811,-0.275,-0.190
5812,-0.260,-0.185
5813,-0.255,-0.185
5814,-0.270,-0.185
5815,-0.270,-0.195
5816,-0.270,-0.190
5817,-0.275,-0.190
5818,-0.280,-0.195
5819,-0.270,-0.190
5820,-0.260,-0.190
5821,-0.270,-0.180
5822,-0.270,-0.185
5823,-0.275,-0.195
5824,-0.265,-0.190
5825,-0.260,-0.185
5826,-0.235,-0.150
5827,-0.215,-0.145
5828,-0.190,-0.135
5829,-0.160,-0.110
5830,-0.155,-0.105
5831,-0.150,-0.110
5832,-0.155,-0.105
5833,-0.145,-0.105
5834,-0.140,-0.110
5835,-0.135,-0.120
5836,-0.135,-0.110
5837,-0.135,-0.105
5838,-0.135,-0.130
5839,-0.130,-0.155
5840,-0.125,-0.165
5841,-0.135,-0.180
5842,-0.155,-0.185
5843,-0.170,-0.195
5844,-0.190,-0.175
5845,-0.210,-0.155
5846,-0.235,-0.160
5847,-0.265,-0.170
5848,-0.280,-0.185
5849,-0.290,-0.195
5850,-0.295,-0.195
5851,-0.315,-0.215
5852,-0.335,-0.230
5853,-0.320,-0.215
5854,-0.315,-0.215
5855,-0.340,-0.225
5856,-0.345,-0.230
5857,-0.340,-0.240
5858,-0.330,-0.225
5859,-0.320,-0.215
5860,-0.325,-0.225
5861,-0.325,-0.215
5862,-0.310,-0.205
5863,-0.320,-0.210
5864,-0.355,-0.210
5865,-0.420,-0.200
5866,-0.530,-0.205
5867,-0.585,-0.140
5868,-0.595,0.020
5869,-0.400,0.185
5870,-0.040,0.325
5871,0.490,0.385
5872,1.085,0.320
5873,1.680,0.405
5874,1.875,0.475
5875,1.840,0.420
5876,0.580,-0.790
5877,0.025,-0.905
5878,-0.220,-0.810
5879,-0.415,-0.765
5880,-0.500,-0.660
5881,-0.450,-0.490
5882,-0.355,-0.335
5883,-0.300,-0.240
5884,-0.280,-0.195
5885,-0.285,-0.190
5886,-0.295,-0.190
5887,-0.275,-0.160
5888,-0.275,-0.165
5889,-0.285,-0.170
5890,-0.275,-0.155
5891,-0.270,-0.140
5892,-0.270,-0.140
5893,-0.280,-0.150
5894,-0.275,-0.145
5895,-0.270,-0.130
5896,-0.275,-0.125
5897,-0.290,-0.155
5898,-0.275,-0.150
5899,-0.245,-0.135
5900,-0.240,-0.130
5901,-0.270,-0.130
5902,-0.270,-0.135
5903,-0.260,-0.130
5904,-0.255,-0.120
5905,-0.270,-0.105
5906,-0.265,-0.125
5907,-0.265,-0.135
5908,-0.235,-0.115
5909,-0.225,-0.115
5910,-0.250,-0.120
5911,-0.240,-0.120
5912,-0.235,-0.105
5913,-0.235,-0.100
5914,-0.235,-0.100
5915,-0.230,-0.090
5916,-0.215,-0.090
5917,-0.220,-0.095
5918,-0.235,-0.105
5919,-0.205,-0.095
5920,-0.185,-0.085
5921,-0.190,-0.075
5922,-0.200,-0.070
5923,-0.185,-0.075
5924,-0.175,-0.075
5925,-0.175,-0.070
5926,-0.150,-0.060
5927,-0.140,-0.055
5928,-0.135,-0.040
5929,-0.120,-0.035
5930,-0.115,-0.030
5931,-0.110,-0.035
5932,-0.095,-0.035
5933,-0.085,-0.025
5934,-0.085,-0.020
5935,-0.065,-0.020
5936,-0.030,-0.010
5937,-0.005,0.000
5938,-0.005,0.000
5939,0.005,0.005
5940,0.035,0.010
5941,0.085,0.020
5942,0.100,0.025
5943,0.120,0.025
5944,0.140,0.035
5945,0.170,0.040
5946,0.200,0.065
5947,0.210,0.055
5948,0.230,0.040
5949,0.265,0.055
5950,0.270,0.065
5951,0.275,0.050
5952,0.295,0.045
5953,0.315,0.045
5954,0.325,0.045
5955,0.335,0.040
5956,0.315,0.030
5957,0.310,0.040
5958,0.290,0.025
5959,0.260,0.020
5960,0.230,0.025
5961,0.215,0.020
5962,0.185,0.030
5963,0.140,0.015
5964,0.100,0.005
5965,0.070,0.005
5966,0.030,0.010
5967,0.000,0.005
5968,-0.025,-0.005
5969,-0.065,-0.020
5970,-0.095,-0.035
5971,-0.115,-0.050
5972,-0.140,-0.060
5973,-0.150,-0.065
5974,-0.145,-0.065
5975,-0.150,-0.065
5976,-0.190,-0.070
5977,-0.195,-0.075
5978,-0.185,-0.085
5979,-0.190,-0.085
5980,-0.200,-0.095
5981,-0.210,-0.100
5982,-0.200,-0.085
5983,-0.195,-0.080
5984,-0.205,-0.095
5985,-0.215,-0.100
5986,-0.195,-0.090
5987,-0.190,-0.085
5988,-0.205,-0.085
5989,-0.210,-0.080
5990,-0.185,-0.090
5991,-0.185,-0.105
5992,-0.195,-0.105
5993,-0.190,-0.100
5994,-0.185,-0.095
5995,-0.185,-0.095
5996,-0.180,-0.085
5997,-0.190,-0.110
5998,-0.210,-0.125
5999,-0.195,-0.115
6000,-0.190,-0.105
6001,-0.190,-0.110
6002,-0.200,-0.125
6003,-0.200,-0.135
6004,-0.205,-0.125
6005,-0.220,-0.125
6006,-0.225,-0.140
6007,-0.225,-0.150
6008,-0.215,-0.145
6009,-0.210,-0.140
6010,-0.225,-0.150
6011,-0.220,-0.150
6012,-0.210,-0.145
6013,-0.230,-0.145
6014,-0.240,-0.140
6015,-0.230,-0.155
6016,-0.225,-0.160
6017,-0.225,-0.150
6018,-0.225,-0.155
6019,-0.235,-0.175
6020,-0.220,-0.160
6021,-0.215,-0.145
6022,-0.245,-0.160
6023,-0.255,-0.180
6024,-0.235,-0.160
6025,-0.240,-0.150
6026,-0.255,-0.185
6027,-0.265,-0.185
6028,-0.230,-0.170
6029,-0.235,-0.175
6030,-0.255,-0.180
6031,-0.235,-0.175
6032,-0.235,-0.175
6033,-0.235,-0.175
6034,-0.250,-0.175
6035,-0.255,-0.175
6036,-0.245,-0.180
6037,-0.240,-0.180
6038,-0.235,-0.175
6039,-0.255,-0.180
6040,-0.255,-0.180
6041,-0.240,-0.175
6042,-0.250,-0.170
6043,-0.260,-0.165
6044,-0.255,-0.175
6045,-0.255,-0.165
6046,-0.240,-0.160
6047,-0.255,-0.190
6048,-0.260,-0.190
6049,-0.240,-0.175
6050,-0.235,-0.175
6051,-0.255,-0.185
6052,-0.255,-0.180
6053,-0.255,-0.175
6054,-0.255,-0.185
6055,-0.265,-0.180
6056,-0.265,-0.190
6057,-0.265,-0.195
6058,-0.260,-0.180
6059,-0.255,-0.175
6060,-0.270,-0.185
6061,-0.245,-0.180
6062,-0.250,-0.170
6063,-0.265,-0.165
6064,-0.270,-0.185
6065,-0.265,-0.180
6066,-0.235,-0.170
6067,-0.245,-0.175
6068,-0.255,-0.185
6069,-0.255,-0.170
6070,-0.245,-0.165
6071,-0.255,-0.180
6072,-0.265,-0.180
6073,-0.260,-0.175
6074,-0.255,-0.190
6075,-0.255,-0.190
6076,-0.240,-0.175
6077,-0.255,-0.185
6078,-0.250,-0.180
6079,-0.225,-0.175
6080,-0.240,-0.175
6081,-0.255,-0.180
6082,-0.240,-0.175
6083,-0.240,-0.170
6084,-0.255,-0.180
6085,-0.260,-0.185
6086,-0.240,-0.180
6087,-0.240,-0.170
6088,-0.250,-0.170
6089,-0.255,-0.180
6090,-0.245,-0.170
6091,-0.235,-0.160
6092,-0.245,-0.170
6093,-0.255,-0.175
6094,-0.240,-0.175
6095,-0.235,-0.185
6096,-0.240,-0.175
6097,-0.240,-0.170
6098,-0.230,-0.175
6099,-0.200,-0.145
6100,-0.185,-0.135
6101,-0.160,-0.095
6102,-0.155,-0.095
6103,-0.135,-0.095
6104,-0.125,-0.090
6105,-0.135,-0.085
6106,-0.130,-0.085
6107,-0.100,-0.070
6108,-0.085,-0.070
6109,-0.090,-0.095
6110,-0.100,-0.120
6111,-0.105,-0.125
6112,-0.100,-0.130
6113,-0.095,-0.145
6114,-0.100,-0.170
6115,-0.110,-0.180
6116,-0.130,-0.170
6117,-0.145,-0.175
6118,-0.175,-0.175
6119,-0.185,-0.150
6120,-0.205,-0.140
6121,-0.235,-0.155
6122,-0.255,-0.170
6123,-0.260,-0.175
6124,-0.270,-0.180
6125,-0.280,-0.185
6126,-0.305,-0.200
6127,-0.305,-0.210
6128,-0.300,-0.215
6129,-0.280,-0.200
6130,-0.300,-0.195
6131,-0.300,-0.200
6132,-0.295,-0.195
6133,-0.295,-0.190
6134,-0.300,-0.195
6135,-0.295,-0.200
6136,-0.290,-0.190
6137,-0.285,-0.190
6138,-0.330,-0.185
6139,-0.430,-0.185
6140,-0.525,-0.200
6141,-0.550,-0.120
6142,-0.490,0.045
6143,-0.290,0.155
6144,0.125,0.235
6145,0.685,0.240
6146,1.290,0.215
6147,1.735,0.330
6148,1.715,0.295
6149,1.090,-0.375
6150,0.850,-0.615
6151,-0.040,-0.865
6152,-0.250,-0.765
6153,-0.360,-0.670
6154,-0.365,-0.505
6155,-0.315,-0.330
6156,-0.250,-0.215
6157,-0.210,-0.150
6158,-0.210,-0.135
6159,-0.235,-0.155
6160,-0.250,-0.155
6161,-0.220,-0.135
6162,-0.215,-0.125
6163,-0.235,-0.130
6164,-0.255,-0.140
6165,-0.235,-0.130
6166,-0.225,-0.120
6167,-0.235,-0.120
6168,-0.250,-0.125
6169,-0.235,-0.115
6170,-0.225,-0.100
6171,-0.225,-0.085
6172,-0.220,-0.100
6173,-0.225,-0.120
6174,-0.215,-0.100
6175,-0.210,-0.095
6176,-0.210,-0.090
6177,-0.215,-0.090
6178,-0.210,-0.090
6179,-0.210,-0.080
6180,-0.215,-0.080
6181,-0.210,-0.085
6182,-0.200,-0.070
6183,-0.195,-0.060
6184,-0.190,-0.070
6185,-0.200,-0.075
6186,-0.190,-0.055
6187,-0.180,-0.045
6188,-0.190,-0.060
6189,-0.195,-0.075
6190,-0.170,-0.060
6191,-0.140,-0.045
6192,-0.155,-0.035
6193,-0.170,-0.035
6194,-0.165,-0.040
6195,-0.140,-0.025
6196,-0.135,-0.020
6197,-0.145,-0.015
6198,-0.145,-0.020
6199,-0.125,-0.020
6200,-0.115,-0.015
6201,-0.110,-0.015
6202,-0.115,-0.010
6203,-0.085,0.005
6204,-0.065,0.025
6205,-0.060,0.030
6206,-0.055,0.030
6207,-0.030,0.035
6208,-0.010,0.045
6209,-0.005,0.055
6210,0.005,0.060
6211,0.030,0.070
6212,0.060,0.085
6213,0.070,0.090
6214,0.070,0.085
6215,0.105,0.085
6216,0.135,0.105
6217,0.160,0.125
6218,0.175,0.125
6219,0.210,0.120
6220,0.250,0.120
6221,0.250,0.125
6222,0.260,0.140
6223,0.285,0.140
6224,0.300,0.130
6225,0.305,0.125
6226,0.310,0.115
6227,0.320,0.120
6228,0.345,0.125
6229,0.355,0.110
6230,0.340,0.090
6231,0.315,0.070
6232,0.305,0.050
6233,0.275,0.040
6234,0.240,0.040
6235,0.210,0.025
6236,0.190,0.015
6237,0.165,0.015
6238,0.110,0.005
6239,0.055,-0.005
6240,0.030,-0.010
6241,0.005,-0.010
6242,-0.020,-0.020
6243,-0.060,-0.030
6244,-0.075,-0.040
6245,-0.085,-0.040
6246,-0.100,-0.040
6247,-0.120,-0.040
6248,-0.125,-0.050
6249,-0.125,-0.050
6250,-0.130,-0.045
6251,-0.155,-0.045
6252,-0.160,-0.055
6253,-0.155,-0.065
6254,-0.155,-0.065
6255,-0.170,-0.075
6256,-0.170,-0.075
6257,-0.170,-0.065
6258,-0.170,-0.055
6259,-0.170,-0.055
6260,-0.175,-0.065
6261,-0.180,-0.065
6262,-0.155,-0.050
6263,-0.160,-0.065
6264,-0.180,-0.085
6265,-0.165,-0.075
6266,-0.145,-0.065
6267,-0.145,-0.065
6268,-0.155,-0.075
6269,-0.165,-0.095
6270,-0.155,-0.085
6271,-0.145,-0.075
6272,-0.150,-0.085
6273,-0.160,-0.095
6274,-0.155,-0.080
6275,-0.155,-0.075
6276,-0.175,-0.095
6277,-0.185,-0.110
6278,-0.170,-0.105
6279,-0.155,-0.100
6280,-0.170,-0.105
6281,-0.185,-0.115
6282,-0.180,-0.120
6283,-0.175,-0.120
6284,-0.185,-0.120
6285,-0.195,-0.125
6286,-0.190,-0.135
6287,-0.190,-0.140
6288,-0.205,-0.135
6289,-0.200,-0.135
6290,-0.195,-0.145
6291,-0.200,-0.150
6292,-0.190,-0.140
6293,-0.185,-0.140
6294,-0.195,-0.150
6295,-0.190,-0.145
6296,-0.180,-0.140
6297,-0.205,-0.145
6298,-0.210,-0.150
6299,-0.195,-0.150
6300,-0.195,-0.150
6301,-0.210,-0.150
6302,-0.210,-0.150
6303,-0.210,-0.160
6304,-0.205,-0.155
6305,-0.200,-0.150
6306,-0.210,-0.165
6307,-0.210,-0.160
6308,-0.190,-0.150
6309,-0.205,-0.150
6310,-0.220,-0.155
6311,-0.200,-0.155
6312,-0.190,-0.150
6313,-0.210,-0.145
6314,-0.210,-0.155
6315,-0.205,-0.160
6316,-0.200,-0.155
6317,-0.210,-0.150
6318,-0.220,-0.155
6319,-0.220,-0.165
6320,-0.200,-0.155
6321,-0.200,-0.160
6322,-0.220,-0.160
6323,-0.210,-0.160
6324,-0.190,-0.155
6325,-0.195,-0.150
6326,-0.200,-0.150
6327,-0.195,-0.160
6328,-0.195,-0.155
6329,-0.195,-0.150
6330,-0.200,-0.150
6331,-0.210,-0.160
6332,-0.195,-0.150
6333,-0.190,-0.155
6334,-0.210,-0.170
6335,-0.210,-0.170
6336,-0.190,-0.165
6337,-0.190,-0.175
6338,-0.200,-0.160
6339,-0.190,-0.150
6340,-0.190,-0.155
6341,-0.200,-0.160
6342,-0.210,-0.150
6343,-0.195,-0.150
6344,-0.185,-0.155
6345,-0.185,-0.150
6346,-0.175,-0.150
6347,-0.180,-0.155
6348,-0.190,-0.150
6349,-0.180,-0.150
6350,-0.175,-0.150
6351,-0.190,-0.150
6352,-0.195,-0.150
6353,-0.190,-0.160
6354,-0.190,-0.155
6355,-0.195,-0.140
6356,-0.195,-0.155
6357,-0.200,-0.180
6358,-0.195,-0.165
6359,-0.190,-0.150
6360,-0.185,-0.160
6361,-0.195,-0.165
6362,-0.175,-0.150
6363,-0.170,-0.140
6364,-0.190,-0.155
6365,-0.190,-0.155
6366,-0.170,-0.140
6367,-0.175,-0.140
6368,-0.195,-0.145
6369,-0.190,-0.150
6370,-0.180,-0.150
6371,-0.180,-0.130
6372,-0.185,-0.140
6373,-0.190,-0.155
6374,-0.185,-0.145
6375,-0.190,-0.140
6376,-0.190,-0.140
6377,-0.190,-0.150
6378,-0.190,-0.150
6379,-0.185,-0.135
6380,-0.185,-0.140
6381,-0.190,-0.160
6382,-0.180,-0.145
6383,-0.175,-0.140
6384,-0.190,-0.155
6385,-0.190,-0.165
6386,-0.150,-0.135
6387,-0.120,-0.110
6388,-0.095,-0.095
6389,-0.100,-0.095
6390,-0.095,-0.085
6391,-0.085,-0.065
6392,-0.065,-0.060
6393,-0.040,-0.045
6394,-0.010,-0.040
6395,0.000,-0.045
6396,0.000,-0.065
6397,-0.005,-0.090
6398,-0.005,-0.120
6399,-0.025,-0.125
6400,-0.035,-0.125
6401,-0.075,-0.125
6402,-0.085,-0.145
6403,-0.090,-0.155
6404,-0.115,-0.140
6405,-0.155,-0.135
6406,-0.180,-0.140
6407,-0.185,-0.155
6408,-0.195,-0.150
6409,-0.205,-0.145
6410,-0.230,-0.185
6411,-0.240,-0.195
6412,-0.225,-0.175
6413,-0.230,-0.180
6414,-0.250,-0.195
6415,-0.225,-0.185
6416,-0.220,-0.175
6417,-0.235,-0.185
6418,-0.240,-0.185
6419,-0.225,-0.175
6420,-0.215,-0.170
6421,-0.220,-0.175
6422,-0.235,-0.175
6423,-0.235,-0.170
6424,-0.285,-0.175
6425,-0.315,-0.175
6426,-0.485,-0.160
6427,-0.510,-0.075
6428,-0.425,0.090
6429,-0.170,0.220
6430,0.250,0.305
6431,0.820,0.270
6432,1.450,0.255
6433,1.865,0.420
6434,1.765,0.295
6435,1.045,-0.470
6436,0.340,-0.910
6437,-0.025,-0.845
6438,-0.235,-0.760
6439,-0.365,-0.670
6440,-0.340,-0.490
6441,-0.260,-0.325
6442,-0.220,-0.220
6443,-0.180,-0.155
6444,-0.160,-0.140
6445,-0.180,-0.145
6446,-0.185,-0.135
6447,-0.175,-0.125
6448,-0.170,-0.115
6449,-0.170,-0.105
6450,-0.170,-0.100
6451,-0.190,-0.105
6452,-0.200,-0.110
6453,-0.185,-0.095
6454,-0.180,-0.090
6455,-0.200,-0.105
6456,-0.205,-0.110
6457,-0.180,-0.090
6458,-0.170,-0.085
6459,-0.180,-0.085
6460,-0.185,-0.080
6461,-0.165,-0.075
6462,-0.160,-0.075
6463,-0.170,-0.080
6464,-0.170,-0.085
6465,-0.155,-0.075
6466,-0.155,-0.060
6467,-0.170,-0.050
6468,-0.170,-0.065
6469,-0.170,-0.080
6470,-0.160,-0.080
6471,-0.155,-0.065
6472,-0.150,-0.060
6473,-0.135,-0.050
6474,-0.125,-0.045
6475,-0.130,-0.040
6476,-0.150,-0.030
6477,-0.140,-0.030
6478,-0.125,-0.025
6479,-0.115,-0.030
6480,-0.125,-0.035
6481,-0.120,-0.035
6482,-0.095,-0.020
6483,-0.085,-0.020
6484,-0.095,-0.015
6485,-0.100,-0.015
6486,-0.075,-0.010
6487,-0.065,0.000
6488,-0.065,0.000
6489,-0.055,0.000
6490,-0.030,0.015
6491,-0.010,0.030
6492,-0.010,0.035
6493,-0.005,0.040
6494,0.020,0.055
6495,0.040,0.075
6496,0.050,0.085
6497,0.045,0.085
6498,0.070,0.095
6499,0.120,0.100
6500,0.140,0.105
6501,0.150,0.120
6502,0.165,0.115
6503,0.215,0.130
6504,0.235,0.145
6505,0.240,0.140
6506,0.270,0.135
