'sample interval','ECG1','ECG2'
'0.004 sec','mV','mV'
0,-0.065,-0.055
1,-0.055,-0.045
2,-0.055,-0.045
3,-0.050,-0.045
4,-0.045,-0.045
5,-0.040,-0.045
6,-0.035,-0.045
7,-0.035,-0.040
8,-0.035,-0.035
9,-0.030,-0.035
10,-0.025,-0.035
11,-0.025,-0.035
12,-0.025,-0.035
13,-0.020,-0.030
14,-0.015,-0.025
15,-0.010,-0.025
16,-0.005,-0.025
17,0.000,-0.025
18,0.005,-0.025
19,0.010,-0.020
20,0.015,-0.015
21,0.030,-0.010
22,0.035,-0.005
23,0.035,-0.005
24,0.040,-0.005
25,0.050,-0.005
26,0.060,-0.005
27,0.070,0.000
28,0.085,0.005
29,0.100,0.010
30,0.105,0.015
31,0.110,0.020
32,0.120,0.025
33,0.130,0.030
34,0.140,0.035
35,0.150,0.040
36,0.155,0.045
37,0.160,0.050
38,0.165,0.055
39,0.170,0.055
40,0.180,0.055
41,0.190,0.055
42,0.200,0.055
43,0.205,0.055
44,0.200,0.060
45,0.195,0.065
46,0.185,0.060
47,0.175,0.055
48,0.150,0.040
49,0.125,0.025
50,0.095,0.015
51,0.070,0.005
52,0.045,0.000
53,0.020,-0.005
54,0.000,-0.020
55,-0.020,-0.035
56,-0.040,-0.045
57,-0.055,-0.055
58,-0.065,-0.065
59,-0.075,-0.075
60,-0.080,-0.075
61,-0.085,-0.075
62,-0.095,-0.080
63,-0.105,-0.085
64,-0.110,-0.090
65,-0.115,-0.095
66,-0.115,-0.100
67,-0.115,-0.105
68,-0.110,-0.100
69,-0.105,-0.095
70,-0.110,-0.095
71,-0.115,-0.095
72,-0.115,-0.095
73,-0.115,-0.095
74,-0.110,-0.100
75,-0.105,-0.105
76,-0.105,-0.100
77,-0.105,-0.095
78,-0.110,-0.095
79,-0.115,-0.095
80,-0.110,-0.095
81,-0.105,-0.095
82,-0.105,-0.100
83,-0.105,-0.105
84,-0.105,-0.105
85,-0.105,-0.095
86,-0.105,-0.085
87,-0.105,-0.090
88,-0.105,-0.095
89,-0.105,-0.100
90,-0.105,-0.105
91,-0.100,-0.100
92,-0.095,-0.095
93,-0.090,-0.095
94,-0.085,-0.095
95,-0.085,-0.095
96,-0.085,-0.095
97,-0.090,-0.095
98,-0.095,-0.095
99,-0.095,-0.095
100,-0.095,-0.095
101,-0.090,-0.095
102,-0.085,-0.095
103,-0.090,-0.090
104,-0.095,-0.085
105,-0.095,-0.100
106,-0.095,-0.105
107,-0.095,-0.100
108,-0.095,-0.095
109,-0.100,-0.095
110,-0.105,-0.095
111,-0.105,-0.095
112,-0.105,-0.095
113,-0.105,-0.100
114,-0.105,-0.105
115,-0.100,-0.100
116,-0.100,-0.095
117,-0.110,-0.100
118,-0.115,-0.105
119,-0.110,-0.100
120,-0.105,-0.095
121,-0.105,-0.100
122,-0.105,-0.105
123,-0.105,-0.100
124,-0.105,-0.095
125,-0.105,-0.095
126,-0.105,-0.105
127,-0.105,-0.105
128,-0.095,-0.105
129,-0.085,-0.105
130,-0.080,-0.100
131,-0.075,-0.095
132,-0.070,-0.090
133,-0.065,-0.085
134,-0.060,-0.085
135,-0.055,-0.085
136,-0.050,-0.085
137,-0.045,-0.085
138,-0.040,-0.075
139,-0.030,-0.065
140,-0.015,-0.065
141,-0.005,-0.065
142,-0.005,-0.060
143,-0.005,-0.055
144,-0.010,-0.060
145,-0.015,-0.065
146,-0.015,-0.065
147,-0.025,-0.070
148,-0.050,-0.080
149,-0.065,-0.085
150,-0.070,-0.085
151,-0.080,-0.085
152,-0.090,-0.090
153,-0.095,-0.095
154,-0.100,-0.095
155,-0.105,-0.095
156,-0.110,-0.100
157,-0.115,-0.105
158,-0.115,-0.110
159,-0.115,-0.115
160,-0.120,-0.120
161,-0.125,-0.125
162,-0.120,-0.120
163,-0.115,-0.115
164,-0.120,-0.115
165,-0.125,-0.115
166,-0.125,-0.120
167,-0.125,-0.125
168,-0.125,-0.125
169,-0.120,-0.120
170,-0.115,-0.115
171,-0.115,-0.115
172,-0.115,-0.115
173,-0.115,-0.120
174,-0.115,-0.125
175,-0.110,-0.125
176,-0.105,-0.125
177,-0.100,-0.120
178,-0.100,-0.115
179,-0.140,-0.115
180,-0.145,-0.115
181,-0.080,-0.115
182,0.035,-0.115
183,0.235,-0.115
184,0.465,-0.105
185,0.735,-0.065
186,0.920,-0.040
187,1.010,-0.020
188,0.895,-0.030
189,0.565,-0.080
190,0.240,-0.155
191,-0.090,-0.255
192,-0.275,-0.330
193,-0.360,-0.400
194,-0.320,-0.410
195,-0.205,-0.385
196,-0.130,-0.300
197,-0.070,-0.185
198,-0.055,-0.125
199,-0.060,-0.080
200,-0.065,-0.065
201,-0.070,-0.060
202,-0.075,-0.055
203,-0.075,-0.060
204,-0.075,-0.065
205,-0.075,-0.065
206,-0.075,-0.065
207,-0.075,-0.065
208,-0.075,-0.065
209,-0.065,-0.055
210,-0.070,-0.055
211,-0.075,-0.055
212,-0.070,-0.060
213,-0.065,-0.065
214,-0.060,-0.060
215,-0.055,-0.055
216,-0.050,-0.055
217,-0.045,-0.055
218,-0.035,-0.050
219,-0.025,-0.045
220,-0.030,-0.045
221,-0.035,-0.045
222,-0.030,-0.045
223,-0.025,-0.045
224,-0.020,-0.040
225,-0.015,-0.035
226,-0.015,-0.030
227,-0.015,-0.025
228,-0.005,-0.030
229,0.005,-0.035
230,0.010,-0.030
231,0.015,-0.025
232,0.020,-0.020
233,0.030,-0.015
234,0.040,-0.015
235,0.045,-0.015
236,0.050,-0.010
237,0.060,-0.005
238,0.070,-0.005
239,0.080,0.000
240,0.090,0.010
241,0.095,0.015
242,0.100,0.020
243,0.110,0.025
244,0.120,0.030
245,0.135,0.035
246,0.150,0.040
247,0.160,0.045
248,0.170,0.050
249,0.180,0.055
250,0.175,0.055
251,0.200,0.060
252,0.205,0.055
253,0.205,0.060
254,0.205,0.065
255,0.210,0.065
256,0.215,0.065
257,0.200,0.060
258,0.185,0.055
259,0.170,0.050
260,0.155,0.045
261,0.130,0.020
262,0.110,0.005
263,0.085,0.000
264,0.060,-0.010
265,0.035,-0.025
266,0.010,-0.035
267,-0.020,-0.045
268,-0.040,-0.060
269,-0.055,-0.075
270,-0.065,-0.085
271,-0.080,-0.090
272,-0.090,-0.095
273,-0.100,-0.100
274,-0.105,-0.105
275,-0.110,-0.110
276,-0.115,-0.115
277,-0.120,-0.115
278,-0.125,-0.115
279,-0.120,-0.115
280,-0.115,-0.115
281,-0.120,-0.115
282,-0.125,-0.115
283,-0.120,-0.120
284,-0.115,-0.125
285,-0.115,-0.125
286,-0.115,-0.125
287,-0.115,-0.125
288,-0.115,-0.125
289,-0.115,-0.120
290,-0.115,-0.115
291,-0.115,-0.115
292,-0.110,-0.120
293,-0.105,-0.125
294,-0.105,-0.125
295,-0.105,-0.125
296,-0.105,-0.120
297,-0.105,-0.115
298,-0.100,-0.120
299,-0.095,-0.125
300,-0.100,-0.120
301,-0.105,-0.115
302,-0.100,-0.115
303,-0.095,-0.115
304,-0.100,-0.115
305,-0.105,-0.115
306,-0.100,-0.115
307,-0.095,-0.115
308,-0.090,-0.110
309,-0.085,-0.105
310,-0.090,-0.105
311,-0.095,-0.105
312,-0.090,-0.110
313,-0.085,-0.115
314,-0.090,-0.115
315,-0.095,-0.115
316,-0.095,-0.115
317,-0.095,-0.115
318,-0.095,-0.110
319,-0.095,-0.105
320,-0.100,-0.110
321,-0.105,-0.115
322,-0.100,-0.120
323,-0.095,-0.125
324,-0.100,-0.125
325,-0.105,-0.125
326,-0.105,-0.120
327,-0.105,-0.115
328,-0.105,-0.115
329,-0.105,-0.115
330,-0.105,-0.120
331,-0.105,-0.125
332,-0.105,-0.125
333,-0.105,-0.125
334,-0.105,-0.115
335,-0.110,-0.120
336,-0.115,-0.125
337,-0.115,-0.125
338,-0.115,-0.125
339,-0.110,-0.125
340,-0.105,-0.125
341,-0.105,-0.125
342,-0.105,-0.125
343,-0.105,-0.125
344,-0.105,-0.125
345,-0.100,-0.125
346,-0.095,-0.125
347,-0.085,-0.125
348,-0.075,-0.125
349,-0.065,-0.120
350,-0.055,-0.115
351,-0.055,-0.110
352,-0.055,-0.105
353,-0.055,-0.100
354,-0.055,-0.095
355,-0.040,-0.095
356,-0.035,-0.095
357,-0.030,-0.090
358,-0.020,-0.085
359,-0.010,-0.085
360,-0.005,-0.085
361,-0.005,-0.085
362,-0.005,-0.085
363,-0.010,-0.085
364,-0.015,-0.085
365,-0.015,-0.090
366,-0.030,-0.095
367,-0.060,-0.095
368,-0.065,-0.100
369,-0.070,-0.110
370,-0.080,-0.115
371,-0.090,-0.115
372,-0.095,-0.115
373,-0.100,-0.120
374,-0.105,-0.125
375,-0.105,-0.125
376,-0.115,-0.130
377,-0.115,-0.135
378,-0.115,-0.135
379,-0.115,-0.135
380,-0.115,-0.135
381,-0.115,-0.135
382,-0.115,-0.135
383,-0.115,-0.135
384,-0.115,-0.135
385,-0.115,-0.135
386,-0.115,-0.140
387,-0.115,-0.145
388,-0.110,-0.140
389,-0.105,-0.135
390,-0.105,-0.135
391,-0.105,-0.135
392,-0.100,-0.135
393,-0.095,-0.135
394,-0.100,-0.135
395,-0.105,-0.135
396,-0.110,-0.135
397,-0.120,-0.135
398,-0.135,-0.130
399,-0.090,-0.125
400,0.015,-0.130
401,0.195,-0.130
402,0.430,-0.115
403,0.695,-0.085
404,0.970,-0.055
405,1.020,-0.045
406,0.960,-0.045
407,0.700,-0.100
408,0.375,-0.175
409,0.045,-0.265
410,-0.280,-0.360
411,-0.310,-0.405
412,-0.280,-0.440
413,-0.190,-0.365
414,-0.095,-0.275
415,-0.080,-0.185
416,-0.070,-0.100
417,-0.070,-0.080
418,-0.075,-0.065
419,-0.075,-0.065
420,-0.075,-0.065
421,-0.075,-0.070
422,-0.075,-0.075
423,-0.075,-0.075
424,-0.075,-0.075
425,-0.075,-0.075
426,-0.075,-0.075
427,-0.070,-0.070
428,-0.065,-0.065
429,-0.070,-0.065
430,-0.075,-0.065
431,-0.065,-0.065
432,-0.055,-0.065
433,-0.055,-0.065
434,-0.055,-0.065
435,-0.045,-0.060
436,-0.035,-0.055
437,-0.035,-0.055
438,-0.035,-0.055
439,-0.030,-0.050
440,-0.025,-0.045
441,-0.025,-0.050
442,-0.020,-0.050
443,-0.010,-0.040
444,-0.005,-0.035
445,-0.010,-0.035
446,-0.010,-0.035
447,0.000,-0.030
448,0.010,-0.025
449,0.020,-0.025
450,0.025,-0.025
451,0.030,-0.020
452,0.040,-0.015
453,0.050,-0.010
454,0.055,-0.005
455,0.060,-0.005
456,0.065,-0.005
457,0.070,0.000
458,0.085,0.005
459,0.105,0.015
460,0.115,0.025
461,0.125,0.035
462,0.135,0.040
463,0.145,0.045
464,0.155,0.050
465,0.165,0.055
466,0.175,0.060
467,0.185,0.065
468,0.200,0.065
469,0.215,0.065
470,0.215,0.065
471,0.215,0.065
472,0.220,0.070
473,0.225,0.075
474,0.225,0.075
475,0.220,0.075
476,0.205,0.070
477,0.185,0.065
478,0.160,0.055
479,0.140,0.040
480,0.115,0.025
481,0.090,0.010
482,0.060,-0.005
483,0.035,-0.020
484,0.015,-0.035
485,-0.010,-0.050
486,-0.035,-0.060
487,-0.055,-0.075
488,-0.070,-0.090
489,-0.080,-0.095
490,-0.090,-0.095
491,-0.100,-0.100
492,-0.110,-0.110
493,-0.115,-0.115
494,-0.115,-0.115
495,-0.115,-0.115
496,-0.115,-0.115
497,-0.115,-0.115
498,-0.115,-0.115
499,-0.115,-0.115
500,-0.115,-0.115
501,-0.120,-0.120
502,-0.125,-0.125
503,-0.125,-0.120
504,-0.125,-0.115
505,-0.120,-0.115
506,-0.115,-0.115
507,-0.120,-0.115
508,-0.125,-0.115
509,-0.120,-0.120
510,-0.115,-0.125
511,-0.115,-0.120
512,-0.115,-0.115
513,-0.110,-0.115
514,-0.105,-0.115
515,-0.105,-0.115
516,-0.105,-0.115
517,-0.105,-0.115
518,-0.105,-0.115
519,-0.105,-0.115
520,-0.105,-0.115
521,-0.100,-0.110
522,-0.095,-0.105
523,-0.100,-0.110
524,-0.105,-0.115
525,-0.105,-0.115
526,-0.105,-0.115
527,-0.100,-0.115
528,-0.095,-0.115
529,-0.095,-0.110
530,-0.095,-0.105
531,-0.095,-0.105
532,-0.095,-0.105
533,-0.100,-0.110
534,-0.105,-0.115
535,-0.105,-0.115
536,-0.105,-0.115
537,-0.105,-0.115
538,-0.105,-0.115
539,-0.110,-0.115
540,-0.115,-0.115
541,-0.115,-0.115
542,-0.110,-0.115
543,-0.105,-0.115
544,-0.110,-0.115
545,-0.115,-0.115
546,-0.115,-0.115
547,-0.115,-0.115
548,-0.115,-0.115
549,-0.115,-0.115
550,-0.115,-0.120
551,-0.115,-0.125
552,-0.115,-0.120
553,-0.115,-0.115
554,-0.115,-0.120
555,-0.115,-0.125
556,-0.115,-0.120
557,-0.115,-0.115
558,-0.115,-0.120
559,-0.115,-0.125
560,-0.115,-0.120
561,-0.115,-0.115
562,-0.115,-0.115
563,-0.110,-0.115
564,-0.100,-0.120
565,-0.095,-0.125
566,-0.090,-0.120
567,-0.085,-0.115
568,-0.080,-0.110
569,-0.075,-0.105
570,-0.075,-0.105
571,-0.075,-0.105
572,-0.070,-0.100
573,-0.065,-0.095
574,-0.060,-0.095
575,-0.040,-0.090
576,-0.020,-0.080
577,-0.015,-0.075
578,-0.010,-0.075
579,-0.005,-0.075
580,-0.010,-0.080
581,-0.015,-0.085
582,-0.015,-0.080
583,-0.020,-0.075
584,-0.035,-0.085
585,-0.060,-0.090
586,-0.085,-0.095
587,-0.090,-0.105
588,-0.095,-0.115
589,-0.105,-0.115
590,-0.115,-0.115
591,-0.115,-0.115
592,-0.115,-0.115
593,-0.120,-0.120
594,-0.125,-0.125
595,-0.125,-0.130
596,-0.125,-0.135
597,-0.130,-0.135
598,-0.135,-0.135
599,-0.135,-0.130
600,-0.135,-0.125
601,-0.140,-0.125
602,-0.145,-0.125
603,-0.140,-0.125
604,-0.135,-0.125
605,-0.135,-0.130
606,-0.135,-0.130
607,-0.135,-0.120
608,-0.135,-0.115
609,-0.130,-0.120
610,-0.125,-0.125
611,-0.125,-0.125
612,-0.125,-0.125
613,-0.125,-0.125
614,-0.135,-0.125
615,-0.150,-0.120
616,-0.145,-0.115
617,-0.130,-0.115
618,-0.005,-0.115
619,0.140,-0.120
620,0.410,-0.110
621,0.695,-0.090
622,0.900,-0.050
623,1.095,-0.010
624,0.885,-0.025
625,1.105,-0.005
626,0.320,-0.150
627,-0.005,-0.245
628,-0.230,-0.335
629,-0.425,-0.415
630,-0.315,-0.405
631,-0.210,-0.385
632,-0.155,-0.280
633,-0.105,-0.185
634,-0.095,-0.125
635,-0.085,-0.075
636,-0.095,-0.070
637,-0.105,-0.065
638,-0.105,-0.065
639,-0.105,-0.065
640,-0.105,-0.065
641,-0.105,-0.065
642,-0.105,-0.070
643,-0.105,-0.075
644,-0.105,-0.070
645,-0.105,-0.065
646,-0.100,-0.065
647,-0.095,-0.065
648,-0.100,-0.065
649,-0.105,-0.065
650,-0.100,-0.065
651,-0.095,-0.065
652,-0.090,-0.065
653,-0.085,-0.065
654,-0.080,-0.060
655,-0.075,-0.055
656,-0.075,-0.055
657,-0.070,-0.055
658,-0.060,-0.055
659,-0.055,-0.055
660,-0.055,-0.055
661,-0.055,-0.050
662,-0.050,-0.040
663,-0.045,-0.035
664,-0.045,-0.030
665,-0.045,-0.025
666,-0.040,-0.030
667,-0.025,-0.030
668,-0.015,-0.025
669,-0.010,-0.020
670,-0.005,-0.015
671,0.000,-0.010
672,0.005,-0.005
673,0.015,-0.005
674,0.025,-0.005
675,0.035,-0.005
676,0.045,-0.005
677,0.055,0.005
678,0.065,0.015
679,0.070,0.025
680,0.075,0.035
681,0.085,0.040
682,0.100,0.045
683,0.115,0.045
684,0.125,0.045
685,0.135,0.045
686,0.145,0.045
687,0.155,0.055
688,0.165,0.065
689,0.170,0.065
690,0.175,0.065
691,0.175,0.065
692,0.175,0.065
693,0.175,0.070
694,0.170,0.070
695,0.150,0.060
696,0.130,0.050
697,0.105,0.040
698,0.080,0.025
699,0.060,0.010
700,0.035,0.000
701,0.005,-0.010
702,-0.020,-0.025
703,-0.040,-0.040
704,-0.060,-0.055
705,-0.080,-0.070
706,-0.095,-0.075
707,-0.110,-0.080
708,-0.120,-0.085
709,-0.135,-0.095
710,-0.140,-0.100
711,-0.145,-0.105
712,-0.155,-0.105
713,-0.165,-0.105
714,-0.165,-0.115
715,-0.165,-0.125
716,-0.165,-0.125
717,-0.165,-0.125
718,-0.165,-0.120
719,-0.165,-0.115
720,-0.165,-0.115
721,-0.165,-0.115
722,-0.165,-0.120
723,-0.165,-0.125
724,-0.165,-0.125
725,-0.165,-0.125
726,-0.165,-0.120
727,-0.165,-0.115
728,-0.165,-0.120
729,-0.165,-0.125
730,-0.150,-0.125
731,-0.145,-0.125
732,-0.145,-0.120
733,-0.145,-0.115
734,-0.145,-0.115
735,-0.145,-0.115
736,-0.145,-0.115
737,-0.145,-0.115
738,-0.145,-0.115
739,-0.145,-0.115
740,-0.140,-0.115
741,-0.135,-0.115
742,-0.140,-0.110
743,-0.145,-0.105
744,-0.140,-0.110
745,-0.135,-0.115
746,-0.135,-0.115
747,-0.135,-0.115
748,-0.135,-0.110
749,-0.135,-0.105
750,-0.135,-0.105
751,-0.135,-0.105
752,-0.135,-0.105
753,-0.140,-0.110
754,-0.145,-0.115
755,-0.145,-0.115
756,-0.145,-0.115
757,-0.150,-0.115
758,-0.155,-0.115
759,-0.155,-0.115
760,-0.155,-0.115
761,-0.155,-0.120
762,-0.155,-0.125
763,-0.150,-0.120
764,-0.145,-0.115
765,-0.145,-0.115
766,-0.145,-0.115
767,-0.150,-0.120
768,-0.155,-0.125
769,-0.155,-0.125
770,-0.155,-0.125
771,-0.155,-0.125
772,-0.155,-0.125
773,-0.160,-0.125
774,-0.165,-0.125
775,-0.160,-0.125
776,-0.155,-0.125
777,-0.155,-0.130
778,-0.155,-0.135
779,-0.155,-0.130
780,-0.155,-0.125
781,-0.155,-0.120
782,-0.155,-0.115
783,-0.155,-0.120
784,-0.155,-0.125
785,-0.155,-0.125
786,-0.145,-0.125
787,-0.130,-0.125
788,-0.125,-0.125
789,-0.125,-0.120
790,-0.125,-0.115
791,-0.120,-0.110
792,-0.110,-0.105
793,-0.105,-0.105
794,-0.095,-0.100
795,-0.085,-0.095
796,-0.080,-0.090
797,-0.075,-0.085
798,-0.065,-0.085
799,-0.055,-0.085
800,-0.050,-0.080
801,-0.045,-0.075
802,-0.050,-0.075
803,-0.055,-0.075
804,-0.060,-0.080
805,-0.070,-0.085
806,-0.090,-0.090
807,-0.105,-0.095
808,-0.110,-0.100
809,-0.115,-0.105
810,-0.125,-0.105
811,-0.135,-0.105
812,-0.135,-0.110
813,-0.140,-0.115
814,-0.150,-0.120
815,-0.155,-0.125
816,-0.160,-0.130
817,-0.165,-0.135
818,-0.160,-0.130
819,-0.155,-0.125
820,-0.160,-0.125
821,-0.165,-0.125
822,-0.170,-0.130
823,-0.175,-0.135
824,-0.170,-0.130
825,-0.165,-0.125
826,-0.165,-0.125
827,-0.165,-0.125
828,-0.165,-0.125
829,-0.165,-0.125
830,-0.160,-0.130
831,-0.155,-0.135
832,-0.155,-0.130
833,-0.155,-0.125
834,-0.145,-0.125
835,-0.150,-0.120
836,-0.155,-0.115
837,-0.180,-0.115
838,-0.200,-0.115
839,-0.150,-0.120
840,-0.080,-0.125
841,0.080,-0.120
842,0.270,-0.115
843,0.540,-0.095
844,0.780,-0.065
845,0.935,-0.025
846,0.955,-0.005
847,0.635,-0.045
848,0.315,-0.110
849,-0.015,-0.210
850,-0.260,-0.300
851,-0.375,-0.365
852,-0.400,-0.405
853,-0.285,-0.395
854,-0.200,-0.340
855,-0.135,-0.235
856,-0.105,-0.160
857,-0.110,-0.100
858,-0.120,-0.070
859,-0.130,-0.060
860,-0.135,-0.055
861,-0.135,-0.060
862,-0.135,-0.065
863,-0.135,-0.065
864,-0.135,-0.065
865,-0.130,-0.065
866,-0.125,-0.065
867,-0.130,-0.065
868,-0.135,-0.065
869,-0.130,-0.065
870,-0.125,-0.065
871,-0.120,-0.065
872,-0.115,-0.065
873,-0.110,-0.060
874,-0.105,-0.055
875,-0.105,-0.055
876,-0.100,-0.055
877,-0.095,-0.055
878,-0.090,-0.055
879,-0.085,-0.055
880,-0.085,-0.050
881,-0.085,-0.045
882,-0.080,-0.040
883,-0.075,-0.035
884,-0.070,-0.035
885,-0.065,-0.035
886,-0.060,-0.035
887,-0.055,-0.035
888,-0.050,-0.030
889,-0.045,-0.025
890,-0.040,-0.025
891,-0.035,-0.025
892,-0.025,-0.025
893,-0.015,-0.025
894,-0.005,-0.020
895,0.005,-0.015
896,0.020,0.000
897,0.025,0.005
898,0.025,0.005
899,0.030,0.010
900,0.045,0.020
901,0.060,0.025
902,0.070,0.025
903,0.085,0.030
904,0.100,0.040
905,0.110,0.045
906,0.120,0.050
907,0.125,0.055
908,0.125,0.055
909,0.130,0.055
910,0.140,0.060
911,0.145,0.065
912,0.150,0.065
913,0.155,0.065
914,0.150,0.060
915,0.145,0.055
916,0.140,0.055
917,0.120,0.045
918,0.105,0.035
919,0.085,0.030
920,0.065,0.025
921,0.040,0.010
922,0.015,-0.005
923,-0.010,-0.020
924,-0.035,-0.035
925,-0.055,-0.045
926,-0.075,-0.055
927,-0.090,-0.060
928,-0.105,-0.065
929,-0.120,-0.075
930,-0.135,-0.085
931,-0.145,-0.090
932,-0.155,-0.095
933,-0.155,-0.100
934,-0.155,-0.105
935,-0.155,-0.110
936,-0.155,-0.115
937,-0.160,-0.115
938,-0.165,-0.115
939,-0.165,-0.115
940,-0.165,-0.115
941,-0.170,-0.115
942,-0.175,-0.115
943,-0.170,-0.115
944,-0.165,-0.115
945,-0.170,-0.115
946,-0.175,-0.115
947,-0.170,-0.115
948,-0.165,-0.115
949,-0.160,-0.115
950,-0.155,-0.115
951,-0.155,-0.115
952,-0.155,-0.115
953,-0.150,-0.110
954,-0.145,-0.105
955,-0.150,-0.105
956,-0.155,-0.105
957,-0.155,-0.105
958,-0.155,-0.105
959,-0.145,-0.105
960,-0.150,-0.105
961,-0.155,-0.105
962,-0.150,-0.105
963,-0.145,-0.105
964,-0.140,-0.105
965,-0.135,-0.105
966,-0.135,-0.105
967,-0.135,-0.105
968,-0.140,-0.100
969,-0.145,-0.095
970,-0.145,-0.100
971,-0.145,-0.105
972,-0.145,-0.105
973,-0.145,-0.105
974,-0.140,-0.105
975,-0.135,-0.105
976,-0.145,-0.105
977,-0.155,-0.105
978,-0.150,-0.110
979,-0.145,-0.115
980,-0.145,-0.115
981,-0.145,-0.115
982,-0.145,-0.110
983,-0.145,-0.105
984,-0.145,-0.110
985,-0.145,-0.115
986,-0.145,-0.115
987,-0.145,-0.115
988,-0.150,-0.115
989,-0.155,-0.115
990,-0.150,-0.110
991,-0.150,-0.105
992,-0.160,-0.110
993,-0.165,-0.115
994,-0.160,-0.115
995,-0.155,-0.115
996,-0.155,-0.120
997,-0.155,-0.125
998,-0.150,-0.120
999,-0.145,-0.115
1000,-0.145,-0.115
1001,-0.145,-0.115
1002,-0.145,-0.115
1003,-0.145,-0.115
1004,-0.145,-0.115
1005,-0.140,-0.115
1006,-0.135,-0.115
1007,-0.135,-0.115
1008,-0.135,-0.115
1009,-0.120,-0.110
1010,-0.105,-0.105
1011,-0.100,-0.100
1012,-0.095,-0.095
1013,-0.095,-0.090
1014,-0.095,-0.085
1015,-0.090,-0.085
1016,-0.080,-0.085
1017,-0.065,-0.080
1018,-0.055,-0.075
1019,-0.050,-0.075
1020,-0.045,-0.075
1021,-0.040,-0.070
1022,-0.040,-0.065
1023,-0.050,-0.065
1024,-0.055,-0.070
1025,-0.060,-0.080
1026,-0.070,-0.085
1027,-0.085,-0.085
1028,-0.100,-0.085
1029,-0.110,-0.090
1030,-0.115,-0.095
1031,-0.120,-0.100
1032,-0.125,-0.105
1033,-0.130,-0.110
1034,-0.140,-0.115
1035,-0.150,-0.120
1036,-0.155,-0.125
1037,-0.155,-0.125
1038,-0.155,-0.125
1039,-0.155,-0.125
1040,-0.155,-0.125
1041,-0.155,-0.125
1042,-0.155,-0.125
1043,-0.155,-0.125
1044,-0.150,-0.120
1045,-0.145,-0.115
1046,-0.150,-0.120
1047,-0.155,-0.125
1048,-0.150,-0.125
1049,-0.145,-0.125
1050,-0.145,-0.125
1051,-0.145,-0.125
1052,-0.140,-0.120
1053,-0.135,-0.115
1054,-0.140,-0.120
1055,-0.145,-0.125
1056,-0.145,-0.120
1057,-0.150,-0.115
1058,-0.170,-0.120
1059,-0.160,-0.125
1060,-0.085,-0.125
1061,0.035,-0.125
1062,0.220,-0.115
1063,0.445,-0.095
1064,0.710,-0.075
1065,0.870,-0.045
1066,0.935,-0.005
1067,0.775,-0.020
1068,0.445,-0.080
1069,0.120,-0.170
1070,-0.210,-0.270
1071,-0.355,-0.340
1072,-0.415,-0.400
1073,-0.345,-0.410
1074,-0.225,-0.400
1075,-0.155,-0.310
1076,-0.095,-0.195
1077,-0.085,-0.130
1078,-0.085,-0.075
1079,-0.090,-0.065
1080,-0.100,-0.060
1081,-0.105,-0.060
1082,-0.105,-0.070
1083,-0.105,-0.075
1084,-0.105,-0.075
1085,-0.105,-0.070
1086,-0.105,-0.065
1087,-0.110,-0.065
1088,-0.115,-0.065
1089,-0.105,-0.070
1090,-0.095,-0.075
1091,-0.090,-0.070
1092,-0.085,-0.065
1093,-0.085,-0.060
1094,-0.085,-0.055
1095,-0.080,-0.055
1096,-0.075,-0.055
1097,-0.075,-0.060
1098,-0.075,-0.065
1099,-0.075,-0.060
1100,-0.075,-0.055
1101,-0.065,-0.055
1102,-0.055,-0.055
1103,-0.055,-0.055
1104,-0.055,-0.055
1105,-0.050,-0.055
1106,-0.045,-0.055
1107,-0.040,-0.050
1108,-0.035,-0.045
1109,-0.030,-0.040
1110,-0.025,-0.035
1111,-0.020,-0.035
1112,-0.010,-0.035
1113,0.000,-0.035
1114,0.010,-0.035
1115,0.020,-0.030
1116,0.025,-0.025
1117,0.030,-0.020
1118,0.035,-0.010
1119,0.040,0.000
1120,0.055,0.005
1121,0.070,0.005
1122,0.080,0.005
1123,0.090,0.010
1124,0.100,0.015
1125,0.095,0.015
1126,0.120,0.025
1127,0.125,0.025
1128,0.135,0.030
1129,0.145,0.035
1130,0.150,0.040
1131,0.155,0.045
1132,0.155,0.045
1133,0.155,0.045
1134,0.150,0.040
1135,0.145,0.035
1136,0.150,0.030
1137,0.155,0.025
1138,0.140,0.025
1139,0.120,0.025
1140,0.100,0.015
1141,0.080,0.005
1142,0.060,-0.005
1143,0.035,-0.020
1144,0.010,-0.035
1145,-0.010,-0.045
1146,-0.035,-0.060
1147,-0.055,-0.065
1148,-0.075,-0.070
1149,-0.095,-0.080
1150,-0.115,-0.090
1151,-0.125,-0.100
1152,-0.125,-0.110
1153,-0.125,-0.115
1154,-0.130,-0.115
1155,-0.135,-0.115
1156,-0.140,-0.115
1157,-0.145,-0.115
1158,-0.140,-0.120
1159,-0.135,-0.125
1160,-0.135,-0.125
1161,-0.135,-0.125
1162,-0.140,-0.125
1163,-0.145,-0.125
1164,-0.145,-0.120
1165,-0.145,-0.115
1166,-0.150,-0.115
1167,-0.150,-0.120
1168,-0.145,-0.125
1169,-0.140,-0.125
1170,-0.135,-0.125
1171,-0.135,-0.120
1172,-0.135,-0.115
1173,-0.130,-0.115
1174,-0.125,-0.115
1175,-0.125,-0.115
1176,-0.125,-0.115
1177,-0.125,-0.115
1178,-0.125,-0.115
1179,-0.125,-0.115
1180,-0.125,-0.115
1181,-0.125,-0.115
1182,-0.125,-0.115
1183,-0.125,-0.120
1184,-0.125,-0.125
1185,-0.120,-0.120
1186,-0.115,-0.115
1187,-0.115,-0.115
1188,-0.115,-0.115
1189,-0.115,-0.120
1190,-0.115,-0.125
1191,-0.115,-0.125
1192,-0.115,-0.125
1193,-0.115,-0.125
1194,-0.115,-0.125
1195,-0.120,-0.120
1196,-0.125,-0.115
1197,-0.125,-0.115
1198,-0.125,-0.115
1199,-0.125,-0.120
1200,-0.125,-0.125
1201,-0.125,-0.125
1202,-0.125,-0.125
1203,-0.130,-0.125
1204,-0.135,-0.125
1205,-0.135,-0.125
1206,-0.135,-0.125
1207,-0.135,-0.125
1208,-0.135,-0.125
1209,-0.135,-0.125
1210,-0.135,-0.120
1211,-0.135,-0.115
1212,-0.140,-0.120
1213,-0.145,-0.125
1214,-0.135,-0.130
1215,-0.125,-0.135
1216,-0.130,-0.130
1217,-0.135,-0.125
1218,-0.135,-0.125
1219,-0.135,-0.125
1220,-0.130,-0.125
1221,-0.125,-0.125
1222,-0.130,-0.125
1223,-0.135,-0.125
1224,-0.125,-0.125
1225,-0.115,-0.125
1226,-0.110,-0.120
1227,-0.105,-0.115
1228,-0.105,-0.115
1229,-0.105,-0.115
1230,-0.090,-0.115
1231,-0.085,-0.115
1232,-0.080,-0.110
1233,-0.075,-0.105
1234,-0.075,-0.100
1235,-0.070,-0.095
1236,-0.055,-0.090
1237,-0.045,-0.085
1238,-0.040,-0.090
1239,-0.035,-0.095
1240,-0.035,-0.090
1241,-0.035,-0.085
1242,-0.035,-0.090
1243,-0.040,-0.095
1244,-0.050,-0.100
1245,-0.065,-0.105
1246,-0.080,-0.105
1247,-0.095,-0.105
1248,-0.110,-0.110
1249,-0.115,-0.115
1250,-0.115,-0.115
1251,-0.130,-0.125
1252,-0.135,-0.135
1253,-0.140,-0.135
1254,-0.145,-0.135
1255,-0.145,-0.135
1256,-0.145,-0.135
1257,-0.155,-0.140
1258,-0.165,-0.145
1259,-0.160,-0.145
1260,-0.155,-0.145
1261,-0.155,-0.145
1262,-0.155,-0.145
1263,-0.150,-0.140
1264,-0.145,-0.135
1265,-0.140,-0.140
1266,-0.135,-0.145
1267,-0.140,-0.145
1268,-0.145,-0.145
1269,-0.140,-0.145
1270,-0.135,-0.145
1271,-0.135,-0.140
1272,-0.135,-0.135
1273,-0.140,-0.135
1274,-0.150,-0.135
1275,-0.165,-0.140
1276,-0.160,-0.145
1277,-0.130,-0.140
1278,-0.015,-0.135
1279,0.135,-0.130
1280,0.370,-0.115
1281,0.635,-0.100
1282,0.830,-0.070
1283,1.000,-0.035
1284,0.820,-0.050
1285,0.550,-0.085
1286,0.230,-0.170
1287,-0.095,-0.260
1288,-0.290,-0.335
1289,-0.460,-0.410
1290,-0.360,-0.415
1291,-0.240,-0.420
1292,-0.165,-0.320
1293,-0.095,-0.215
1294,-0.090,-0.155
1295,-0.085,-0.095
1296,-0.090,-0.085
1297,-0.095,-0.075
1298,-0.105,-0.080
1299,-0.115,-0.085
1300,-0.110,-0.090
1301,-0.105,-0.095
1302,-0.105,-0.085
1303,-0.105,-0.075
1304,-0.105,-0.080
1305,-0.105,-0.085
1306,-0.100,-0.085
1307,-0.095,-0.085
1308,-0.090,-0.085
1309,-0.085,-0.085
1310,-0.080,-0.080
1311,-0.075,-0.075
1312,-0.070,-0.075
1313,-0.065,-0.075
1314,-0.070,-0.075
1315,-0.075,-0.075
1316,-0.070,-0.075
1317,-0.065,-0.075
1318,-0.060,-0.070
1319,-0.055,-0.065
1320,-0.060,-0.065
1321,-0.065,-0.065
1322,-0.060,-0.060
1323,-0.050,-0.055
1324,-0.040,-0.055
1325,-0.035,-0.055
1326,-0.030,-0.050
1327,-0.020,-0.045
1328,-0.010,-0.040
1329,-0.005,-0.035
1330,0.000,-0.035
1331,0.005,-0.035
1332,0.010,-0.035
1333,0.020,-0.030
1334,0.035,-0.015
1335,0.040,-0.015
1336,0.045,-0.015
1337,0.055,-0.010
1338,0.065,-0.005
1339,0.075,0.000
1340,0.085,0.005
1341,0.095,0.015
1342,0.105,0.025
1343,0.115,0.025
1344,0.125,0.025
1345,0.135,0.025
1346,0.145,0.025
1347,0.150,0.035
1348,0.155,0.045
1349,0.160,0.050
1350,0.160,0.055
1351,0.145,0.050
1352,0.135,0.045
1353,0.140,0.040
1354,0.140,0.035
1355,0.125,0.030
1356,0.105,0.020
1357,0.085,0.010
1358,0.065,0.000
1359,0.035,-0.015
1360,0.010,-0.030
1361,-0.015,-0.045
1362,-0.035,-0.060
1363,-0.055,-0.070
1364,-0.075,-0.075
1365,-0.090,-0.080
1366,-0.110,-0.090
1367,-0.130,-0.100
1368,-0.135,-0.110
1369,-0.140,-0.120
1370,-0.145,-0.125
1371,-0.150,-0.125
1372,-0.155,-0.125
1373,-0.155,-0.125
1374,-0.155,-0.125
1375,-0.155,-0.125
1376,-0.155,-0.135
1377,-0.155,-0.135
1378,-0.160,-0.135
1379,-0.165,-0.135
1380,-0.160,-0.135
1381,-0.155,-0.135
1382,-0.160,-0.135
1383,-0.165,-0.135
1384,-0.165,-0.135
1385,-0.165,-0.135
1386,-0.160,-0.135
1387,-0.155,-0.135
1388,-0.150,-0.130
1389,-0.145,-0.125
1390,-0.150,-0.130
1391,-0.155,-0.135
1392,-0.155,-0.135
1393,-0.155,-0.135
1394,-0.150,-0.135
1395,-0.145,-0.135
1396,-0.145,-0.135
1397,-0.145,-0.135
1398,-0.145,-0.130
1399,-0.145,-0.125
1400,-0.145,-0.125
1401,-0.145,-0.125
1402,-0.140,-0.125
1403,-0.135,-0.125
1404,-0.135,-0.125
1405,-0.135,-0.125
1406,-0.135,-0.125
1407,-0.135,-0.125
1408,-0.135,-0.125
1409,-0.135,-0.125
1410,-0.140,-0.125
1411,-0.145,-0.125
1412,-0.140,-0.125
1413,-0.135,-0.125
1414,-0.140,-0.120
1415,-0.145,-0.120
1416,-0.145,-0.130
1417,-0.145,-0.135
1418,-0.145,-0.135
1419,-0.145,-0.130
1420,-0.145,-0.125
1421,-0.150,-0.125
1422,-0.155,-0.125
1423,-0.150,-0.125
1424,-0.145,-0.125
1425,-0.145,-0.130
1426,-0.145,-0.135
1427,-0.150,-0.130
1428,-0.155,-0.125
1429,-0.155,-0.125
1430,-0.155,-0.125
1431,-0.160,-0.125
1432,-0.165,-0.125
1433,-0.160,-0.130
1434,-0.155,-0.135
1435,-0.155,-0.135
1436,-0.155,-0.135
1437,-0.155,-0.130
1438,-0.155,-0.125
1439,-0.150,-0.125
1440,-0.145,-0.125
1441,-0.150,-0.130
1442,-0.155,-0.135
1443,-0.155,-0.130
1444,-0.155,-0.125
1445,-0.150,-0.125
1446,-0.145,-0.125
1447,-0.140,-0.125
1448,-0.130,-0.125
1449,-0.120,-0.125
1450,-0.115,-0.125
1451,-0.110,-0.120
1452,-0.105,-0.115
1453,-0.100,-0.110
1454,-0.095,-0.105
1455,-0.090,-0.100
1456,-0.080,-0.095
1457,-0.070,-0.095
1458,-0.065,-0.095
1459,-0.055,-0.085
1460,-0.050,-0.085
1461,-0.045,-0.085
1462,-0.055,-0.085
1463,-0.065,-0.085
1464,-0.065,-0.095
1465,-0.065,-0.105
1466,-0.085,-0.100
1467,-0.105,-0.095
1468,-0.110,-0.105
1469,-0.115,-0.115
1470,-0.130,-0.115
1471,-0.145,-0.115
1472,-0.150,-0.125
1473,-0.155,-0.135
1474,-0.155,-0.135
1475,-0.155,-0.135
1476,-0.155,-0.135
1477,-0.155,-0.135
1478,-0.160,-0.140
1479,-0.165,-0.145
1480,-0.165,-0.145
1481,-0.165,-0.145
1482,-0.160,-0.140
1483,-0.155,-0.135
1484,-0.160,-0.135
1485,-0.165,-0.135
1486,-0.165,-0.135
1487,-0.165,-0.135
1488,-0.165,-0.135
1489,-0.165,-0.135
1490,-0.160,-0.135
1491,-0.155,-0.135
1492,-0.155,-0.135
1493,-0.155,-0.135
1494,-0.155,-0.135
1495,-0.155,-0.135
1496,-0.160,-0.140
1497,-0.165,-0.145
1498,-0.170,-0.140
1499,-0.055,-0.135
1500,-0.175,-0.135
1501,0.325,-0.115
1502,0.575,-0.095
1503,0.810,-0.065
1504,1.015,-0.035
1505,0.875,-0.050
1506,0.710,-0.075
1507,0.385,-0.160
1508,0.060,-0.250
1509,-0.235,-0.350
1510,-0.445,-0.425
1511,-0.345,-0.430
1512,-0.255,-0.405
1513,-0.180,-0.295
1514,-0.125,-0.195
1515,-0.115,-0.135
1516,-0.105,-0.090
1517,-0.115,-0.075
1518,-0.125,-0.065
1519,-0.130,-0.070
1520,-0.135,-0.075
1521,-0.130,-0.075
1522,-0.125,-0.075
1523,-0.125,-0.075
1524,-0.125,-0.075
1525,-0.125,-0.075
1526,-0.125,-0.075
1527,-0.120,-0.070
1528,-0.115,-0.065
1529,-0.115,-0.065
1530,-0.115,-0.065
1531,-0.110,-0.065
1532,-0.105,-0.065
1533,-0.100,-0.065
1534,-0.095,-0.065
1535,-0.095,-0.060
1536,-0.095,-0.055
1537,-0.090,-0.055
1538,-0.085,-0.055
1539,-0.085,-0.050
1540,-0.085,-0.045
1541,-0.080,-0.045
1542,-0.065,-0.045
1543,-0.055,-0.045
1544,-0.050,-0.040
1545,-0.045,-0.035
1546,-0.040,-0.030
1547,-0.035,-0.025
1548,-0.030,-0.025
1549,-0.025,-0.025
1550,-0.020,-0.025
1551,-0.015,-0.025
1552,-0.005,-0.015
1553,0.005,-0.005
1554,0.010,0.000
1555,0.015,0.005
1556,0.025,0.005
1557,0.035,0.005
1558,0.045,0.015
1559,0.060,0.025
1560,0.075,0.030
1561,0.085,0.035
1562,0.095,0.040
1563,0.105,0.045
1564,0.110,0.050
1565,0.120,0.055
1566,0.130,0.055
1567,0.140,0.060
1568,0.150,0.070
1569,0.155,0.075
1570,0.160,0.070
1571,0.165,0.065
1572,0.165,0.070
1573,0.165,0.075
1574,0.160,0.070
1575,0.150,0.065
1576,0.140,0.065
1577,0.120,0.050
1578,0.100,0.030
1579,0.070,0.020
1580,0.040,0.010
1581,0.015,0.000
1582,-0.010,-0.010
1583,-0.030,-0.025
1584,-0.055,-0.045
1585,-0.080,-0.055
1586,-0.105,-0.065
1587,-0.115,-0.075
1588,-0.125,-0.085
1589,-0.135,-0.095
1590,-0.145,-0.105
1591,-0.145,-0.105
1592,-0.145,-0.105
1593,-0.150,-0.110
1594,-0.155,-0.115
1595,-0.160,-0.115
1596,-0.165,-0.115
1597,-0.165,-0.120
1598,-0.165,-0.125
1599,-0.165,-0.125
1600,-0.165,-0.125
1601,-0.170,-0.125
1602,-0.175,-0.125
1603,-0.170,-0.125
1604,-0.165,-0.125
1605,-0.160,-0.125
1606,-0.155,-0.125
1607,-0.155,-0.120
1608,-0.155,-0.115
1609,-0.155,-0.115
1610,-0.155,-0.115
1611,-0.155,-0.120
1612,-0.155,-0.125
1613,-0.155,-0.120
1614,-0.155,-0.115
1615,-0.150,-0.110
1616,-0.145,-0.105
1617,-0.145,-0.110
1618,-0.145,-0.115
1619,-0.145,-0.110
1620,-0.145,-0.105
1621,-0.140,-0.110
1622,-0.135,-0.115
1623,-0.135,-0.110
1624,-0.135,-0.105
1625,-0.135,-0.105
1626,-0.135,-0.105
1627,-0.135,-0.105
1628,-0.135,-0.110
1629,-0.135,-0.115
1630,-0.135,-0.110
1631,-0.135,-0.105
1632,-0.135,-0.105
1633,-0.135,-0.105
1634,-0.140,-0.110
1635,-0.145,-0.115
1636,-0.140,-0.115
1637,-0.135,-0.115
1638,-0.135,-0.115
1639,-0.135,-0.115
1640,-0.140,-0.110
1641,-0.145,-0.105
1642,-0.145,-0.105
1643,-0.145,-0.105
1644,-0.145,-0.110
1645,-0.145,-0.115
1646,-0.140,-0.115
1647,-0.135,-0.115
1648,-0.135,-0.110
1649,-0.135,-0.105
1650,-0.140,-0.110
1651,-0.145,-0.115
1652,-0.140,-0.115
1653,-0.135,-0.115
1654,-0.135,-0.110
1655,-0.135,-0.105
1656,-0.135,-0.105
1657,-0.135,-0.105
1658,-0.130,-0.110
1659,-0.125,-0.115
1660,-0.130,-0.115
1661,-0.135,-0.115
1662,-0.135,-0.115
1663,-0.135,-0.115
1664,-0.135,-0.110
1665,-0.135,-0.105
1666,-0.135,-0.110
1667,-0.125,-0.115
1668,-0.115,-0.115
1669,-0.105,-0.110
1670,-0.095,-0.105
1671,-0.090,-0.100
1672,-0.085,-0.095
1673,-0.080,-0.090
1674,-0.075,-0.085
1675,-0.075,-0.085
1676,-0.075,-0.085
1677,-0.065,-0.080
1678,-0.055,-0.075
1679,-0.045,-0.070
1680,-0.035,-0.065
1681,-0.030,-0.065
1682,-0.025,-0.065
1683,-0.025,-0.065
1684,-0.025,-0.065
1685,-0.025,-0.065
1686,-0.030,-0.065
1687,-0.045,-0.070
1688,-0.060,-0.075
1689,-0.075,-0.080
1690,-0.090,-0.085
1691,-0.100,-0.090
1692,-0.105,-0.095
1693,-0.110,-0.095
1694,-0.115,-0.095
1695,-0.120,-0.100
1696,-0.125,-0.105
1697,-0.130,-0.110
1698,-0.135,-0.115
1699,-0.135,-0.120
1700,-0.135,-0.125
1701,-0.135,-0.120
1702,-0.135,-0.115
1703,-0.130,-0.110
1704,-0.125,-0.105
1705,-0.130,-0.110
1706,-0.135,-0.115
1707,-0.135,-0.115
1708,-0.135,-0.115
1709,-0.125,-0.105
1710,-0.130,-0.105
1711,-0.135,-0.105
1712,-0.130,-0.105
1713,-0.125,-0.105
1714,-0.125,-0.105
1715,-0.125,-0.105
1716,-0.120,-0.105
1717,-0.120,-0.105
1718,-0.145,-0.105
1719,-0.150,-0.105
1720,-0.090,-0.105
1721,0.005,-0.105
1722,0.185,-0.095
1723,0.405,-0.080
1724,0.695,-0.055
1725,0.910,-0.025
1726,1.000,0.000
1727,0.915,-0.005
1728,0.585,-0.065
1729,0.260,-0.145
1730,-0.070,-0.250
1731,-0.260,-0.330
1732,-0.325,-0.380
1733,-0.290,-0.380
1734,-0.180,-0.335
1735,-0.120,-0.255
1736,-0.090,-0.150
1737,-0.075,-0.095
1738,-0.080,-0.060
1739,-0.085,-0.045
1740,-0.090,-0.040
1741,-0.095,-0.035
1742,-0.100,-0.040
1743,-0.105,-0.045
1744,-0.100,-0.050
1745,-0.095,-0.055
1746,-0.090,-0.050
1747,-0.085,-0.045
1748,-0.085,-0.040
1749,-0.085,-0.035
1750,-0.085,-0.035
1751,-0.075,-0.040
1752,-0.075,-0.045
1753,-0.075,-0.040
1754,-0.075,-0.035
1755,-0.070,-0.035
1756,-0.065,-0.035
1757,-0.065,-0.035
1758,-0.065,-0.035
1759,-0.055,-0.030
1760,-0.045,-0.025
1761,-0.045,-0.025
1762,-0.045,-0.025
1763,-0.035,-0.020
1764,-0.025,-0.015
1765,-0.020,-0.010
1766,-0.015,-0.005
1767,-0.010,-0.010
1768,-0.005,-0.015
1769,0.000,-0.010
1770,0.005,-0.005
1771,0.020,0.000
1772,0.025,0.005
1773,0.020,0.010
1774,0.020,0.015
1775,0.030,0.015
1776,0.040,0.015
1777,0.050,0.020
1778,0.060,0.030
1779,0.070,0.040
1780,0.085,0.045
1781,0.100,0.045
1782,0.105,0.045
1783,0.110,0.050
1784,0.120,0.055
1785,0.130,0.060
1786,0.140,0.070
1787,0.150,0.080
1788,0.155,0.085
1789,0.155,0.090
1790,0.165,0.095
1791,0.180,0.095
1792,0.190,0.090
1793,0.195,0.085
1794,0.200,0.090
1795,0.205,0.095
1796,0.195,0.095
1797,0.185,0.095
1798,0.170,0.085
1799,0.155,0.075
1800,0.125,0.065
1801,0.105,0.055
1802,0.085,0.040
1803,0.060,0.025
1804,0.035,0.010
1805,0.010,-0.005
1806,-0.015,-0.015
1807,-0.040,-0.030
1808,-0.055,-0.045
1809,-0.065,-0.055
1810,-0.070,-0.060
1811,-0.075,-0.065
1812,-0.085,-0.070
1813,-0.100,-0.075
1814,-0.110,-0.080
1815,-0.115,-0.085
1816,-0.115,-0.090
1817,-0.115,-0.095
1818,-0.120,-0.095
1819,-0.125,-0.095
1820,-0.125,-0.095
1821,-0.125,-0.095
1822,-0.125,-0.095
1823,-0.125,-0.095
1824,-0.125,-0.100
1825,-0.125,-0.105
1826,-0.120,-0.100
1827,-0.115,-0.095
1828,-0.115,-0.095
1829,-0.115,-0.095
1830,-0.115,-0.095
1831,-0.115,-0.095
1832,-0.115,-0.095
1833,-0.115,-0.095
1834,-0.105,-0.095
1835,-0.105,-0.095
1836,-0.105,-0.095
1837,-0.105,-0.095
1838,-0.105,-0.095
1839,-0.105,-0.095
1840,-0.105,-0.095
1841,-0.100,-0.095
1842,-0.095,-0.095
1843,-0.095,-0.090
1844,-0.095,-0.085
1845,-0.095,-0.090
1846,-0.095,-0.095
1847,-0.095,-0.095
1848,-0.095,-0.095
1849,-0.095,-0.090
1850,-0.095,-0.085
1851,-0.100,-0.085
1852,-0.105,-0.085
1853,-0.105,-0.090
1854,-0.105,-0.095
1855,-0.105,-0.095
1856,-0.105,-0.095
1857,-0.105,-0.095
1858,-0.105,-0.095
1859,-0.105,-0.090
1860,-0.105,-0.085
1861,-0.110,-0.090
1862,-0.115,-0.095
1863,-0.115,-0.095
1864,-0.115,-0.095
1865,-0.110,-0.095
1866,-0.105,-0.095
1867,-0.110,-0.095
1868,-0.115,-0.095
1869,-0.115,-0.095
1870,-0.115,-0.095
1871,-0.115,-0.100
1872,-0.115,-0.105
1873,-0.115,-0.100
1874,-0.115,-0.095
1875,-0.115,-0.095
1876,-0.115,-0.095
1877,-0.115,-0.095
1878,-0.115,-0.100
1879,-0.115,-0.105
1880,-0.115,-0.100
1881,-0.115,-0.095
1882,-0.115,-0.095
1883,-0.115,-0.095
1884,-0.115,-0.095
1885,-0.115,-0.095
1886,-0.115,-0.100
1887,-0.115,-0.105
1888,-0.105,-0.100
1889,-0.095,-0.095
1890,-0.090,-0.095
1891,-0.085,-0.095
1892,-0.075,-0.090
1893,-0.065,-0.085
1894,-0.065,-0.080
1895,-0.065,-0.075
1896,-0.050,-0.070
1897,-0.045,-0.065
1898,-0.045,-0.065
1899,-0.040,-0.065
1900,-0.030,-0.060
1901,-0.020,-0.055
1902,-0.010,-0.055
1903,-0.005,-0.055
1904,-0.005,-0.055
1905,-0.005,-0.055
1906,-0.005,-0.055
1907,-0.015,-0.055
1908,-0.030,-0.060
1909,-0.045,-0.065
1910,-0.060,-0.070
1911,-0.070,-0.080
1912,-0.080,-0.090
1913,-0.090,-0.095
1914,-0.100,-0.090
1915,-0.105,-0.085
1916,-0.110,-0.090
1917,-0.115,-0.100
1918,-0.115,-0.105
1919,-0.115,-0.105
1920,-0.115,-0.105
1921,-0.115,-0.105
1922,-0.115,-0.105
1923,-0.115,-0.110
1924,-0.115,-0.115
1925,-0.120,-0.110
1926,-0.125,-0.105
1927,-0.120,-0.105
1928,-0.115,-0.105
1929,-0.120,-0.105
1930,-0.125,-0.105
1931,-0.125,-0.105
1932,-0.125,-0.105
1933,-0.115,-0.110
1934,-0.105,-0.115
1935,-0.105,-0.110
1936,-0.105,-0.105
1937,-0.105,-0.100
1938,-0.110,-0.095
1939,-0.120,-0.100
1940,-0.125,-0.105
1941,-0.125,-0.105
1942,-0.060,-0.105
1943,0.060,-0.110
1944,0.260,-0.100
1945,0.505,-0.075
1946,0.750,-0.045
1947,0.995,-0.005
1948,0.960,0.005
1949,0.810,0.000
1950,0.520,-0.075
1951,0.195,-0.165
1952,-0.075,-0.255
1953,-0.330,-0.340
1954,-0.335,-0.380
1955,-0.300,-0.410
1956,-0.205,-0.355
1957,-0.100,-0.290
1958,-0.080,-0.195
1959,-0.055,-0.095
1960,-0.065,-0.065
1961,-0.075,-0.035
1962,-0.080,-0.040
1963,-0.085,-0.045
1964,-0.080,-0.050
1965,-0.075,-0.055
1966,-0.075,-0.055
1967,-0.075,-0.055
1968,-0.075,-0.050
1969,-0.075,-0.045
1970,-0.070,-0.045
1971,-0.065,-0.045
1972,-0.065,-0.045
1973,-0.065,-0.045
1974,-0.060,-0.040
1975,-0.055,-0.035
1976,-0.055,-0.035
1977,-0.055,-0.035
1978,-0.055,-0.035
1979,-0.055,-0.035
1980,-0.050,-0.040
1981,-0.045,-0.040
1982,-0.040,-0.030
1983,-0.035,-0.025
1984,-0.030,-0.025
1985,-0.025,-0.025
1986,-0.020,-0.025
1987,-0.015,-0.025
1988,-0.010,-0.025
1989,-0.005,-0.025
1990,0.000,-0.020
1991,0.005,-0.015
1992,0.010,-0.010
1993,0.015,-0.005
1994,0.015,-0.005
1995,0.020,-0.005
1996,0.030,-0.005
1997,0.045,-0.005
1998,0.060,0.000
1999,0.065,0.010
2000,0.065,0.005
2001,0.080,0.025
2002,0.095,0.025
2003,0.100,0.025
2004,0.105,0.025
2005,0.120,0.035
2006,0.135,0.045
2007,0.140,0.055
2008,0.145,0.065
2009,0.150,0.065
2010,0.155,0.065
2011,0.170,0.065
2012,0.185,0.065
2013,0.190,0.070
2014,0.195,0.075
2015,0.200,0.075
2016,0.205,0.075
2017,0.200,0.070
2018,0.195,0.065
2019,0.185,0.065
2020,0.170,0.065
2021,0.155,0.060
2022,0.130,0.050
2023,0.100,0.035
2024,0.075,0.020
2025,0.045,0.005
2026,0.030,-0.010
2027,0.015,-0.020
2028,-0.005,-0.035
2029,-0.025,-0.050
2030,-0.045,-0.055
2031,-0.060,-0.060
2032,-0.070,-0.070
2033,-0.080,-0.080
2034,-0.085,-0.085
2035,-0.090,-0.090
2036,-0.095,-0.095
2037,-0.100,-0.095
2038,-0.105,-0.095
2039,-0.110,-0.095
2040,-0.115,-0.095
2041,-0.120,-0.100
2042,-0.120,-0.105
2043,-0.115,-0.105
2044,-0.115,-0.105
2045,-0.115,-0.105
2046,-0.110,-0.100
2047,-0.105,-0.095
2048,-0.110,-0.100
2049,-0.115,-0.105
2050,-0.110,-0.105
2051,-0.105,-0.105
2052,-0.105,-0.100
2053,-0.105,-0.095
2054,-0.105,-0.095
2055,-0.105,-0.095
2056,-0.105,-0.095
2057,-0.105,-0.095
2058,-0.100,-0.095
2059,-0.095,-0.095
2060,-0.090,-0.090
2061,-0.085,-0.085
2062,-0.085,-0.085
2063,-0.085,-0.085
2064,-0.085,-0.090
2065,-0.085,-0.095
2066,-0.085,-0.095
2067,-0.085,-0.095
2068,-0.085,-0.090
2069,-0.085,-0.085
2070,-0.090,-0.090
2071,-0.095,-0.095
2072,-0.095,-0.095
2073,-0.095,-0.095
2074,-0.095,-0.095
2075,-0.095,-0.095
2076,-0.090,-0.090
2077,-0.085,-0.085
2078,-0.085,-0.090
2079,-0.085,-0.095
2080,-0.090,-0.095
2081,-0.095,-0.095
2082,-0.100,-0.100
2083,-0.105,-0.105
2084,-0.095,-0.095
2085,-0.105,-0.095
2086,-0.115,-0.095
2087,-0.110,-0.100
2088,-0.105,-0.105
2089,-0.105,-0.105
2090,-0.105,-0.105
2091,-0.100,-0.100
2092,-0.095,-0.095
2093,-0.095,-0.100
2094,-0.095,-0.105
2095,-0.100,-0.105
2096,-0.105,-0.105
2097,-0.100,-0.105
2098,-0.095,-0.105
2099,-0.100,-0.105
2100,-0.105,-0.105
2101,-0.105,-0.105
2102,-0.105,-0.105
2103,-0.105,-0.105
2104,-0.105,-0.105
2105,-0.100,-0.105
2106,-0.090,-0.105
2107,-0.080,-0.100
2108,-0.075,-0.095
2109,-0.070,-0.095
2110,-0.065,-0.095
2111,-0.060,-0.090
2112,-0.055,-0.085
2113,-0.050,-0.085
2114,-0.045,-0.085
2115,-0.040,-0.080
2116,-0.035,-0.075
2117,-0.035,-0.075
2118,-0.025,-0.075
2119,-0.010,-0.070
2120,-0.005,-0.065
2121,0.000,-0.065
2122,0.005,-0.065
2123,0.005,-0.065
2124,0.005,-0.065
2125,0.005,-0.065
2126,-0.020,-0.075
2127,-0.035,-0.075
2128,-0.045,-0.085
2129,-0.055,-0.095
2130,-0.070,-0.100
2131,-0.085,-0.105
2132,-0.090,-0.105
2133,-0.095,-0.105
2134,-0.105,-0.110
2135,-0.115,-0.115
2136,-0.110,-0.120
2137,-0.105,-0.125
2138,-0.105,-0.120
2139,-0.105,-0.115
2140,-0.105,-0.120
2141,-0.105,-0.125
2142,-0.105,-0.125
2143,-0.105,-0.125
2144,-0.110,-0.125
2145,-0.115,-0.125
2146,-0.110,-0.120
2147,-0.105,-0.115
2148,-0.110,-0.120
2149,-0.115,-0.125
2150,-0.115,-0.125
2151,-0.115,-0.125
2152,-0.110,-0.125
2153,-0.100,-0.120
2154,-0.090,-0.110
2155,-0.085,-0.105
2156,-0.090,-0.110
2157,-0.110,-0.115
2158,-0.135,-0.115
2159,-0.075,-0.115
2160,0.020,-0.120
2161,0.225,-0.115
2162,0.450,-0.100
2163,0.695,-0.065
2164,0.945,-0.030
2165,0.915,-0.020
2166,0.860,-0.010
2167,0.535,-0.090
2168,0.210,-0.175
2169,-0.110,-0.270
2170,-0.400,-0.355
2171,-0.335,-0.400
2172,-0.265,-0.440
2173,-0.170,-0.360
2174,-0.085,-0.280
2175,-0.065,-0.185
2176,-0.045,-0.100
2177,-0.050,-0.075
2178,-0.055,-0.055
2179,-0.065,-0.060
2180,-0.075,-0.065
2181,-0.075,-0.070
2182,-0.075,-0.075
2183,-0.070,-0.075
2184,-0.065,-0.075
2185,-0.060,-0.070
2186,-0.055,-0.065
2187,-0.055,-0.065
2188,-0.055,-0.065
2189,-0.055,-0.065
2190,-0.055,-0.065
2191,-0.055,-0.065
2192,-0.050,-0.065
2193,-0.040,-0.060
2194,-0.035,-0.055
2195,-0.040,-0.055
2196,-0.045,-0.055
2197,-0.040,-0.055
2198,-0.035,-0.055
2199,-0.030,-0.055
2200,-0.025,-0.055
2201,-0.020,-0.050
2202,-0.015,-0.045
2203,-0.010,-0.045
2204,-0.005,-0.045
2205,-0.005,-0.045
2206,0.000,-0.045
2207,0.010,-0.040
2208,0.015,-0.035
2209,0.025,-0.035
2210,0.020,-0.030
2211,0.015,-0.025
2212,0.030,-0.025
2213,0.045,-0.025
2214,0.055,-0.020
2215,0.065,-0.015
2216,0.075,-0.010
2217,0.085,-0.005
2218,0.095,0.000
2219,0.105,0.005
2220,0.110,0.010
2221,0.115,0.015
2222,0.125,0.020
2223,0.135,0.025
2224,0.145,0.030
2225,0.155,0.035
2226,0.155,0.035
2227,0.155,0.035
2228,0.160,0.035
2229,0.170,0.035
2230,0.185,0.035
2231,0.195,0.040
2232,0.195,0.050
2233,0.195,0.050
2234,0.195,0.040
2235,0.185,0.035
2236,0.165,0.030
2237,0.145,0.025
2238,0.130,0.020
2239,0.115,0.005
2240,0.090,-0.010
2241,0.065,-0.020
2242,0.035,-0.030
2243,0.015,-0.045
2244,0.000,-0.060
2245,-0.015,-0.065
2246,-0.030,-0.070
2247,-0.045,-0.080
2248,-0.060,-0.090
2249,-0.065,-0.095
2250,-0.065,-0.095
2251,-0.085,-0.110
2252,-0.095,-0.115
2253,-0.095,-0.120
2254,-0.095,-0.125
2255,-0.095,-0.120
2256,-0.095,-0.115
2257,-0.105,-0.120
2258,-0.115,-0.125
2259,-0.115,-0.125
2260,-0.115,-0.125
2261,-0.110,-0.125
2262,-0.105,-0.125
2263,-0.105,-0.120
2264,-0.105,-0.115
2265,-0.105,-0.120
2266,-0.105,-0.125
2267,-0.100,-0.125
2268,-0.095,-0.125
2269,-0.095,-0.125
2270,-0.095,-0.125
2271,-0.090,-0.120
2272,-0.085,-0.115
2273,-0.090,-0.115
2274,-0.095,-0.115
2275,-0.090,-0.115
2276,-0.085,-0.115
2277,-0.085,-0.115
2278,-0.085,-0.115
2279,-0.085,-0.115
2280,-0.085,-0.115
2281,-0.085,-0.115
2282,-0.085,-0.115
2283,-0.085,-0.115
2284,-0.085,-0.115
2285,-0.080,-0.115
2286,-0.075,-0.115
2287,-0.075,-0.115
2288,-0.075,-0.115
2289,-0.080,-0.115
2290,-0.085,-0.115
2291,-0.090,-0.115
2292,-0.090,-0.115
2293,-0.085,-0.115
2294,-0.085,-0.115
2295,-0.085,-0.115
2296,-0.090,-0.115
2297,-0.095,-0.115
2298,-0.090,-0.115
2299,-0.085,-0.115
2300,-0.090,-0.120
2301,-0.095,-0.125
2302,-0.095,-0.120
2303,-0.095,-0.115
2304,-0.095,-0.120
2305,-0.095,-0.125
2306,-0.100,-0.125
2307,-0.105,-0.125
2308,-0.105,-0.125
2309,-0.105,-0.125
2310,-0.100,-0.125
2311,-0.095,-0.125
2312,-0.095,-0.120
2313,-0.095,-0.115
2314,-0.095,-0.115
2315,-0.095,-0.115
2316,-0.095,-0.120
2317,-0.095,-0.125
2318,-0.095,-0.125
2319,-0.095,-0.125
2320,-0.095,-0.125
2321,-0.090,-0.125
2322,-0.080,-0.125
2323,-0.070,-0.125
2324,-0.060,-0.120
2325,-0.055,-0.115
2326,-0.050,-0.110
2327,-0.045,-0.105
2328,-0.040,-0.100
2329,-0.035,-0.095
2330,-0.035,-0.095
2331,-0.025,-0.095
2332,-0.010,-0.090
2333,0.000,-0.085
2334,0.015,-0.075
2335,0.010,-0.080
2336,0.005,-0.085
2337,0.005,-0.085
2338,0.005,-0.085
2339,-0.010,-0.090
2340,-0.025,-0.095
2341,-0.035,-0.095
2342,-0.045,-0.095
2343,-0.055,-0.105
2344,-0.065,-0.115
2345,-0.075,-0.115
2346,-0.085,-0.115
2347,-0.090,-0.120
2348,-0.095,-0.125
2349,-0.095,-0.125
2350,-0.095,-0.125
2351,-0.100,-0.130
2352,-0.105,-0.135
2353,-0.100,-0.135
2354,-0.095,-0.135
2355,-0.095,-0.135
2356,-0.095,-0.135
2357,-0.095,-0.130
2358,-0.095,-0.125
2359,-0.090,-0.125
2360,-0.090,-0.125
2361,-0.100,-0.125
2362,-0.105,-0.125
2363,-0.100,-0.130
2364,-0.095,-0.135
2365,-0.090,-0.130
2366,-0.085,-0.125
2367,-0.090,-0.125
2368,-0.095,-0.125
2369,-0.090,-0.130
2370,-0.100,-0.135
2371,-0.120,-0.130
2372,-0.105,-0.125
2373,-0.080,-0.120
2374,0.065,-0.115
2375,-0.075,-0.115
2376,0.470,-0.110
2377,0.720,-0.095
2378,0.900,-0.050
2379,1.045,-0.005
2380,0.780,-0.035
2381,0.510,-0.075
2382,0.185,-0.180
2383,-0.115,-0.275
2384,-0.275,-0.350
2385,-0.380,-0.405
2386,-0.260,-0.415
2387,-0.155,-0.395
2388,-0.085,-0.285
2389,-0.035,-0.185
2390,-0.035,-0.120
2391,-0.035,-0.075
2392,-0.045,-0.070
2393,-0.055,-0.065
2394,-0.060,-0.065
2395,-0.065,-0.065
2396,-0.050,-0.065
2397,-0.050,-0.065
2398,-0.060,-0.065
2399,-0.060,-0.065
2400,-0.050,-0.070
2401,-0.045,-0.075
2402,-0.045,-0.070
2403,-0.045,-0.065
2404,-0.045,-0.065
2405,-0.040,-0.065
2406,-0.030,-0.065
2407,-0.025,-0.065
2408,-0.025,-0.065
2409,-0.025,-0.065
2410,-0.025,-0.060
2411,-0.025,-0.055
2412,-0.020,-0.055
2413,-0.015,-0.055
2414,-0.015,-0.055
2415,-0.015,-0.055
2416,-0.010,-0.055
2417,0.005,-0.050
2418,0.015,-0.045
2419,0.015,-0.040
2420,0.015,-0.035
2421,0.020,-0.035
2422,0.025,-0.035
2423,0.035,-0.030
2424,0.045,-0.025
2425,0.045,-0.025
2426,0.045,-0.025
2427,0.055,-0.020
2428,0.065,-0.015
2429,0.070,-0.010
2430,0.075,-0.005
2431,0.085,-0.005
2432,0.095,-0.005
2433,0.105,0.000
2434,0.115,0.005
2435,0.125,0.015
2436,0.135,0.025
2437,0.145,0.025
2438,0.160,0.030
2439,0.170,0.040
2440,0.175,0.045
2441,0.180,0.045
2442,0.185,0.050
2443,0.190,0.060
2444,0.195,0.065
2445,0.200,0.065
2446,0.205,0.065
2447,0.205,0.065
2448,0.205,0.065
2449,0.200,0.060
2450,0.195,0.055
2451,0.190,0.050
2452,0.170,0.040
2453,0.150,0.030
2454,0.130,0.020
2455,0.110,0.010
2456,0.080,0.000
2457,0.050,-0.010
2458,0.035,-0.020
2459,0.015,-0.035
2460,0.000,-0.050
2461,-0.015,-0.065
2462,-0.040,-0.070
2463,-0.065,-0.075
2464,-0.070,-0.085
2465,-0.075,-0.095
2466,-0.080,-0.100
2467,-0.085,-0.105
2468,-0.090,-0.100
2469,-0.095,-0.095
2470,-0.095,-0.100
2471,-0.095,-0.105
2472,-0.100,-0.110
2473,-0.105,-0.115
2474,-0.100,-0.115
2475,-0.095,-0.115
2476,-0.095,-0.110
2477,-0.095,-0.105
2478,-0.100,-0.105
2479,-0.105,-0.105
2480,-0.100,-0.110
2481,-0.095,-0.115
2482,-0.090,-0.115
2483,-0.085,-0.115
2484,-0.085,-0.110
2485,-0.085,-0.105
2486,-0.080,-0.105
2487,-0.075,-0.105
2488,-0.075,-0.110
2489,-0.075,-0.115
2490,-0.075,-0.110
2491,-0.075,-0.105
2492,-0.075,-0.105
2493,-0.075,-0.105
2494,-0.080,-0.105
2495,-0.085,-0.105
2496,-0.080,-0.105
2497,-0.075,-0.105
2498,-0.070,-0.105
2499,-0.065,-0.105
2500,-0.065,-0.105
2501,-0.065,-0.100
2502,-0.065,-0.105
2503,-0.065,-0.110
2504,-0.065,-0.115
2505,-0.065,-0.110
2506,-0.065,-0.105
2507,-0.070,-0.105
2508,-0.075,-0.105
2509,-0.080,-0.105
2510,-0.085,-0.105
2511,-0.085,-0.110
2512,-0.085,-0.115
2513,-0.085,-0.110
2514,-0.085,-0.105
2515,-0.080,-0.105
2516,-0.075,-0.105
2517,-0.075,-0.105
2518,-0.075,-0.105
2519,-0.080,-0.110
2520,-0.085,-0.115
2521,-0.085,-0.115
2522,-0.085,-0.115
2523,-0.085,-0.110
2524,-0.085,-0.105
2525,-0.090,-0.105
2526,-0.095,-0.105
2527,-0.090,-0.110
2528,-0.085,-0.115
2529,-0.090,-0.110
2530,-0.095,-0.105
2531,-0.090,-0.105
2532,-0.085,-0.105
2533,-0.085,-0.105
2534,-0.085,-0.105
2535,-0.080,-0.110
2536,-0.075,-0.115
2537,-0.070,-0.110
2538,-0.060,-0.105
2539,-0.050,-0.100
2540,-0.045,-0.095
2541,-0.045,-0.090
2542,-0.040,-0.085
2543,-0.035,-0.085
2544,-0.030,-0.080
2545,-0.025,-0.075
2546,-0.015,-0.070
2547,-0.005,-0.065
2548,0.010,-0.065
2549,0.025,-0.065
2550,0.020,-0.070
2551,0.015,-0.075
2552,0.010,-0.070
2553,0.005,-0.065
2554,-0.005,-0.070
2555,-0.020,-0.075
2556,-0.040,-0.080
2557,-0.055,-0.085
2558,-0.060,-0.095
2559,-0.065,-0.105
2560,-0.075,-0.105
2561,-0.085,-0.105
2562,-0.090,-0.105
2563,-0.095,-0.105
2564,-0.095,-0.110
2565,-0.095,-0.115
2566,-0.100,-0.120
2567,-0.105,-0.125
2568,-0.105,-0.125
2569,-0.105,-0.125
2570,-0.105,-0.120
2571,-0.105,-0.115
2572,-0.110,-0.115
2573,-0.115,-0.115
2574,-0.110,-0.120
2575,-0.105,-0.125
2576,-0.105,-0.125
2577,-0.105,-0.125
2578,-0.105,-0.120
2579,-0.105,-0.115
2580,-0.100,-0.120
2581,-0.095,-0.125
2582,-0.095,-0.125
2583,-0.095,-0.125
2584,-0.095,-0.115
2585,-0.125,-0.115
2586,-0.155,-0.115
2587,-0.085,-0.120
2588,-0.005,-0.125
2589,0.185,-0.115
2590,0.385,-0.105
2591,0.670,-0.080
2592,0.915,-0.050
2593,1.020,-0.025
2594,1.025,-0.015
2595,0.700,-0.065
2596,0.370,-0.135
2597,0.045,-0.250
2598,-0.210,-0.340
2599,-0.310,-0.390
2600,-0.335,-0.405
2601,-0.220,-0.355
2602,-0.135,-0.285
2603,-0.090,-0.195
2604,-0.065,-0.130
2605,-0.060,-0.085
2606,-0.060,-0.065
2607,-0.070,-0.060
2608,-0.075,-0.055
2609,-0.075,-0.055
2610,-0.075,-0.055
2611,-0.070,-0.055
2612,-0.065,-0.055
2613,-0.070,-0.060
2614,-0.075,-0.065
2615,-0.075,-0.060
2616,-0.075,-0.055
2617,-0.070,-0.050
2618,-0.065,-0.045
2619,-0.070,-0.050
2620,-0.075,-0.055
2621,-0.070,-0.055
2622,-0.065,-0.055
2623,-0.060,-0.050
2624,-0.055,-0.045
2625,-0.055,-0.045
2626,-0.040,-0.045
2627,-0.035,-0.045
2628,-0.035,-0.040
2629,-0.035,-0.035
2630,-0.025,-0.035
2631,-0.015,-0.035
2632,-0.015,-0.030
2633,-0.015,-0.025
2634,-0.005,-0.025
2635,0.005,-0.025
2636,0.010,-0.025
2637,0.015,-0.025
2638,0.025,-0.020
2639,0.035,-0.015
2640,0.040,-0.010
2641,0.045,-0.005
2642,0.055,0.000
2643,0.065,0.005
2644,0.070,0.005
2645,0.080,0.010
2646,0.095,0.025
2647,0.105,0.035
2648,0.105,0.035
2649,0.110,0.035
2650,0.125,0.040
2651,0.140,0.050
2652,0.155,0.060
2653,0.165,0.065
2654,0.170,0.070
2655,0.180,0.075
2656,0.190,0.075
2657,0.195,0.075
2658,0.200,0.075
2659,0.205,0.075
2660,0.200,0.070
2661,0.195,0.065
2662,0.195,0.070
2663,0.185,0.075
2664,0.170,0.070
2665,0.150,0.055
2666,0.130,0.040
2667,0.105,0.020
2668,0.085,0.005
2669,0.060,-0.005
2670,0.035,-0.015
2671,0.010,-0.025
2672,-0.015,-0.035
2673,-0.035,-0.050
2674,-0.055,-0.065
2675,-0.070,-0.075
2676,-0.085,-0.085
2677,-0.095,-0.090
2678,-0.105,-0.095
2679,-0.115,-0.100
2680,-0.125,-0.105
2681,-0.130,-0.110
2682,-0.135,-0.115
2683,-0.135,-0.115
2684,-0.135,-0.115
2685,-0.130,-0.115
2686,-0.125,-0.115
2687,-0.125,-0.115
2688,-0.125,-0.115
2689,-0.130,-0.115
2690,-0.135,-0.115
2691,-0.130,-0.120
2692,-0.125,-0.125
2693,-0.130,-0.120
2694,-0.135,-0.115
2695,-0.130,-0.115
2696,-0.125,-0.115
2697,-0.130,-0.115
2698,-0.135,-0.115
2699,-0.130,-0.120
2700,-0.125,-0.125
2701,-0.120,-0.120
2702,-0.115,-0.115
2703,-0.120,-0.115
2704,-0.125,-0.115
2705,-0.120,-0.115
2706,-0.115,-0.115
2707,-0.115,-0.115
2708,-0.115,-0.115
2709,-0.105,-0.115
2710,-0.115,-0.115
2711,-0.125,-0.115
2712,-0.120,-0.115
2713,-0.115,-0.115
2714,-0.115,-0.115
2715,-0.115,-0.115
2716,-0.110,-0.115
2717,-0.105,-0.115
2718,-0.105,-0.110
2719,-0.105,-0.105
2720,-0.110,-0.110
2721,-0.115,-0.115
2722,-0.115,-0.115
2723,-0.115,-0.115
2724,-0.115,-0.110
2725,-0.115,-0.105
2726,-0.125,-0.110
2727,-0.135,-0.115
2728,-0.130,-0.115
2729,-0.125,-0.115
2730,-0.125,-0.120
2731,-0.125,-0.125
2732,-0.125,-0.120
2733,-0.125,-0.115
2734,-0.125,-0.115
2735,-0.125,-0.115
2736,-0.130,-0.120
2737,-0.135,-0.125
2738,-0.130,-0.125
2739,-0.125,-0.125
2740,-0.125,-0.120
2741,-0.125,-0.115
2742,-0.130,-0.115
2743,-0.135,-0.115
2744,-0.135,-0.120
2745,-0.135,-0.125
2746,-0.130,-0.125
2747,-0.125,-0.125
2748,-0.120,-0.120
2749,-0.110,-0.115
2750,-0.115,-0.115
2751,-0.090,-0.115
2752,-0.085,-0.115
2753,-0.080,-0.110
2754,-0.075,-0.105
2755,-0.070,-0.100
2756,-0.065,-0.095
2757,-0.070,-0.090
2758,-0.075,-0.085
2759,-0.065,-0.085
2760,-0.055,-0.085
2761,-0.030,-0.085
2762,-0.015,-0.085
2763,-0.015,-0.080
2764,-0.015,-0.075
2765,-0.025,-0.080
2766,-0.035,-0.085
2767,-0.040,-0.090
2768,-0.050,-0.095
2769,-0.070,-0.095
2770,-0.085,-0.095
2771,-0.090,-0.100
2772,-0.100,-0.105
2773,-0.110,-0.110
2774,-0.120,-0.115
2775,-0.130,-0.120
2776,-0.135,-0.125
2777,-0.135,-0.130
2778,-0.135,-0.135
2779,-0.135,-0.130
2780,-0.135,-0.125
2781,-0.135,-0.130
2782,-0.135,-0.135
2783,-0.140,-0.130
2784,-0.145,-0.125
2785,-0.145,-0.130
2786,-0.145,-0.135
2787,-0.140,-0.130
2788,-0.135,-0.125
2789,-0.140,-0.125
2790,-0.145,-0.125
2791,-0.145,-0.130
2792,-0.145,-0.130
2793,-0.145,-0.125
2794,-0.140,-0.125
2795,-0.135,-0.125
2796,-0.130,-0.125
2797,-0.125,-0.125
2798,-0.130,-0.125
2799,-0.135,-0.125
2800,-0.155,-0.125
2801,-0.160,-0.125
2802,-0.080,-0.130
2803,0.035,-0.130
2804,0.240,-0.110
2805,0.465,-0.090
2806,0.730,-0.065
2807,0.925,-0.040
2808,0.995,-0.025
2809,0.905,-0.035
2810,0.575,-0.090
2811,0.250,-0.170
2812,-0.080,-0.270
2813,-0.275,-0.355
2814,-0.335,-0.415
2815,-0.310,-0.415
2816,-0.200,-0.350
2817,-0.135,-0.270
2818,-0.100,-0.170
2819,-0.085,-0.110
2820,-0.085,-0.070
2821,-0.095,-0.055
2822,-0.110,-0.060
2823,-0.115,-0.065
2824,-0.115,-0.070
2825,-0.115,-0.075
2826,-0.110,-0.075
2827,-0.105,-0.075
2828,-0.105,-0.070
2829,-0.100,-0.065
2830,-0.090,-0.065
2831,-0.085,-0.065
2832,-0.090,-0.065
2833,-0.095,-0.065
2834,-0.085,-0.055
2835,-0.085,-0.055
2836,-0.085,-0.055
2837,-0.085,-0.055
2838,-0.085,-0.055
2839,-0.075,-0.055
2840,-0.065,-0.055
2841,-0.065,-0.050
2842,-0.065,-0.045
2843,-0.060,-0.040
2844,-0.055,-0.035
2845,-0.045,-0.035
2846,-0.035,-0.035
2847,-0.035,-0.035
2848,-0.035,-0.035
2849,-0.030,-0.030
2850,-0.025,-0.025
2851,-0.020,-0.020
2852,-0.015,-0.015
2853,-0.010,-0.015
2854,-0.005,-0.015
2855,0.010,-0.015
2856,0.020,-0.010
2857,0.030,0.000
2858,0.035,0.005
2859,0.040,0.010
2860,0.050,0.015
2861,0.060,0.015
2862,0.070,0.015
2863,0.080,0.020
2864,0.095,0.030
2865,0.110,0.040
2866,0.120,0.045
2867,0.130,0.045
2868,0.135,0.050
2869,0.135,0.060
2870,0.145,0.065
2871,0.160,0.065
2872,0.165,0.065
2873,0.170,0.070
2874,0.175,0.075
2875,0.175,0.075
2876,0.180,0.075
2877,0.175,0.065
2878,0.165,0.065
2879,0.155,0.065
2880,0.135,0.055
2881,0.115,0.045
2882,0.080,0.030
2883,0.055,0.015
2884,0.025,0.000
2885,0.005,-0.015
2886,-0.010,-0.025
2887,-0.030,-0.035
2888,-0.050,-0.045
2889,-0.070,-0.055
2890,-0.085,-0.065
2891,-0.095,-0.075
2892,-0.105,-0.085
2893,-0.115,-0.095
2894,-0.125,-0.095
2895,-0.135,-0.095
2896,-0.135,-0.100
2897,-0.135,-0.105
2898,-0.140,-0.110
2899,-0.145,-0.115
2900,-0.145,-0.115
2901,-0.145,-0.115
2902,-0.145,-0.115
2903,-0.145,-0.115
2904,-0.140,-0.115
2905,-0.135,-0.115
2906,-0.135,-0.115
2907,-0.135,-0.115
2908,-0.140,-0.115
2909,-0.145,-0.115
2910,-0.140,-0.115
2911,-0.135,-0.115
2912,-0.135,-0.110
2913,-0.135,-0.105
2914,-0.140,-0.105
2915,-0.145,-0.105
2916,-0.140,-0.110
2917,-0.130,-0.115
2918,-0.125,-0.115
2919,-0.120,-0.110
2920,-0.115,-0.105
2921,-0.115,-0.105
2922,-0.115,-0.105
2923,-0.115,-0.110
2924,-0.115,-0.115
2925,-0.120,-0.110
2926,-0.125,-0.105
2927,-0.120,-0.105
2928,-0.115,-0.105
2929,-0.120,-0.105
2930,-0.125,-0.105
2931,-0.120,-0.105
2932,-0.115,-0.105
2933,-0.115,-0.105
2934,-0.115,-0.105
2935,-0.115,-0.105
2936,-0.115,-0.105
2937,-0.120,-0.105
2938,-0.125,-0.105
2939,-0.125,-0.105
2940,-0.125,-0.105
2941,-0.125,-0.110
2942,-0.125,-0.115
2943,-0.125,-0.110
2944,-0.125,-0.105
2945,-0.130,-0.110
2946,-0.135,-0.115
2947,-0.135,-0.115
2948,-0.135,-0.115
2949,-0.130,-0.115
2950,-0.125,-0.115
2951,-0.125,-0.115
2952,-0.125,-0.115
2953,-0.130,-0.115
2954,-0.135,-0.115
2955,-0.130,-0.115
2956,-0.125,-0.115
2957,-0.130,-0.115
2958,-0.135,-0.115
2959,-0.125,-0.115
2960,-0.130,-0.115
2961,-0.135,-0.115
2962,-0.135,-0.115
2963,-0.135,-0.115
2964,-0.130,-0.115
2965,-0.125,-0.115
2966,-0.115,-0.115
2967,-0.105,-0.115
2968,-0.095,-0.110
2969,-0.085,-0.105
2970,-0.085,-0.100
2971,-0.085,-0.095
2972,-0.080,-0.095
2973,-0.075,-0.095
2974,-0.070,-0.090
2975,-0.065,-0.085
2976,-0.060,-0.080
2977,-0.050,-0.075
2978,-0.035,-0.075
2979,-0.025,-0.075
2980,-0.020,-0.075
2981,-0.020,-0.075
2982,-0.030,-0.070
2983,-0.035,-0.065
2984,-0.035,-0.070
2985,-0.045,-0.075
2986,-0.065,-0.080
2987,-0.080,-0.090
2988,-0.090,-0.100
2989,-0.100,-0.105
2990,-0.110,-0.105
2991,-0.115,-0.105
2992,-0.120,-0.105
2993,-0.130,-0.105
2994,-0.140,-0.110
2995,-0.145,-0.115
2996,-0.140,-0.120
2997,-0.135,-0.125
2998,-0.135,-0.125
2999,-0.135,-0.125
3000,-0.135,-0.125
3001,-0.140,-0.125
3002,-0.145,-0.125
3003,-0.145,-0.125
3004,-0.145,-0.125
3005,-0.140,-0.125
3006,-0.135,-0.125
3007,-0.140,-0.125
3008,-0.145,-0.125
3009,-0.145,-0.125
3010,-0.145,-0.125
3011,-0.140,-0.125
3012,-0.135,-0.125
3013,-0.130,-0.120
3014,-0.125,-0.115
3015,-0.125,-0.115
3016,-0.135,-0.115
3017,-0.165,-0.115
3018,-0.160,-0.115
3019,-0.095,-0.120
3020,0.030,-0.125
3021,0.215,-0.110
3022,0.450,-0.095
3023,0.735,-0.070
3024,0.910,-0.045
3025,0.990,-0.015
3026,0.830,-0.035
3027,0.500,-0.095
3028,0.170,-0.185
3029,-0.155,-0.290
3030,-0.290,-0.360
3031,-0.340,-0.420
3032,-0.275,-0.390
3033,-0.170,-0.330
3034,-0.120,-0.245
3035,-0.085,-0.150
3036,-0.075,-0.105
3037,-0.080,-0.070
3038,-0.090,-0.065
3039,-0.100,-0.060
3040,-0.105,-0.060
3041,-0.110,-0.070
3042,-0.110,-0.075
3043,-0.105,-0.075
3044,-0.100,-0.075
3045,-0.095,-0.075
3046,-0.095,-0.070
3047,-0.095,-0.065
3048,-0.090,-0.065
3049,-0.085,-0.065
3050,-0.085,-0.065
3051,-0.085,-0.065
3052,-0.080,-0.060
3053,-0.075,-0.055
3054,-0.075,-0.055
3055,-0.075,-0.055
3056,-0.075,-0.055
3057,-0.075,-0.055
3058,-0.070,-0.055
3059,-0.065,-0.055
3060,-0.060,-0.050
3061,-0.055,-0.045
3062,-0.045,-0.045
3063,-0.035,-0.045
3064,-0.035,-0.045
3065,-0.035,-0.045
3066,-0.030,-0.045
3067,-0.025,-0.040
3068,-0.020,-0.030
3069,-0.015,-0.025
3070,-0.010,-0.025
3071,-0.005,-0.025
3072,0.000,-0.020
3073,0.010,-0.015
3074,0.020,-0.015
3075,0.030,-0.010
3076,0.040,0.000
3077,0.050,0.005
3078,0.060,0.005
3079,0.065,0.005
3080,0.070,0.010
3081,0.085,0.015
3082,0.100,0.020
3083,0.110,0.025
3084,0.125,0.035
3085,0.125,0.040
3086,0.125,0.045
3087,0.135,0.045
3088,0.145,0.045
3089,0.150,0.045
3090,0.155,0.045
3091,0.160,0.050
3092,0.165,0.055
3093,0.170,0.050
3094,0.175,0.045
3095,0.160,0.040
3096,0.140,0.035
3097,0.120,0.025
3098,0.100,0.015
3099,0.080,0.010
3100,0.055,0.000
3101,0.025,-0.015
3102,0.000,-0.030
3103,-0.015,-0.045
3104,-0.030,-0.055
3105,-0.055,-0.070
3106,-0.070,-0.075
3107,-0.080,-0.080
3108,-0.090,-0.090
3109,-0.100,-0.100
3110,-0.110,-0.105
3111,-0.120,-0.110
3112,-0.125,-0.115
3113,-0.130,-0.120
3114,-0.135,-0.125
3115,-0.135,-0.120
3116,-0.140,-0.115
3117,-0.150,-0.120
3118,-0.155,-0.125
3119,-0.150,-0.130
3120,-0.145,-0.135
3121,-0.140,-0.130
3122,-0.135,-0.125
3123,-0.135,-0.125
3124,-0.135,-0.125
3125,-0.135,-0.125
3126,-0.135,-0.125
3127,-0.135,-0.125
3128,-0.135,-0.125
3129,-0.135,-0.125
3130,-0.130,-0.125
3131,-0.125,-0.125
3132,-0.130,-0.125
3133,-0.135,-0.125
3134,-0.135,-0.125
3135,-0.135,-0.125
3136,-0.130,-0.125
3137,-0.125,-0.125
3138,-0.120,-0.125
3139,-0.115,-0.125
3140,-0.115,-0.125
3141,-0.115,-0.125
3142,-0.115,-0.125
3143,-0.115,-0.125
3144,-0.120,-0.125
3145,-0.125,-0.125
3146,-0.120,-0.120
3147,-0.120,-0.115
3148,-0.130,-0.120
3149,-0.135,-0.125
3150,-0.130,-0.125
3151,-0.125,-0.125
3152,-0.125,-0.130
3153,-0.125,-0.135
3154,-0.120,-0.130
3155,-0.115,-0.125
3156,-0.115,-0.125
3157,-0.120,-0.125
3158,-0.130,-0.125
3159,-0.135,-0.125
3160,-0.135,-0.125
3161,-0.135,-0.125
3162,-0.130,-0.125
3163,-0.130,-0.125
3164,-0.140,-0.130
3165,-0.145,-0.135
3166,-0.140,-0.135
3167,-0.135,-0.135
3168,-0.135,-0.135
3169,-0.135,-0.130
3170,-0.135,-0.125
3171,-0.135,-0.125
3172,-0.135,-0.125
3173,-0.135,-0.130
3174,-0.135,-0.135
3175,-0.135,-0.140
3176,-0.135,-0.145
3177,-0.135,-0.135
3178,-0.135,-0.125
3179,-0.130,-0.130
3180,-0.125,-0.135
3181,-0.115,-0.135
3182,-0.105,-0.135
3183,-0.095,-0.130
3184,-0.085,-0.125
3185,-0.080,-0.115
3186,-0.075,-0.105
3187,-0.075,-0.105
3188,-0.075,-0.105
3189,-0.070,-0.100
3190,-0.060,-0.095
3191,-0.050,-0.100
3192,-0.040,-0.100
3193,-0.030,-0.090
3194,-0.025,-0.085
3195,-0.030,-0.085
3196,-0.035,-0.085
3197,-0.040,-0.090
3198,-0.050,-0.095
3199,-0.060,-0.100
3200,-0.075,-0.105
3201,-0.090,-0.105
3202,-0.095,-0.105
3203,-0.100,-0.110
3204,-0.110,-0.115
3205,-0.120,-0.120
3206,-0.130,-0.125
3207,-0.140,-0.130
3208,-0.145,-0.135
3209,-0.135,-0.135
3210,-0.145,-0.140
3211,-0.155,-0.145
3212,-0.155,-0.145
3213,-0.155,-0.145
3214,-0.150,-0.145
3215,-0.145,-0.145
3216,-0.145,-0.145
3217,-0.145,-0.145
3218,-0.145,-0.145
3219,-0.145,-0.145
3220,-0.145,-0.145
3221,-0.145,-0.145
3222,-0.145,-0.145
3223,-0.145,-0.145
3224,-0.140,-0.145
3225,-0.135,-0.145
3226,-0.140,-0.140
3227,-0.145,-0.135
3228,-0.145,-0.140
3229,-0.150,-0.145
3230,-0.175,-0.145
3231,-0.160,-0.145
3232,-0.100,-0.140
3233,0.020,-0.135
3234,0.190,-0.135
3235,0.420,-0.130
3236,0.685,-0.115
3237,0.845,-0.075
3238,0.950,-0.030
3239,0.760,-0.040
3240,0.440,-0.085
3241,0.115,-0.170
3242,-0.210,-0.275
3243,-0.345,-0.350
3244,-0.430,-0.420
3245,-0.340,-0.435
3246,-0.220,-0.430
3247,-0.150,-0.320
3248,-0.090,-0.205
3249,-0.085,-0.155
3250,-0.085,-0.195
3251,-0.095,-0.095
3252,-0.105,-0.085
3253,-0.110,-0.090
3254,-0.115,-0.095
3255,-0.110,-0.090
3256,-0.105,-0.085
3257,-0.115,-0.090
3258,-0.125,-0.095
3259,-0.115,-0.095
3260,-0.105,-0.095
3261,-0.105,-0.095
3262,-0.105,-0.095
3263,-0.100,-0.090
3264,-0.095,-0.085
3265,-0.090,-0.085
3266,-0.085,-0.085
3267,-0.085,-0.085
3268,-0.085,-0.085
3269,-0.085,-0.085
3270,-0.085,-0.085
3271,-0.080,-0.080
3272,-0.075,-0.075
3273,-0.075,-0.075
3274,-0.075,-0.075
3275,-0.070,-0.075
3276,-0.065,-0.075
3277,-0.060,-0.075
3278,-0.050,-0.075
3279,-0.040,-0.070
3280,-0.035,-0.065
3281,-0.030,-0.060
3282,-0.025,-0.055
3283,-0.025,-0.060
3284,-0.020,-0.065
3285,-0.010,-0.060
3286,-0.005,-0.055
3287,0.000,-0.050
3288,0.005,-0.045
3289,0.010,-0.040
3290,0.020,-0.035
3291,0.030,-0.030
3292,0.045,-0.025
3293,0.055,-0.025
3294,0.065,-0.015
3295,0.075,-0.005
3296,0.085,-0.005
3297,0.095,-0.005
3298,0.100,0.000
3299,0.105,0.005
3300,0.110,0.005
3301,0.115,0.005
3302,0.125,0.010
3303,0.135,0.015
3304,0.135,0.015
3305,0.135,0.015
3306,0.135,0.015
3307,0.135,0.015
3308,0.135,0.015
3309,0.135,0.015
3310,0.125,0.010
3311,0.110,0.005
3312,0.090,-0.005
3313,0.065,-0.020
3314,0.040,-0.030
3315,0.015,-0.040
3316,-0.005,-0.055
3317,-0.030,-0.070
3318,-0.055,-0.080
3319,-0.070,-0.085
3320,-0.090,-0.090
3321,-0.105,-0.100
3322,-0.120,-0.110
3323,-0.130,-0.115
3324,-0.140,-0.120
3325,-0.145,-0.125
3326,-0.145,-0.130
3327,-0.145,-0.135
3328,-0.145,-0.135
3329,-0.145,-0.135
3330,-0.150,-0.135
3331,-0.155,-0.135
3332,-0.155,-0.140
3333,-0.155,-0.145
3334,-0.155,-0.145
3335,-0.155,-0.140
3336,-0.155,-0.135
3337,-0.160,-0.140
3338,-0.165,-0.145
3339,-0.160,-0.145
3340,-0.155,-0.145
3341,-0.150,-0.140
3342,-0.145,-0.135
3343,-0.150,-0.135
3344,-0.155,-0.135
3345,-0.145,-0.135
3346,-0.135,-0.135
3347,-0.140,-0.135
3348,-0.145,-0.135
3349,-0.140,-0.135
3350,-0.135,-0.135
3351,-0.135,-0.130
3352,-0.135,-0.125
3353,-0.140,-0.130
3354,-0.145,-0.135
3355,-0.145,-0.135
3356,-0.145,-0.135
3357,-0.140,-0.135
3358,-0.135,-0.135
3359,-0.135,-0.130
3360,-0.135,-0.125
3361,-0.130,-0.125
3362,-0.130,-0.125
3363,-0.140,-0.130
3364,-0.145,-0.135
3365,-0.145,-0.135
3366,-0.145,-0.135
3367,-0.140,-0.130
3368,-0.140,-0.125
3369,-0.150,-0.125
3370,-0.155,-0.125
3371,-0.150,-0.130
3372,-0.145,-0.135
3373,-0.145,-0.135
3374,-0.145,-0.135
3375,-0.145,-0.135
3376,-0.145,-0.125
3377,-0.145,-0.125
3378,-0.150,-0.130
3379,-0.155,-0.135
3380,-0.155,-0.135
3381,-0.155,-0.135
3382,-0.150,-0.130
3383,-0.145,-0.125
3384,-0.155,-0.130
3385,-0.165,-0.135
3386,-0.160,-0.140
3387,-0.155,-0.145
3388,-0.155,-0.140
3389,-0.155,-0.135
3390,-0.155,-0.130
3391,-0.155,-0.125
3392,-0.145,-0.130
3393,-0.135,-0.135
3394,-0.130,-0.130
3395,-0.125,-0.125
3396,-0.110,-0.120
3397,-0.105,-0.115
3398,-0.100,-0.110
3399,-0.095,-0.105
3400,-0.095,-0.105
3401,-0.090,-0.105
3402,-0.080,-0.100
3403,-0.070,-0.095
3404,-0.060,-0.095
3405,-0.055,-0.095
3406,-0.050,-0.090
3407,-0.045,-0.085
3408,-0.050,-0.090
3409,-0.055,-0.095
3410,-0.060,-0.100
3411,-0.080,-0.105
3412,-0.100,-0.105
3413,-0.115,-0.105
3414,-0.130,-0.110
3415,-0.140,-0.115
3416,-0.150,-0.120
3417,-0.155,-0.130
3418,-0.155,-0.135
3419,-0.160,-0.135
3420,-0.165,-0.135
3421,-0.165,-0.140
3422,-0.165,-0.145
3423,-0.165,-0.145
3424,-0.165,-0.145
3425,-0.165,-0.145
3426,-0.165,-0.145
3427,-0.165,-0.140
3428,-0.165,-0.135
3429,-0.170,-0.140
3430,-0.175,-0.145
3431,-0.175,-0.145
3432,-0.175,-0.145
3433,-0.175,-0.145
3434,-0.175,-0.145
3435,-0.170,-0.140
3436,-0.165,-0.135
3437,-0.160,-0.135
3438,-0.155,-0.135
3439,-0.155,-0.135
3440,-0.160,-0.135
3441,-0.170,-0.135
3442,-0.180,-0.135
3443,-0.190,-0.135
3444,-0.130,-0.135
3445,-0.020,-0.135
3446,0.180,-0.125
3447,0.425,-0.110
3448,0.665,-0.085
3449,0.900,-0.055
3450,0.875,-0.045
3451,0.765,-0.040
3452,0.475,-0.105
3453,0.150,-0.190
3454,-0.155,-0.280
3455,-0.460,-0.365
3456,-0.415,-0.405
3457,-0.340,-0.440
3458,-0.240,-0.370
3459,-0.135,-0.285
3460,-0.125,-0.205
3461,-0.115,-0.125
3462,-0.120,-0.100
3463,-0.125,-0.075
3464,-0.125,-0.075
3465,-0.125,-0.075
3466,-0.125,-0.075
3467,-0.125,-0.075
3468,-0.120,-0.080
3469,-0.115,-0.085
3470,-0.115,-0.085
3471,-0.115,-0.085
3472,-0.115,-0.080
3473,-0.115,-0.075
3474,-0.110,-0.075
3475,-0.105,-0.075
3476,-0.105,-0.070
3477,-0.105,-0.065
3478,-0.105,-0.070
3479,-0.105,-0.075
3480,-0.100,-0.070
3481,-0.090,-0.065
3482,-0.080,-0.060
3483,-0.075,-0.055
3484,-0.075,-0.060
3485,-0.075,-0.065
3486,-0.075,-0.060
3487,-0.075,-0.055
3488,-0.070,-0.055
3489,-0.060,-0.055
3490,-0.050,-0.050
3491,-0.045,-0.045
3492,-0.045,-0.045
3493,-0.040,-0.045
3494,-0.030,-0.045
3495,-0.025,-0.045
3496,-0.020,-0.040
3497,-0.010,-0.030
3498,0.000,-0.020
3499,0.010,-0.015
3500,0.005,-0.015
3501,0.030,-0.015
3502,0.035,-0.015
3503,0.045,-0.010
3504,0.055,-0.005
3505,0.065,0.005
3506,0.075,0.015
3507,0.080,0.010
3508,0.085,0.005
3509,0.095,0.015
3510,0.105,0.025
3511,0.115,0.025
3512,0.125,0.025
3513,0.135,0.035
3514,0.145,0.045
3515,0.145,0.045
3516,0.145,0.045
3517,0.145,0.045
3518,0.145,0.045
3519,0.145,0.045
3520,0.145,0.045
3521,0.130,0.045
3522,0.115,0.040
3523,0.090,0.030
3524,0.065,0.020
3525,0.045,0.005
3526,0.020,-0.010
3527,-0.005,-0.025
3528,-0.025,-0.035
3529,-0.045,-0.040
3530,-0.065,-0.050
3531,-0.080,-0.060
3532,-0.095,-0.070
3533,-0.110,-0.080
3534,-0.120,-0.090
3535,-0.130,-0.100
3536,-0.135,-0.105
3537,-0.135,-0.105
3538,-0.140,-0.105
3539,-0.150,-0.110
3540,-0.155,-0.115
3541,-0.155,-0.115
3542,-0.155,-0.120
3543,-0.155,-0.125
3544,-0.155,-0.120
3545,-0.155,-0.115
3546,-0.155,-0.115
3547,-0.155,-0.115
3548,-0.150,-0.115
3549,-0.145,-0.115
3550,-0.145,-0.115
3551,-0.145,-0.115
3552,-0.145,-0.115
3553,-0.145,-0.115
3554,-0.145,-0.110
3555,-0.145,-0.105
3556,-0.145,-0.105
3557,-0.145,-0.105
3558,-0.140,-0.110
3559,-0.135,-0.115
3560,-0.130,-0.110
3561,-0.125,-0.105
3562,-0.125,-0.105
3563,-0.125,-0.105
3564,-0.125,-0.105
3565,-0.125,-0.105
3566,-0.130,-0.105
3567,-0.135,-0.105
3568,-0.130,-0.105
3569,-0.125,-0.105
3570,-0.125,-0.105
3571,-0.125,-0.105
3572,-0.125,-0.105
3573,-0.125,-0.105
3574,-0.120,-0.105
3575,-0.115,-0.105
3576,-0.115,-0.100
3577,-0.115,-0.095
3578,-0.120,-0.095
3579,-0.125,-0.095
3580,-0.125,-0.100
3581,-0.125,-0.105
3582,-0.125,-0.105
3583,-0.125,-0.105
3584,-0.125,-0.095
3585,-0.130,-0.100
3586,-0.135,-0.105
3587,-0.135,-0.105
3588,-0.135,-0.105
3589,-0.135,-0.105
3590,-0.135,-0.105
3591,-0.135,-0.105
3592,-0.135,-0.105
3593,-0.130,-0.105
3594,-0.125,-0.105
3595,-0.125,-0.105
3596,-0.125,-0.105
3597,-0.130,-0.105
3598,-0.135,-0.105
3599,-0.130,-0.100
3600,-0.125,-0.095
3601,-0.135,-0.100
3602,-0.145,-0.105
3603,-0.135,-0.105
3604,-0.125,-0.105
3605,-0.110,-0.105
3606,-0.100,-0.105
3607,-0.090,-0.100
3608,-0.085,-0.095
3609,-0.080,-0.090
3610,-0.075,-0.085
3611,-0.075,-0.080
3612,-0.075,-0.075
3613,-0.075,-0.075
3614,-0.070,-0.075
3615,-0.060,-0.070
3616,-0.050,-0.065
3617,-0.040,-0.065
3618,-0.035,-0.065
3619,-0.030,-0.060
3620,-0.025,-0.055
3621,-0.025,-0.060
3622,-0.025,-0.065
3623,-0.025,-0.060
3624,-0.035,-0.055
3625,-0.025,-0.055
3626,-0.070,-0.070
3627,-0.085,-0.075
3628,-0.095,-0.085
3629,-0.105,-0.095
3630,-0.110,-0.095
3631,-0.115,-0.095
3632,-0.125,-0.100
3633,-0.135,-0.105
3634,-0.135,-0.105
3635,-0.135,-0.105
3636,-0.135,-0.110
3637,-0.135,-0.115
3638,-0.130,-0.110
3639,-0.125,-0.105
3640,-0.130,-0.105
3641,-0.135,-0.105
3642,-0.135,-0.105
3643,-0.135,-0.105
3644,-0.135,-0.110
3645,-0.135,-0.115
3646,-0.135,-0.110
3647,-0.135,-0.105
3648,-0.140,-0.105
3649,-0.145,-0.105
3650,-0.140,-0.105
3651,-0.135,-0.105
3652,-0.130,-0.105
3653,-0.125,-0.105
3654,-0.120,-0.105
3655,-0.125,-0.105
3656,-0.145,-0.105
3657,-0.145,-0.105
3658,-0.130,-0.100
3659,-0.025,-0.095
3660,0.105,-0.100
3661,0.330,-0.090
3662,0.575,-0.070
3663,0.820,-0.035
3664,1.065,0.000
3665,0.930,-0.010
3666,0.760,-0.030
3667,0.435,-0.120
3668,0.110,-0.205
3669,-0.180,-0.290
3670,-0.440,-0.375
3671,-0.345,-0.385
3672,-0.245,-0.385
3673,-0.165,-0.290
3674,-0.095,-0.195
3675,-0.085,-0.125
3676,-0.075,-0.065
3677,-0.085,-0.050
3678,-0.095,-0.035
3679,-0.095,-0.040
3680,-0.095,-0.045
3681,-0.100,-0.045
3682,-0.105,-0.045
3683,-0.100,-0.050
3684,-0.095,-0.055
3685,-0.095,-0.050
3686,-0.095,-0.045
3687,-0.090,-0.040
3688,-0.085,-0.035
3689,-0.080,-0.035
3690,-0.075,-0.035
3691,-0.080,-0.035
3692,-0.080,-0.035
3693,-0.070,-0.035
3694,-0.065,-0.035
3695,-0.060,-0.030
3696,-0.055,-0.025
3697,-0.060,-0.025
3698,-0.060,-0.025
3699,-0.050,-0.025
3700,-0.045,-0.025
3701,-0.040,-0.020
3702,-0.035,-0.015
3703,-0.030,-0.015
3704,-0.025,-0.015
3705,-0.020,-0.010
3706,-0.015,-0.005
3707,-0.015,-0.010
3708,-0.010,-0.010
3709,0.005,0.005
3710,0.015,0.005
3711,0.025,0.005
3712,0.025,0.010
3713,0.025,0.015
3714,0.035,0.015
3715,0.045,0.015
3716,0.055,0.025
3717,0.065,0.035
3718,0.075,0.040
3719,0.085,0.045
3720,0.100,0.055
3721,0.115,0.065
3722,0.125,0.065
3723,0.135,0.065
3724,0.145,0.070
3725,0.155,0.075
3726,0.165,0.085
3727,0.175,0.095
3728,0.175,0.095
3729,0.175,0.095
3730,0.190,0.095
3731,0.195,0.095
3732,0.200,0.100
3733,0.205,0.105
3734,0.200,0.105
3735,0.190,0.100
3736,0.175,0.090
3737,0.155,0.080
3738,0.135,0.070
3739,0.105,0.055
3740,0.075,0.040
3741,0.050,0.025
3742,0.030,0.010
3743,0.005,0.000
3744,-0.030,-0.010
3745,-0.040,-0.025
3746,-0.050,-0.040
3747,-0.065,-0.050
3748,-0.080,-0.060
3749,-0.090,-0.065
3750,-0.085,-0.065
3751,-0.110,-0.080
3752,-0.115,-0.085
3753,-0.120,-0.090
3754,-0.125,-0.095
3755,-0.125,-0.095
3756,-0.125,-0.095
3757,-0.130,-0.090
3758,-0.135,-0.085
3759,-0.140,-0.090
3760,-0.145,-0.095
3761,-0.140,-0.095
3762,-0.135,-0.095
3763,-0.130,-0.095
3764,-0.125,-0.095
3765,-0.125,-0.095
3766,-0.125,-0.095
3767,-0.125,-0.090
3768,-0.125,-0.085
3769,-0.125,-0.090
3770,-0.125,-0.095
3771,-0.120,-0.095
3772,-0.115,-0.095
3773,-0.120,-0.090
3774,-0.125,-0.085
3775,-0.120,-0.090
3776,-0.115,-0.095
3777,-0.110,-0.095
3778,-0.105,-0.095
3779,-0.100,-0.090
3780,-0.095,-0.085
3781,-0.095,-0.085
3782,-0.095,-0.085
3783,-0.095,-0.085
3784,-0.095,-0.085
3785,-0.095,-0.085
3786,-0.090,-0.085
3787,-0.080,-0.080
3788,-0.075,-0.075
3789,-0.075,-0.080
3790,-0.060,-0.085
3791,-0.040,-0.080
3792,-0.010,-0.065
3793,0.015,-0.055
3794,0.070,-0.040
3795,0.135,-0.025
3796,0.275,0.000
3797,0.415,0.030
3798,0.510,0.075
3799,0.605,0.115
3800,0.685,0.145
3801,0.755,0.165
3802,0.825,0.160
3803,0.885,0.150
3804,0.935,0.125
3805,1.015,0.100
3806,1.145,0.075
3807,1.255,0.055
3808,1.310,0.065
3809,1.320,0.070
3810,1.255,0.050
3811,1.160,0.000
3812,1.040,-0.090
3813,0.915,-0.175
3814,0.795,-0.255
3815,0.725,-0.320
3816,0.705,-0.370
3817,0.575,-0.365
3818,0.370,-0.310
3819,0.175,-0.245
3820,-0.020,-0.180
3821,-0.150,-0.135
3822,-0.245,-0.095
3823,-0.285,-0.085
3824,-0.300,-0.080
3825,-0.305,-0.075
3826,-0.300,-0.070
3827,-0.295,-0.065
3828,-0.295,-0.065
3829,-0.295,-0.065
3830,-0.300,-0.065
3831,-0.305,-0.065
3832,-0.305,-0.060
3833,-0.300,-0.055
3834,-0.285,-0.045
3835,-0.285,-0.045
3836,-0.285,-0.045
3837,-0.290,-0.045
3838,-0.295,-0.045
3839,-0.295,-0.050
3840,-0.295,-0.055
3841,-0.305,-0.050
3842,-0.315,-0.045
3843,-0.335,-0.050
3844,-0.355,-0.055
3845,-0.370,-0.060
3846,-0.385,-0.065
3847,-0.400,-0.070
3848,-0.415,-0.075
3849,-0.425,-0.075
3850,-0.435,-0.075
3851,-0.445,-0.075
3852,-0.460,-0.075
3853,-0.475,-0.080
3854,-0.485,-0.085
3855,-0.490,-0.085
3856,-0.500,-0.085
3857,-0.515,-0.080
3858,-0.530,-0.075
3859,-0.540,-0.070
3860,-0.550,-0.065
3861,-0.565,-0.065
3862,-0.585,-0.065
3863,-0.600,-0.065
3864,-0.610,-0.065
3865,-0.620,-0.060
3866,-0.625,-0.055
3867,-0.630,-0.050
3868,-0.635,-0.045
3869,-0.630,-0.040
3870,-0.620,-0.035
3871,-0.610,-0.035
3872,-0.585,-0.030
3873,-0.560,-0.020
3874,-0.535,-0.010
3875,-0.555,-0.015
3876,-0.470,0.005
3877,-0.435,0.005
3878,-0.405,0.005
3879,-0.375,0.005
3880,-0.340,0.010
3881,-0.305,0.015
3882,-0.270,0.010
3883,-0.245,0.005
3884,-0.230,0.000
3885,-0.215,-0.005
3886,-0.190,-0.015
3887,-0.175,-0.025
3888,-0.160,-0.030
3889,-0.145,-0.035
3890,-0.140,-0.045
3891,-0.135,-0.055
3892,-0.130,-0.065
3893,-0.125,-0.075
3894,-0.130,-0.080
3895,-0.135,-0.085
3896,-0.140,-0.090
3897,-0.145,-0.095
3898,-0.140,-0.095
3899,-0.135,-0.095
3900,-0.140,-0.095
3901,-0.145,-0.100
3902,-0.145,-0.110
3903,-0.145,-0.115
3904,-0.145,-0.110
3905,-0.145,-0.105
3906,-0.140,-0.105
3907,-0.135,-0.105
3908,-0.130,-0.105
3909,-0.125,-0.105
3910,-0.130,-0.110
3911,-0.135,-0.115
3912,-0.130,-0.110
3913,-0.125,-0.105
3914,-0.120,-0.100
3915,-0.115,-0.095
3916,-0.120,-0.095
3917,-0.120,-0.100
3918,-0.115,-0.105
3919,-0.115,-0.100
3920,-0.115,-0.095
3921,-0.110,-0.095
3922,-0.105,-0.095
3923,-0.100,-0.095
3924,-0.095,-0.095
3925,-0.100,-0.100
3926,-0.105,-0.105
3927,-0.105,-0.100
3928,-0.105,-0.095
3929,-0.105,-0.095
3930,-0.105,-0.095
3931,-0.110,-0.090
3932,-0.115,-0.085
3933,-0.110,-0.095
3934,-0.105,-0.105
3935,-0.100,-0.105
3936,-0.095,-0.105
3937,-0.100,-0.100
3938,-0.105,-0.095
3939,-0.100,-0.100
3940,-0.095,-0.105
3941,-0.100,-0.105
3942,-0.105,-0.105
3943,-0.105,-0.100
3944,-0.105,-0.095
3945,-0.100,-0.095
3946,-0.095,-0.095
3947,-0.100,-0.095
3948,-0.105,-0.095
3949,-0.105,-0.100
3950,-0.105,-0.105
3951,-0.100,-0.100
3952,-0.095,-0.095
3953,-0.100,-0.095
3954,-0.105,-0.095
3955,-0.100,-0.095
3956,-0.095,-0.095
3957,-0.095,-0.100
3958,-0.095,-0.105
3959,-0.095,-0.095
3960,-0.095,-0.095
3961,-0.095,-0.095
3962,-0.100,-0.095
3963,-0.105,-0.095
3964,-0.100,-0.100
3965,-0.095,-0.105
3966,-0.095,-0.100
3967,-0.095,-0.095
3968,-0.095,-0.095
3969,-0.095,-0.095
3970,-0.095,-0.095
3971,-0.095,-0.095
3972,-0.095,-0.095
3973,-0.095,-0.095
3974,-0.090,-0.095
3975,-0.085,-0.095
3976,-0.090,-0.090
3977,-0.095,-0.085
3978,-0.095,-0.090
3979,-0.095,-0.095
3980,-0.090,-0.095
3981,-0.085,-0.095
3982,-0.085,-0.095
3983,-0.085,-0.095
3984,-0.085,-0.095
3985,-0.085,-0.095
3986,-0.085,-0.100
3987,-0.085,-0.105
3988,-0.085,-0.100
3989,-0.085,-0.095
3990,-0.080,-0.090
3991,-0.080,-0.085
3992,-0.090,-0.090
3993,-0.095,-0.095
3994,-0.090,-0.095
3995,-0.085,-0.095
3996,-0.085,-0.095
3997,-0.085,-0.095
3998,-0.080,-0.090
3999,-0.075,-0.085
4000,-0.075,-0.085
4001,-0.075,-0.095
4002,-0.075,-0.095
4003,-0.075,-0.095
4004,-0.075,-0.095
4005,-0.075,-0.090
4006,-0.075,-0.085
4007,-0.070,-0.085
4008,-0.065,-0.085
4009,-0.075,-0.085
4010,-0.085,-0.085
4011,-0.080,-0.085
4012,-0.075,-0.085
4013,-0.070,-0.085
4014,-0.065,-0.085
4015,-0.070,-0.085
4016,-0.075,-0.085
4017,-0.070,-0.085
4018,-0.065,-0.085
4019,-0.070,-0.090
4020,-0.075,-0.095
4021,-0.070,-0.090
4022,-0.065,-0.085
4023,-0.070,-0.085
4024,-0.075,-0.085
4025,-0.080,-0.085
4026,-0.085,-0.085
4027,-0.080,-0.090
4028,-0.075,-0.095
4029,-0.070,-0.090
4030,-0.065,-0.085
4031,-0.070,-0.085
4032,-0.075,-0.085
4033,-0.075,-0.090
4034,-0.075,-0.095
4035,-0.070,-0.095
4036,-0.065,-0.095
4037,-0.065,-0.090
4038,-0.065,-0.085
4039,-0.065,-0.085
4040,-0.065,-0.085
4041,-0.070,-0.085
4042,-0.065,-0.090
4043,-0.055,-0.095
4044,-0.060,-0.090
4045,-0.065,-0.085
4046,-0.055,-0.085
4047,-0.045,-0.085
4048,-0.040,-0.085
4049,-0.035,-0.085
4050,-0.030,-0.080
4051,-0.025,-0.075
4052,-0.015,-0.070
4053,-0.005,-0.065
4054,-0.015,-0.060
4055,-0.025,-0.055
4056,-0.005,-0.055
4057,0.010,-0.055
4058,0.025,-0.050
4059,0.035,-0.045
4060,0.040,-0.040
4061,0.045,-0.035
4062,0.050,-0.040
4063,0.050,-0.045
4064,0.040,-0.050
4065,0.030,-0.055
4066,0.015,-0.055
4067,0.000,-0.055
4068,-0.015,-0.060
4069,-0.035,-0.065
4070,-0.055,-0.065
4071,-0.065,-0.070
4072,-0.065,-0.080
4073,-0.065,-0.085
4074,-0.065,-0.090
4075,-0.065,-0.095
4076,-0.070,-0.095
4077,-0.075,-0.095
4078,-0.075,-0.100
4079,-0.075,-0.105
4080,-0.080,-0.105
4081,-0.085,-0.105
4082,-0.085,-0.105
4083,-0.085,-0.105
4084,-0.075,-0.095
4085,-0.085,-0.100
4086,-0.095,-0.105
4087,-0.090,-0.105
4088,-0.085,-0.105
4089,-0.080,-0.105
4090,-0.075,-0.105
4091,-0.075,-0.105
4092,-0.075,-0.105
4093,-0.095,-0.100
4094,-0.100,-0.095
4095,-0.020,-0.100
4096,0.090,-0.105
4097,0.285,-0.095
4098,0.505,-0.075
4099,0.775,-0.045
4100,0.960,-0.020
4101,1.000,-0.005
4102,0.885,-0.020
4103,0.555,-0.090
4104,0.230,-0.170
4105,-0.100,-0.275
4106,-0.270,-0.350
4107,-0.300,-0.400
4108,-0.255,-0.405
4109,-0.150,-0.370
4110,-0.085,-0.285
4111,-0.050,-0.175
4112,-0.035,-0.110
4113,-0.040,-0.070
4114,-0.045,-0.055
4115,-0.050,-0.050
4116,-0.055,-0.045
4117,-0.060,-0.050
4118,-0.065,-0.055
4119,-0.060,-0.060
4120,-0.055,-0.065
4121,-0.055,-0.060
4122,-0.055,-0.055
4123,-0.055,-0.050
4124,-0.055,-0.045
4125,-0.055,-0.045
4126,-0.045,-0.045
4127,-0.045,-0.045
4128,-0.040,-0.045
4129,-0.035,-0.045
4130,-0.030,-0.040
4131,-0.025,-0.035
4132,-0.030,-0.040
4133,-0.035,-0.045
4134,-0.030,-0.045
4135,-0.025,-0.045
4136,-0.020,-0.040
4137,-0.015,-0.035
4138,-0.010,-0.035
4139,-0.005,-0.035
4140,0.000,-0.030
4141,0.005,-0.025
4142,0.010,-0.025
4143,0.015,-0.025
4144,0.020,-0.030
4145,0.025,-0.035
4146,0.025,-0.020
4147,0.025,-0.015
4148,0.025,-0.015
4149,0.030,-0.015
4150,0.045,-0.015
4151,0.060,-0.015
4152,0.070,-0.010
4153,0.075,0.000
4154,0.080,0.010
4155,0.090,0.015
4156,0.100,0.020
4157,0.105,0.025
4158,0.110,0.025
4159,0.115,0.030
4160,0.120,0.040
4161,0.130,0.045
4162,0.140,0.045
4163,0.145,0.050
4164,0.145,0.060
4165,0.150,0.065
4166,0.160,0.060
4167,0.170,0.060
4168,0.175,0.065
4169,0.180,0.065
4170,0.185,0.065
4171,0.185,0.065
4172,0.185,0.065
4173,0.175,0.060
4174,0.165,0.055
4175,0.155,0.045
4176,0.145,0.035
4177,0.130,0.025
4178,0.110,0.015
4179,0.090,0.005
4180,0.075,-0.005
4181,0.055,-0.025
4182,0.040,-0.035
4183,0.025,-0.045
4184,0.010,-0.055
4185,-0.005,-0.060
4186,-0.015,-0.065
4187,-0.020,-0.070
4188,-0.030,-0.080
4189,-0.040,-0.090
4190,-0.045,-0.095
4191,-0.050,-0.100
4192,-0.055,-0.105
4193,-0.060,-0.105
4194,-0.065,-0.105
4195,-0.070,-0.105
4196,-0.075,-0.105
4197,-0.070,-0.110
4198,-0.065,-0.115
4199,-0.060,-0.110
4200,-0.055,-0.105
4201,-0.055,-0.105
4202,-0.055,-0.105
4203,-0.050,-0.105
4204,-0.045,-0.105
4205,-0.045,-0.105
4206,-0.045,-0.105
4207,-0.050,-0.105
4208,-0.055,-0.105
4209,-0.045,-0.105
4210,-0.050,-0.100
4211,-0.055,-0.095
4212,-0.050,-0.100
4213,-0.045,-0.105
4214,-0.045,-0.105
4215,-0.045,-0.105
4216,-0.035,-0.105
4217,-0.025,-0.105
4218,-0.030,-0.105
4219,-0.035,-0.105
4220,-0.035,-0.100
4221,-0.035,-0.095
4222,-0.040,-0.100
4223,-0.045,-0.105
4224,-0.040,-0.105
4225,-0.035,-0.105
4226,-0.040,-0.105
4227,-0.045,-0.105
4228,-0.045,-0.105
4229,-0.045,-0.105
4230,-0.050,-0.105
4231,-0.055,-0.105
4232,-0.050,-0.105
4233,-0.050,-0.105
4234,-0.060,-0.105
4235,-0.065,-0.105
4236,-0.060,-0.105
4237,-0.055,-0.105
4238,-0.060,-0.110
4239,-0.065,-0.115
4240,-0.065,-0.115
4241,-0.065,-0.115
4242,-0.065,-0.115
4243,-0.065,-0.115
4244,-0.070,-0.115
4245,-0.075,-0.115
4246,-0.070,-0.120
4247,-0.065,-0.125
4248,-0.070,-0.120
4249,-0.075,-0.115
4250,-0.075,-0.115
4251,-0.075,-0.115
4252,-0.075,-0.115
4253,-0.070,-0.120
4254,-0.065,-0.125
4255,-0.070,-0.120
4256,-0.075,-0.115
4257,-0.070,-0.120
4258,-0.065,-0.125
4259,-0.065,-0.120
4260,-0.065,-0.115
4261,-0.055,-0.115
4262,-0.045,-0.115
4263,-0.040,-0.110
4264,-0.035,-0.105
4265,-0.030,-0.100
4266,-0.025,-0.095
4267,-0.020,-0.095
4268,-0.015,-0.095
4269,-0.005,-0.095
4270,0.005,-0.095
4271,0.020,-0.090
4272,0.025,-0.085
4273,0.030,-0.080
4274,0.030,-0.075
4275,0.020,-0.080
4276,0.015,-0.085
4277,0.020,-0.090
4278,0.015,-0.095
4279,0.000,-0.095
4280,-0.010,-0.095
4281,-0.020,-0.095
4282,-0.035,-0.095
4283,-0.050,-0.100
4284,-0.060,-0.110
4285,-0.070,-0.120
4286,-0.075,-0.125
4287,-0.080,-0.125
4288,-0.085,-0.125
4289,-0.080,-0.130
4290,-0.080,-0.135
4291,-0.090,-0.135
4292,-0.090,-0.140
4293,-0.085,-0.145
4294,-0.085,-0.140
4295,-0.085,-0.135
4296,-0.090,-0.130
4297,-0.095,-0.125
4298,-0.090,-0.130
4299,-0.085,-0.135
4300,-0.085,-0.135
4301,-0.085,-0.135
4302,-0.080,-0.135
4303,-0.075,-0.135
4304,-0.075,-0.130
4305,-0.075,-0.125
4306,-0.075,-0.125
4307,-0.075,-0.125
4308,-0.085,-0.130
4309,-0.095,-0.135
4310,-0.095,-0.135
4311,-0.045,-0.135
4312,0.065,-0.130
4313,0.235,-0.120
4314,0.460,-0.105
4315,0.690,-0.080
4316,0.920,-0.050
4317,0.955,-0.030
4318,0.845,-0.015
4319,0.600,-0.060
4320,0.270,-0.155
4321,-0.035,-0.245
4322,-0.325,-0.340
4323,-0.345,-0.395
4324,-0.265,-0.440
4325,-0.165,-0.395
4326,-0.065,-0.310
4327,-0.035,-0.215
4328,-0.020,-0.120
4329,-0.020,-0.090
4330,-0.030,-0.070
4331,-0.035,-0.065
4332,-0.040,-0.070
4333,-0.045,-0.075
4334,-0.045,-0.075
4335,-0.040,-0.075
4336,-0.035,-0.075
4337,-0.035,-0.070
4338,-0.035,-0.065
4339,-0.035,-0.070
4340,-0.035,-0.075
4341,-0.030,-0.070
4342,-0.025,-0.065
4343,-0.025,-0.065
4344,-0.025,-0.065
4345,-0.015,-0.060
4346,-0.005,-0.055
4347,-0.010,-0.060
4348,-0.015,-0.065
4349,-0.010,-0.060
4350,-0.005,-0.055
4351,0.000,-0.055
4352,0.005,-0.055
4353,0.005,-0.050
4354,0.005,-0.045
4355,0.020,-0.050
4356,0.025,-0.055
4357,0.025,-0.050
4358,0.025,-0.045
4359,0.030,-0.040
4360,0.040,-0.035
4361,0.050,-0.035
4362,0.055,-0.035
4363,0.055,-0.035
4364,0.060,-0.030
4365,0.070,-0.020
4366,0.085,-0.015
4367,0.100,-0.015
4368,0.105,-0.015
4369,0.105,-0.010
4370,0.110,-0.005
4371,0.120,-0.005
4372,0.130,0.000
4373,0.140,0.010
4374,0.150,0.015
4375,0.145,0.015
4376,0.175,0.025
4377,0.185,0.025
4378,0.190,0.025
4379,0.195,0.025
4380,0.195,0.035
4381,0.195,0.045
4382,0.200,0.045
4383,0.205,0.045
4384,0.205,0.045
4385,0.205,0.045
4386,0.200,0.035
4387,0.195,0.025
4388,0.180,0.025
4389,0.160,0.025
4390,0.140,0.015
4391,0.120,0.005
4392,0.090,-0.005
4393,0.070,-0.020
4394,0.050,-0.035
4395,0.030,-0.045
4396,0.005,-0.060
4397,-0.015,-0.065
4398,-0.035,-0.070
4399,-0.050,-0.075
4400,-0.060,-0.080
4401,-0.065,-0.090
4402,-0.070,-0.100
4403,-0.075,-0.105
4404,-0.080,-0.105
4405,-0.085,-0.105
4406,-0.085,-0.105
4407,-0.085,-0.105
4408,-0.085,-0.105
4409,-0.085,-0.105
4410,-0.085,-0.105
4411,-0.085,-0.105
4412,-0.085,-0.105
4413,-0.085,-0.105
4414,-0.090,-0.105
4415,-0.095,-0.105
4416,-0.090,-0.105
4417,-0.085,-0.110
4418,-0.085,-0.115
4419,-0.080,-0.105
4420,-0.075,-0.095
4421,-0.075,-0.100
4422,-0.075,-0.105
4423,-0.075,-0.105
4424,-0.075,-0.105
4425,-0.075,-0.105
4426,-0.075,-0.105
4427,-0.070,-0.100
4428,-0.065,-0.095
4429,-0.070,-0.100
4430,-0.075,-0.105
4431,-0.075,-0.105
4432,-0.075,-0.105
4433,-0.070,-0.105
4434,-0.065,-0.105
4435,-0.065,-0.100
4436,-0.065,-0.095
4437,-0.065,-0.095
4438,-0.065,-0.095
4439,-0.065,-0.100
4440,-0.065,-0.105
4441,-0.065,-0.100
4442,-0.065,-0.095
4443,-0.065,-0.095
4444,-0.070,-0.095
4445,-0.080,-0.100
4446,-0.085,-0.105
4447,-0.080,-0.105
4448,-0.075,-0.105
4449,-0.075,-0.105
4450,-0.075,-0.105
4451,-0.075,-0.100
4452,-0.075,-0.095
4453,-0.075,-0.095
4454,-0.075,-0.095
4455,-0.080,-0.100
4456,-0.085,-0.105
4457,-0.085,-0.110
4458,-0.085,-0.115
4459,-0.075,-0.105
4460,-0.085,-0.110
4461,-0.095,-0.115
4462,-0.090,-0.115
4463,-0.085,-0.115
4464,-0.085,-0.115
4465,-0.085,-0.115
4466,-0.080,-0.110
4467,-0.075,-0.105
4468,-0.065,-0.105
4469,-0.055,-0.105
4470,-0.050,-0.105
4471,-0.045,-0.105
4472,-0.045,-0.100
4473,-0.045,-0.095
4474,-0.035,-0.090
4475,-0.025,-0.085
4476,-0.030,-0.080
4477,-0.030,-0.075
4478,-0.010,-0.075
4479,0.005,-0.075
4480,0.010,-0.070
4481,0.015,-0.065
4482,0.015,-0.065
4483,0.015,-0.065
4484,0.015,-0.065
4485,0.015,-0.070
4486,0.015,-0.080
4487,0.005,-0.085
4488,-0.015,-0.080
4489,-0.030,-0.075
4490,-0.040,-0.080
4491,-0.060,-0.085
4492,-0.080,-0.090
4493,-0.085,-0.095
4494,-0.085,-0.100
4495,-0.085,-0.105
4496,-0.085,-0.110
4497,-0.085,-0.115
4498,-0.090,-0.115
4499,-0.095,-0.115
4500,-0.095,-0.115
4501,-0.095,-0.125
4502,-0.095,-0.125
4503,-0.095,-0.125
4504,-0.095,-0.125
4505,-0.095,-0.120
4506,-0.095,-0.115
4507,-0.100,-0.115
4508,-0.105,-0.115
4509,-0.105,-0.115
4510,-0.105,-0.115
4511,-0.100,-0.120
4512,-0.095,-0.125
4513,-0.090,-0.120
4514,-0.085,-0.115
4515,-0.080,-0.115
4516,-0.080,-0.115
4517,-0.100,-0.115
4518,-0.115,-0.115
4519,-0.105,-0.115
4520,-0.035,-0.115
4521,0.105,-0.115
4522,0.300,-0.105
4523,0.545,-0.085
4524,0.770,-0.055
4525,0.980,-0.020
4526,0.950,-0.010
4527,0.755,-0.025
4528,0.470,-0.090
4529,0.145,-0.175
4530,-0.120,-0.265
4531,-0.360,-0.350
4532,-0.345,-0.390
4533,-0.230,-0.410
4534,-0.145,-0.335
4535,-0.070,-0.235
4536,-0.050,-0.155
4537,-0.040,-0.085
4538,-0.045,-0.065
4539,-0.060,-0.050
4540,-0.065,-0.045
4541,-0.065,-0.050
4542,-0.060,-0.060
4543,-0.055,-0.065
4544,-0.055,-0.060
4545,-0.055,-0.055
4546,-0.050,-0.055
4547,-0.045,-0.055
4548,-0.045,-0.060
4549,-0.045,-0.065
4550,-0.045,-0.060
4551,-0.045,-0.055
4552,-0.040,-0.050
4553,-0.035,-0.045
4554,-0.040,-0.045
4555,-0.045,-0.045
4556,-0.040,-0.045
4557,-0.035,-0.045
4558,-0.030,-0.045
4559,-0.025,-0.045
4560,-0.015,-0.040
4561,-0.005,-0.035
4562,-0.005,-0.035
4563,-0.005,-0.035
4564,0.000,-0.035
4565,0.005,-0.035
4566,0.005,-0.035
4567,0.010,-0.030
4568,0.020,-0.020
4569,0.025,-0.015
4570,0.025,-0.015
4571,0.030,-0.015
4572,0.040,-0.010
4573,0.045,-0.005
4574,0.050,-0.005
4575,0.060,-0.005
4576,0.070,0.000
4577,0.080,0.005
4578,0.090,0.010
4579,0.100,0.015
4580,0.110,0.020
4581,0.120,0.025
4582,0.130,0.025
4583,0.135,0.030
4584,0.145,0.045
4585,0.155,0.050
4586,0.165,0.055
4587,0.170,0.050
4588,0.175,0.045
4589,0.185,0.055
4590,0.195,0.065
4591,0.200,0.065
4592,0.205,0.065
4593,0.205,0.070
4594,0.205,0.075
4595,0.200,0.070
4596,0.195,0.065
4597,0.180,0.055
4598,0.160,0.045
4599,0.135,0.035
4600,0.105,0.025
4601,0.080,0.015
4602,0.055,0.000
4603,0.030,-0.015
4604,0.010,-0.030
4605,-0.015,-0.045
4606,-0.030,-0.055
4607,-0.045,-0.060
4608,-0.060,-0.070
4609,-0.075,-0.080
4610,-0.090,-0.085
4611,-0.100,-0.090
4612,-0.105,-0.095
4613,-0.110,-0.100
4614,-0.115,-0.105
4615,-0.115,-0.105
4616,-0.115,-0.105
4617,-0.120,-0.110
4618,-0.125,-0.115
4619,-0.125,-0.115
4620,-0.125,-0.115
4621,-0.125,-0.115
4622,-0.125,-0.115
4623,-0.125,-0.110
4624,-0.125,-0.105
4625,-0.125,-0.105
4626,-0.120,-0.115
4627,-0.125,-0.115
4628,-0.120,-0.115
4629,-0.115,-0.115
4630,-0.110,-0.110
4631,-0.105,-0.105
4632,-0.110,-0.110
4633,-0.115,-0.115
4634,-0.115,-0.115
4635,-0.115,-0.115
4636,-0.110,-0.115
4637,-0.105,-0.115
4638,-0.105,-0.110
4639,-0.105,-0.105
4640,-0.100,-0.105
4641,-0.095,-0.105
4642,-0.100,-0.105
4643,-0.105,-0.105
4644,-0.105,-0.105
4645,-0.105,-0.105
4646,-0.100,-0.105
4647,-0.095,-0.105
4648,-0.095,-0.105
4649,-0.095,-0.105
4650,-0.100,-0.105
4651,-0.105,-0.105
4652,-0.105,-0.110
4653,-0.105,-0.115
4654,-0.105,-0.110
4655,-0.105,-0.105
4656,-0.105,-0.105
4657,-0.105,-0.105
4658,-0.105,-0.105
4659,-0.105,-0.105
4660,-0.110,-0.110
4661,-0.115,-0.115
4662,-0.115,-0.110
4663,-0.115,-0.105
4664,-0.115,-0.105
4665,-0.115,-0.105
4666,-0.120,-0.105
4667,-0.120,-0.110
4668,-0.115,-0.115
4669,-0.115,-0.115
4670,-0.115,-0.115
4671,-0.115,-0.115
4672,-0.115,-0.115
4673,-0.115,-0.115
4674,-0.115,-0.115
4675,-0.120,-0.120
4676,-0.125,-0.125
4677,-0.120,-0.120
4678,-0.115,-0.115
4679,-0.105,-0.110
4680,-0.095,-0.105
4681,-0.095,-0.105
4682,-0.095,-0.105
4683,-0.085,-0.105
4684,-0.075,-0.105
4685,-0.070,-0.100
4686,-0.065,-0.095
4687,-0.070,-0.090
4688,-0.065,-0.085
4689,-0.045,-0.080
4690,-0.035,-0.075
4691,-0.030,-0.075
4692,-0.025,-0.075
4693,-0.020,-0.075
4694,-0.015,-0.075
4695,-0.020,-0.075
4696,-0.025,-0.075
4697,-0.030,-0.080
4698,-0.050,-0.085
4699,-0.070,-0.090
4700,-0.080,-0.095
4701,-0.090,-0.100
4702,-0.105,-0.105
4703,-0.120,-0.105
4704,-0.125,-0.105
4705,-0.120,-0.110
4706,-0.120,-0.115
4707,-0.130,-0.120
4708,-0.135,-0.125
4709,-0.135,-0.125
4710,-0.135,-0.125
4711,-0.135,-0.125
4712,-0.140,-0.125
4713,-0.145,-0.125
4714,-0.145,-0.125
4715,-0.145,-0.125
4716,-0.140,-0.125
4717,-0.135,-0.125
4718,-0.135,-0.125
4719,-0.135,-0.125
4720,-0.135,-0.125
4721,-0.135,-0.125
4722,-0.135,-0.130
4723,-0.135,-0.135
4724,-0.130,-0.130
4725,-0.125,-0.125
4726,-0.125,-0.125
4727,-0.135,-0.125
4728,-0.165,-0.120
4729,-0.160,-0.115
4730,-0.095,-0.130
4731,0.030,-0.130
4732,0.205,-0.115
4733,0.455,-0.095
4734,0.750,-0.075
4735,0.935,-0.055
4736,1.055,-0.035
4737,0.875,-0.055
4738,0.550,-0.110
4739,0.220,-0.190
4740,-0.105,-0.290
4741,-0.260,-0.360
4742,-0.365,-0.420
4743,-0.295,-0.395
4744,-0.185,-0.345
4745,-0.130,-0.250
4746,-0.080,-0.145
4747,-0.075,-0.095
4748,-0.080,-0.050
4749,-0.085,-0.045
4750,-0.085,-0.045
4751,-0.100,-0.055
4752,-0.105,-0.065
4753,-0.105,-0.065
4754,-0.105,-0.065
4755,-0.100,-0.060
4756,-0.095,-0.055
4757,-0.100,-0.055
4758,-0.105,-0.055
4759,-0.095,-0.055
4760,-0.085,-0.055
4761,-0.085,-0.055
4762,-0.085,-0.055
4763,-0.080,-0.055
4764,-0.075,-0.055
4765,-0.070,-0.050
4766,-0.065,-0.045
4767,-0.065,-0.050
4768,-0.065,-0.055
4769,-0.065,-0.050
4770,-0.065,-0.045
4771,-0.050,-0.040
4772,-0.045,-0.035
4773,-0.050,-0.035
4774,-0.050,-0.035
4775,-0.040,-0.030
4776,-0.030,-0.025
4777,-0.020,-0.025
4778,-0.010,-0.025
4779,0.000,-0.020
4780,0.005,-0.015
4781,0.010,-0.010
4782,0.015,-0.005
4783,0.020,-0.005
4784,0.025,-0.005
4785,0.030,0.000
4786,0.040,0.010
4787,0.050,0.020
4788,0.055,0.025
4789,0.060,0.025
4790,0.075,0.025
4791,0.090,0.030
4792,0.110,0.040
4793,0.125,0.045
4794,0.135,0.055
4795,0.145,0.065
4796,0.155,0.070
4797,0.165,0.075
4798,0.175,0.075
4799,0.185,0.075
4800,0.190,0.075
4801,0.195,0.075
4802,0.205,0.080
4803,0.215,0.085
4804,0.205,0.085
4805,0.195,0.085
4806,0.185,0.080
4807,0.170,0.070
4808,0.155,0.055
4809,0.135,0.045
4810,0.105,0.040
4811,0.075,0.030
4812,0.045,0.010
4813,0.015,-0.010
4814,-0.010,-0.020
4815,-0.035,-0.035
4816,-0.055,-0.055
4817,-0.070,-0.065
4818,-0.085,-0.070
4819,-0.100,-0.080
4820,-0.120,-0.090
4821,-0.125,-0.095
4822,-0.130,-0.100
4823,-0.135,-0.105
4824,-0.140,-0.105
4825,-0.145,-0.105
4826,-0.145,-0.105
4827,-0.145,-0.105
4828,-0.145,-0.110
4829,-0.145,-0.115
4830,-0.145,-0.115
4831,-0.145,-0.115
4832,-0.145,-0.115
4833,-0.145,-0.115
4834,-0.135,-0.115
4835,-0.145,-0.115
4836,-0.155,-0.115
4837,-0.150,-0.115
4838,-0.145,-0.115
4839,-0.145,-0.115
4840,-0.145,-0.115
4841,-0.140,-0.110
4842,-0.135,-0.105
4843,-0.135,-0.105
4844,-0.135,-0.105
4845,-0.135,-0.110
4846,-0.135,-0.115
4847,-0.130,-0.110
4848,-0.125,-0.105
4849,-0.125,-0.105
4850,-0.125,-0.105
4851,-0.130,-0.105
4852,-0.135,-0.105
4853,-0.130,-0.105
4854,-0.125,-0.105
4855,-0.120,-0.105
4856,-0.115,-0.105
4857,-0.115,-0.105
4858,-0.115,-0.105
4859,-0.115,-0.100
4860,-0.115,-0.095
4861,-0.120,-0.100
4862,-0.125,-0.105
4863,-0.120,-0.105
4864,-0.115,-0.105
4865,-0.115,-0.105
4866,-0.120,-0.105
4867,-0.130,-0.105
4868,-0.135,-0.105
4869,-0.130,-0.105
4870,-0.125,-0.105
4871,-0.125,-0.110
4872,-0.125,-0.115
4873,-0.125,-0.110
4874,-0.125,-0.105
4875,-0.125,-0.105
4876,-0.130,-0.105
4877,-0.135,-0.105
4878,-0.135,-0.105
4879,-0.135,-0.105
4880,-0.135,-0.110
4881,-0.135,-0.115
4882,-0.140,-0.110
4883,-0.145,-0.105
4884,-0.140,-0.110
4885,-0.135,-0.115
4886,-0.130,-0.115
4887,-0.125,-0.115
4888,-0.115,-0.110
4889,-0.105,-0.105
4890,-0.100,-0.105
4891,-0.095,-0.105
4892,-0.095,-0.100
4893,-0.095,-0.095
4894,-0.085,-0.090
4895,-0.075,-0.085
4896,-0.070,-0.080
4897,-0.065,-0.075
4898,-0.065,-0.075
4899,-0.060,-0.075
4900,-0.050,-0.075
4901,-0.045,-0.075
4902,-0.040,-0.070
4903,-0.035,-0.065
4904,-0.035,-0.065
4905,-0.035,-0.070
4906,-0.040,-0.080
4907,-0.060,-0.085
4908,-0.085,-0.085
4909,-0.095,-0.085
4910,-0.100,-0.090
4911,-0.110,-0.095
4912,-0.120,-0.095
4913,-0.130,-0.095
4914,-0.140,-0.100
4915,-0.145,-0.105
4916,-0.145,-0.110
4917,-0.145,-0.120
4918,-0.145,-0.125
4919,-0.145,-0.120
4920,-0.145,-0.115
4921,-0.145,-0.120
4922,-0.145,-0.125
4923,-0.150,-0.125
4924,-0.155,-0.125
4925,-0.155,-0.125
4926,-0.155,-0.125
4927,-0.150,-0.120
4928,-0.145,-0.115
4929,-0.150,-0.115
4930,-0.155,-0.115
4931,-0.150,-0.120
4932,-0.145,-0.125
4933,-0.145,-0.120
4934,-0.145,-0.115
4935,-0.140,-0.115
4936,-0.140,-0.115
4937,-0.155,-0.115
4938,-0.160,-0.115
4939,-0.150,-0.115
4940,-0.075,-0.115
4941,0.050,-0.120
4942,0.260,-0.110
4943,0.520,-0.085
4944,0.755,-0.055
4945,0.980,-0.020
4946,0.940,-0.015
4947,0.770,-0.030
4948,0.485,-0.095
4949,0.160,-0.185
4950,-0.130,-0.270
4951,-0.405,-0.360
4952,-0.380,-0.390
4953,-0.290,-0.410
4954,-0.205,-0.335
4955,-0.125,-0.245
4956,-0.110,-0.165
4957,-0.100,-0.090
4958,-0.095,-0.070
4959,-0.105,-0.045
4960,-0.115,-0.050
4961,-0.125,-0.055
4962,-0.125,-0.060
4963,-0.125,-0.065
4964,-0.120,-0.065
4965,-0.115,-0.065
4966,-0.115,-0.060
4967,-0.115,-0.055
4968,-0.105,-0.055
4969,-0.095,-0.055
4970,-0.100,-0.055
4971,-0.105,-0.055
4972,-0.105,-0.055
4973,-0.105,-0.055
4974,-0.100,-0.055
4975,-0.095,-0.055
4976,-0.090,-0.050
4977,-0.085,-0.045
4978,-0.080,-0.045
4979,-0.075,-0.045
4980,-0.070,-0.050
4981,-0.065,-0.050
4982,-0.060,-0.040
4983,-0.055,-0.035
4984,-0.050,-0.035
4985,-0.045,-0.035
4986,-0.045,-0.030
4987,-0.045,-0.025
4988,-0.040,-0.030
4989,-0.030,-0.030
4990,-0.020,-0.020
4991,-0.015,-0.015
4992,-0.015,-0.015
4993,-0.010,-0.015
4994,0.000,-0.010
4995,0.010,-0.005
4996,0.020,-0.005
4997,0.030,0.000
4998,0.040,0.010
4999,0.050,0.015
5000,0.045,0.015
5001,0.075,0.030
5002,0.085,0.035
5003,0.095,0.040
5004,0.105,0.045
5005,0.115,0.050
5006,0.125,0.055
5007,0.135,0.055
5008,0.145,0.055
5009,0.150,0.065
5010,0.155,0.075
5011,0.165,0.070
5012,0.175,0.065
5013,0.180,0.075
5014,0.185,0.085
5015,0.180,0.080
5016,0.170,0.075
5017,0.155,0.065
5018,0.135,0.055
5019,0.110,0.045
5020,0.085,0.035
5021,0.060,0.020
5022,0.035,0.010
5023,0.010,-0.005
5024,-0.015,-0.020
5025,-0.045,-0.035
5026,-0.060,-0.050
5027,-0.075,-0.060
5028,-0.090,-0.070
5029,-0.100,-0.080
5030,-0.115,-0.085
5031,-0.130,-0.090
5032,-0.135,-0.095
5033,-0.140,-0.100
5034,-0.145,-0.105
5035,-0.150,-0.110
5036,-0.155,-0.115
5037,-0.155,-0.115
5038,-0.155,-0.115
5039,-0.160,-0.115
5040,-0.165,-0.115
5041,-0.165,-0.115
5042,-0.160,-0.120
5043,-0.155,-0.125
5044,-0.155,-0.125
5045,-0.155,-0.125
5046,-0.155,-0.120
5047,-0.155,-0.115
5048,-0.155,-0.115
5049,-0.155,-0.115
5050,-0.155,-0.120
5051,-0.155,-0.125
5052,-0.155,-0.120
5053,-0.155,-0.115
5054,-0.155,-0.115
5055,-0.155,-0.115
5056,-0.150,-0.115
5057,-0.145,-0.115
5058,-0.140,-0.120
5059,-0.135,-0.125
5060,-0.135,-0.120
5061,-0.135,-0.115
5062,-0.135,-0.115
5063,-0.135,-0.115
5064,-0.135,-0.115
5065,-0.135,-0.115
5066,-0.130,-0.115
5067,-0.125,-0.115
5068,-0.120,-0.110
5069,-0.115,-0.105
5070,-0.120,-0.105
5071,-0.125,-0.105
5072,-0.125,-0.105
5073,-0.115,-0.105
5074,-0.100,-0.110
5075,-0.090,-0.115
5076,-0.080,-0.110
5077,-0.055,-0.100
5078,-0.030,-0.090
5079,0.000,-0.080
5080,0.030,-0.070
5081,0.145,-0.050
5082,0.270,-0.030
5083,0.380,0.010
5084,0.495,0.055
5085,0.585,0.090
5086,0.675,0.125
5087,0.755,0.130
5088,0.830,0.135
5089,0.890,0.115
5090,0.955,0.095
5091,1.050,0.070
5092,1.140,0.045
5093,1.225,0.040
5094,1.295,0.035
5095,1.280,0.040
5096,1.235,0.025
5097,1.120,-0.050
5098,1.000,-0.130
5099,0.860,-0.215
5100,0.765,-0.290
5101,0.735,-0.355
5102,0.655,-0.385
5103,0.510,-0.355
5104,0.325,-0.305
5105,0.095,-0.230
5106,-0.080,-0.175
5107,-0.200,-0.125
5108,-0.265,-0.100
5109,-0.295,-0.090
5110,-0.300,-0.085
5111,-0.285,-0.085
5112,-0.280,-0.085
5113,-0.290,-0.085
5114,-0.295,-0.085
5115,-0.295,-0.085
5116,-0.295,-0.085
5117,-0.300,-0.090
5118,-0.325,-0.095
5119,-0.350,-0.095
5120,-0.360,-0.100
5121,-0.370,-0.110
5122,-0.390,-0.115
5123,-0.410,-0.110
5124,-0.420,-0.105
5125,-0.415,-0.105
5126,-0.440,-0.120
5127,-0.445,-0.125
5128,-0.450,-0.130
5129,-0.455,-0.135
5130,-0.460,-0.130
5131,-0.465,-0.125
5132,-0.475,-0.125
5133,-0.485,-0.125
5134,-0.490,-0.125
5135,-0.495,-0.125
5136,-0.505,-0.125
5137,-0.515,-0.125
5138,-0.525,-0.120
5139,-0.540,-0.115
5140,-0.555,-0.115
5141,-0.565,-0.115
5142,-0.575,-0.115
5143,-0.590,-0.115
5144,-0.605,-0.115
5145,-0.620,-0.115
5146,-0.635,-0.115
5147,-0.650,-0.115
5148,-0.665,-0.115
5149,-0.675,-0.115
5150,-0.680,-0.110
5151,-0.685,-0.105
5152,-0.680,-0.105
5153,-0.670,-0.105
5154,-0.660,-0.100
5155,-0.645,-0.095
5156,-0.625,-0.090
5157,-0.600,-0.080
5158,-0.580,-0.070
5159,-0.555,-0.065
5160,-0.520,-0.065
5161,-0.480,-0.060
5162,-0.435,-0.050
5163,-0.400,-0.045
5164,-0.370,-0.040
5165,-0.335,-0.035
5166,-0.300,-0.035
5167,-0.265,-0.040
5168,-0.235,-0.045
5169,-0.220,-0.050
5170,-0.205,-0.055
5171,-0.190,-0.065
5172,-0.175,-0.075
5173,-0.170,-0.090
5174,-0.165,-0.105
5175,-0.165,-0.110
5176,-0.165,-0.115
5177,-0.160,-0.115
5178,-0.155,-0.115
5179,-0.165,-0.120
5180,-0.175,-0.125
5181,-0.175,-0.135
5182,-0.175,-0.145
5183,-0.170,-0.150
5184,-0.165,-0.155
5185,-0.165,-0.150
5186,-0.165,-0.145
5187,-0.165,-0.145
5188,-0.165,-0.145
5189,-0.165,-0.150
5190,-0.165,-0.155
5191,-0.160,-0.155
5192,-0.155,-0.155
5193,-0.155,-0.150
5194,-0.155,-0.145
5195,-0.160,-0.145
5196,-0.165,-0.145
5197,-0.160,-0.150
5198,-0.155,-0.155
5199,-0.155,-0.150
5200,-0.150,-0.145
5201,-0.140,-0.145
5202,-0.135,-0.145
5203,-0.135,-0.145
5204,-0.135,-0.145
5205,-0.140,-0.145
5206,-0.145,-0.145
5207,-0.140,-0.145
5208,-0.135,-0.145
5209,-0.125,-0.135
5210,-0.135,-0.140
5211,-0.145,-0.145
5212,-0.145,-0.145
5213,-0.145,-0.145
5214,-0.140,-0.145
5215,-0.135,-0.145
5216,-0.130,-0.140
5217,-0.125,-0.135
5218,-0.120,-0.135
5219,-0.115,-0.135
5220,-0.125,-0.140
5221,-0.135,-0.145
5222,-0.130,-0.145
5223,-0.125,-0.145
5224,-0.125,-0.145
5225,-0.125,-0.145
5226,-0.130,-0.145
5227,-0.135,-0.145
5228,-0.135,-0.150
5229,-0.135,-0.155
5230,-0.135,-0.155
5231,-0.135,-0.155
5232,-0.130,-0.150
5233,-0.125,-0.145
5234,-0.125,-0.145
5235,-0.125,-0.145
5236,-0.125,-0.145
5237,-0.125,-0.145
5238,-0.130,-0.145
5239,-0.135,-0.145
5240,-0.130,-0.145
5241,-0.125,-0.145
5242,-0.125,-0.145
5243,-0.125,-0.145
5244,-0.130,-0.145
5245,-0.135,-0.145
5246,-0.135,-0.150
5247,-0.130,-0.155
5248,-0.120,-0.150
5249,-0.115,-0.145
5250,-0.115,-0.145
5251,-0.120,-0.145
5252,-0.115,-0.145
5253,-0.120,-0.145
5254,-0.125,-0.145
5255,-0.125,-0.145
5256,-0.125,-0.145
5257,-0.125,-0.140
5258,-0.125,-0.135
5259,-0.130,-0.140
5260,-0.135,-0.145
5261,-0.130,-0.145
5262,-0.125,-0.145
5263,-0.125,-0.140
5264,-0.125,-0.135
5265,-0.120,-0.140
5266,-0.115,-0.145
5267,-0.115,-0.140
5268,-0.115,-0.135
5269,-0.120,-0.140
5270,-0.125,-0.145
5271,-0.125,-0.145
5272,-0.125,-0.145
5273,-0.125,-0.140
5274,-0.125,-0.135
5275,-0.125,-0.135
5276,-0.125,-0.135
5277,-0.125,-0.140
5278,-0.125,-0.145
5279,-0.125,-0.145
5280,-0.125,-0.145
5281,-0.125,-0.140
5282,-0.125,-0.135
5283,-0.120,-0.140
5284,-0.115,-0.145
5285,-0.115,-0.145
5286,-0.115,-0.145
5287,-0.115,-0.145
5288,-0.115,-0.145
5289,-0.115,-0.140
5290,-0.115,-0.135
5291,-0.120,-0.140
5292,-0.120,-0.145
5293,-0.115,-0.145
5294,-0.115,-0.140
5295,-0.115,-0.135
5296,-0.115,-0.135
5297,-0.115,-0.135
5298,-0.110,-0.140
5299,-0.105,-0.145
5300,-0.110,-0.145
5301,-0.115,-0.145
5302,-0.110,-0.140
5303,-0.105,-0.135
5304,-0.105,-0.135
5305,-0.105,-0.135
5306,-0.110,-0.135
5307,-0.115,-0.135
5308,-0.110,-0.135
5309,-0.105,-0.135
5310,-0.105,-0.135
5311,-0.105,-0.135
5312,-0.105,-0.135
5313,-0.105,-0.135
5314,-0.105,-0.135
5315,-0.105,-0.135
5316,-0.105,-0.135
5317,-0.100,-0.135
5318,-0.090,-0.130
5319,-0.080,-0.125
5320,-0.070,-0.120
5321,-0.065,-0.115
5322,-0.070,-0.115
5323,-0.070,-0.115
5324,-0.060,-0.115
5325,-0.055,-0.110
5326,-0.050,-0.100
5327,-0.040,-0.095
5328,-0.030,-0.095
5329,-0.020,-0.095
5330,-0.010,-0.090
5331,-0.005,-0.085
5332,-0.005,-0.090
5333,-0.005,-0.095
5334,-0.005,-0.085
5335,-0.010,-0.095
5336,-0.015,-0.105
5337,-0.045,-0.105
5338,-0.075,-0.105
5339,-0.075,-0.115
5340,-0.075,-0.125
5341,-0.085,-0.125
5342,-0.095,-0.125
5343,-0.100,-0.125
5344,-0.105,-0.125
5345,-0.110,-0.130
5346,-0.115,-0.135
5347,-0.120,-0.140
5348,-0.125,-0.145
5349,-0.125,-0.145
5350,-0.125,-0.145
5351,-0.125,-0.145
5352,-0.125,-0.145
5353,-0.130,-0.145
5354,-0.135,-0.145
5355,-0.130,-0.145
5356,-0.125,-0.145
5357,-0.125,-0.140
5358,-0.125,-0.135
5359,-0.125,-0.135
5360,-0.120,-0.135
5361,-0.110,-0.135
5362,-0.110,-0.135
5363,-0.120,-0.140
5364,-0.135,-0.140
5365,-0.150,-0.130
5366,-0.095,-0.125
5367,-0.015,-0.130
5368,0.150,-0.125
5369,0.335,-0.110
5370,0.580,-0.095
5371,0.830,-0.080
5372,0.875,-0.050
5373,0.900,-0.020
5374,0.595,-0.090
5375,0.905,-0.015
5376,-0.060,-0.265
5377,-0.375,-0.355
5378,-0.375,-0.405
5379,-0.365,-0.455
5380,-0.245,-0.415
5381,-0.130,-0.360
5382,-0.095,-0.245
5383,-0.065,-0.140
5384,-0.075,-0.105
5385,-0.085,-0.075
5386,-0.095,-0.080
5387,-0.105,-0.085
5388,-0.100,-0.085
5389,-0.095,-0.085
5390,-0.090,-0.085
5391,-0.085,-0.085
5392,-0.090,-0.085
5393,-0.095,-0.085
5394,-0.090,-0.085
5395,-0.085,-0.085
5396,-0.080,-0.080
5397,-0.080,-0.075
5398,-0.090,-0.075
5399,-0.095,-0.075
5400,-0.090,-0.075
5401,-0.085,-0.075
5402,-0.080,-0.080
5403,-0.075,-0.080
5404,-0.070,-0.070
5405,-0.065,-0.065
5406,-0.065,-0.065
5407,-0.060,-0.065
5408,-0.050,-0.065
5409,-0.045,-0.065
5410,-0.040,-0.065
5411,-0.035,-0.065
5412,-0.035,-0.060
5413,-0.035,-0.055
5414,-0.035,-0.060
5415,-0.030,-0.065
5416,-0.020,-0.060
5417,-0.010,-0.050
5418,-0.005,-0.045
5419,0.005,-0.040
5420,0.015,-0.035
5421,0.020,-0.030
5422,0.025,-0.025
5423,0.030,-0.025
5424,0.035,-0.025
5425,0.045,-0.020
5426,0.055,-0.015
5427,0.060,-0.010
5428,0.065,-0.005
5429,0.070,0.000
5430,0.075,0.005
5431,0.085,0.005
5432,0.095,0.005
5433,0.105,0.005
5434,0.115,0.005
5435,0.120,0.015
5436,0.125,0.025
5437,0.135,0.025
5438,0.145,0.025
5439,0.140,0.025
5440,0.135,0.025
5441,0.135,0.025
5442,0.135,0.025
5443,0.135,0.025
5444,0.125,0.020
5445,0.105,0.010
5446,0.090,0.000
5447,0.080,-0.010
5448,0.070,-0.020
5449,0.060,-0.030
5450,0.040,-0.035
5451,0.020,-0.040
5452,0.000,-0.050
5453,-0.020,-0.060
5454,-0.035,-0.070
5455,-0.050,-0.080
5456,-0.065,-0.090
5457,-0.080,-0.100
5458,-0.085,-0.105
5459,-0.095,-0.105
5460,-0.100,-0.110
5461,-0.105,-0.115
5462,-0.115,-0.120
5463,-0.125,-0.125
5464,-0.125,-0.120
5465,-0.125,-0.115
5466,-0.120,-0.120
5467,-0.115,-0.125
5468,-0.115,-0.125
5469,-0.115,-0.125
5470,-0.110,-0.125
5471,-0.105,-0.125
5472,-0.105,-0.125
5473,-0.105,-0.125
5474,-0.105,-0.120
5475,-0.105,-0.115
5476,-0.105,-0.115
5477,-0.105,-0.115
5478,-0.105,-0.115
5479,-0.105,-0.115
5480,-0.100,-0.120
5481,-0.095,-0.125
5482,-0.095,-0.120
5483,-0.095,-0.115
5484,-0.090,-0.115
5485,-0.085,-0.115
5486,-0.085,-0.115
5487,-0.085,-0.115
5488,-0.090,-0.115
5489,-0.095,-0.115
5490,-0.090,-0.110
5491,-0.085,-0.105
5492,-0.090,-0.110
5493,-0.095,-0.115
5494,-0.090,-0.115
5495,-0.085,-0.115
5496,-0.090,-0.115
5497,-0.095,-0.115
5498,-0.095,-0.110
5499,-0.095,-0.105
5500,-0.095,-0.105
5501,-0.095,-0.115
5502,-0.095,-0.115
5503,-0.100,-0.120
5504,-0.105,-0.125
5505,-0.110,-0.120
5506,-0.115,-0.115
5507,-0.120,-0.115
5508,-0.125,-0.115
5509,-0.120,-0.120
5510,-0.115,-0.125
5511,-0.120,-0.125
5512,-0.125,-0.125
5513,-0.120,-0.120
5514,-0.115,-0.115
5515,-0.115,-0.115
5516,-0.115,-0.115
5517,-0.120,-0.115
5518,-0.125,-0.115
5519,-0.120,-0.120
5520,-0.115,-0.125
5521,-0.100,-0.110
5522,-0.095,-0.105
5523,-0.100,-0.110
5524,-0.100,-0.115
5525,-0.090,-0.110
5526,-0.085,-0.105
5527,-0.080,-0.100
5528,-0.070,-0.095
5529,-0.060,-0.090
5530,-0.055,-0.085
5531,-0.050,-0.085
5532,-0.040,-0.085
5533,-0.030,-0.085
5534,-0.025,-0.085
5535,-0.025,-0.080
5536,-0.025,-0.075
5537,-0.025,-0.075
5538,-0.025,-0.075
5539,-0.030,-0.080
5540,-0.045,-0.085
5541,-0.060,-0.090
5542,-0.070,-0.095
5543,-0.075,-0.095
5544,-0.090,-0.100
5545,-0.105,-0.105
5546,-0.110,-0.110
5547,-0.115,-0.115
5548,-0.120,-0.120
5549,-0.125,-0.125
5550,-0.125,-0.125
5551,-0.125,-0.125
5552,-0.125,-0.125
5553,-0.125,-0.125
5554,-0.135,-0.125
5555,-0.145,-0.125
5556,-0.140,-0.125
5557,-0.135,-0.125
5558,-0.130,-0.125
5559,-0.125,-0.125
5560,-0.125,-0.125
5561,-0.125,-0.125
5562,-0.125,-0.125
5563,-0.125,-0.125
5564,-0.125,-0.125
5565,-0.125,-0.125
5566,-0.125,-0.125
5567,-0.120,-0.125
5568,-0.110,-0.120
5569,-0.115,-0.115
5570,-0.135,-0.120
5571,-0.145,-0.125
5572,-0.150,-0.125
5573,-0.070,-0.125
5574,0.045,-0.130
5575,0.275,-0.115
5576,0.530,-0.090
5577,0.755,-0.060
5578,0.975,-0.030
5579,0.895,-0.025
5580,0.765,-0.025
5581,0.455,-0.105
5582,0.130,-0.200
5583,-0.160,-0.275
5584,-0.445,-0.355
5585,-0.375,-0.395
5586,-0.300,-0.430
5587,-0.195,-0.350
5588,-0.095,-0.270
5589,-0.075,-0.180
5590,-0.055,-0.105
5591,-0.065,-0.070
5592,-0.075,-0.045
5593,-0.075,-0.050
5594,-0.075,-0.055
5595,-0.080,-0.055
5596,-0.085,-0.055
5597,-0.085,-0.060
5598,-0.085,-0.065
5599,-0.080,-0.060
5600,-0.075,-0.055
5601,-0.075,-0.055
5602,-0.075,-0.055
5603,-0.075,-0.060
5604,-0.075,-0.065
5605,-0.070,-0.060
5606,-0.065,-0.055
5607,-0.060,-0.050
5608,-0.055,-0.045
5609,-0.050,-0.045
5610,-0.045,-0.045
5611,-0.045,-0.045
5612,-0.045,-0.045
5613,-0.040,-0.045
5614,-0.035,-0.045
5615,-0.030,-0.045
5616,-0.025,-0.045
5617,-0.020,-0.040
5618,-0.015,-0.035
5619,-0.015,-0.030
5620,-0.010,-0.025
5621,0.000,-0.030
5622,0.010,-0.030
5623,0.020,-0.020
5624,0.025,-0.015
5625,0.025,-0.015
5626,0.035,-0.010
5627,0.045,-0.005
5628,0.050,-0.005
5629,0.055,-0.005
5630,0.070,0.005
5631,0.085,0.015
5632,0.090,0.020
5633,0.095,0.025
5634,0.100,0.025
5635,0.105,0.025
5636,0.120,0.030
5637,0.135,0.035
5638,0.145,0.045
5639,0.155,0.055
5640,0.165,0.060
5641,0.175,0.065
5642,0.185,0.065
5643,0.195,0.065
5644,0.195,0.065
5645,0.195,0.065
5646,0.200,0.070
5647,0.205,0.075
5648,0.200,0.070
5649,0.190,0.065
5650,0.180,0.065
5651,0.160,0.060
5652,0.135,0.050
5653,0.115,0.040
5654,0.095,0.030
5655,0.065,0.015
5656,0.035,0.000
5657,0.010,-0.010
5658,-0.010,-0.020
5659,-0.030,-0.035
5660,-0.050,-0.050
5661,-0.065,-0.055
5662,-0.080,-0.060
5663,-0.090,-0.070
5664,-0.100,-0.080
5665,-0.110,-0.085
5666,-0.120,-0.085
5667,-0.125,-0.090
5668,-0.125,-0.095
5669,-0.125,-0.095
5670,-0.125,-0.095
5671,-0.125,-0.095
5672,-0.125,-0.095
5673,-0.125,-0.095
5674,-0.125,-0.095
5675,-0.125,-0.100
5676,-0.125,-0.105
5677,-0.125,-0.100
5678,-0.125,-0.095
5679,-0.125,-0.095
5680,-0.125,-0.095
5681,-0.130,-0.095
5682,-0.135,-0.095
5683,-0.125,-0.100
5684,-0.115,-0.105
5685,-0.115,-0.100
5686,-0.115,-0.095
5687,-0.115,-0.095
5688,-0.115,-0.095
5689,-0.115,-0.095
5690,-0.115,-0.095
5691,-0.110,-0.095
5692,-0.105,-0.095
5693,-0.105,-0.095
5694,-0.105,-0.095
5695,-0.105,-0.090
5696,-0.105,-0.085
5697,-0.110,-0.090
5698,-0.115,-0.095
5699,-0.110,-0.095
5700,-0.105,-0.095
5701,-0.100,-0.090
5702,-0.095,-0.085
5703,-0.095,-0.085
5704,-0.095,-0.085
5705,-0.095,-0.085
5706,-0.095,-0.085
5707,-0.095,-0.085
5708,-0.095,-0.085
5709,-0.095,-0.085
5710,-0.100,-0.085
5711,-0.105,-0.085
5712,-0.105,-0.085
5713,-0.105,-0.085
5714,-0.105,-0.085
5715,-0.105,-0.085
5716,-0.105,-0.085
5717,-0.105,-0.085
5718,-0.105,-0.085
5719,-0.105,-0.085
5720,-0.105,-0.090
5721,-0.105,-0.095
5722,-0.105,-0.095
5723,-0.105,-0.095
5724,-0.105,-0.090
5725,-0.105,-0.085
5726,-0.105,-0.085
5727,-0.105,-0.085
5728,-0.105,-0.085
5729,-0.105,-0.085
5730,-0.090,-0.090
5731,-0.080,-0.090
5732,-0.070,-0.080
5733,-0.065,-0.075
5734,-0.060,-0.070
5735,-0.055,-0.065
5736,-0.050,-0.065
5737,-0.045,-0.065
5738,-0.045,-0.065
5739,-0.035,-0.065
5740,-0.020,-0.060
5741,-0.015,-0.050
5742,-0.010,-0.040
5743,-0.005,-0.035
5744,-0.010,-0.040
5745,-0.015,-0.045
5746,-0.010,-0.050
5747,-0.015,-0.055
5748,-0.030,-0.055
5749,-0.040,-0.055
5750,-0.035,-0.055
5751,-0.070,-0.070
5752,-0.085,-0.075
5753,-0.090,-0.080
5754,-0.095,-0.085
5755,-0.100,-0.085
5756,-0.105,-0.085
5757,-0.115,-0.090
5758,-0.125,-0.095
5759,-0.125,-0.100
5760,-0.125,-0.105
5761,-0.120,-0.105
5762,-0.115,-0.105
5763,-0.115,-0.100
5764,-0.115,-0.095
5765,-0.115,-0.095
5766,-0.115,-0.095
5767,-0.120,-0.095
5768,-0.125,-0.095
5769,-0.125,-0.100
5770,-0.125,-0.105
5771,-0.120,-0.100
5772,-0.115,-0.095
5773,-0.120,-0.095
5774,-0.125,-0.095
5775,-0.120,-0.095
5776,-0.120,-0.095
5777,-0.130,-0.100
5778,-0.135,-0.105
5779,-0.140,-0.100
5780,-0.065,-0.095
5781,0.055,-0.100
5782,0.265,-0.090
5783,0.505,-0.070
5784,0.755,-0.045
5785,1.015,-0.010
5786,0.965,-0.005
5787,0.860,-0.010
5788,0.555,-0.085
5789,0.230,-0.165
5790,-0.100,-0.265
5791,-0.425,-0.360
5792,-0.350,-0.390
5793,-0.265,-0.415
5794,-0.170,-0.315
5795,-0.085,-0.220
5796,-0.070,-0.140
5797,-0.055,-0.065
5798,-0.065,-0.045
5799,-0.075,-0.025
5800,-0.085,-0.035
5801,-0.095,-0.045
5802,-0.090,-0.040
5803,-0.085,-0.035
5804,-0.090,-0.035
5805,-0.095,-0.035
5806,-0.085,-0.040
5807,-0.075,-0.045
5808,-0.075,-0.040
5809,-0.075,-0.035
5810,-0.070,-0.030
5811,-0.065,-0.025
5812,-0.060,-0.025
5813,-0.055,-0.025
5814,-0.060,-0.025
5815,-0.065,-0.025
5816,-0.060,-0.025
5817,-0.055,-0.025
5818,-0.050,-0.020
5819,-0.045,-0.015
5820,-0.045,-0.015
5821,-0.040,-0.015
5822,-0.030,-0.015
5823,-0.025,-0.015
5824,-0.020,-0.010
5825,-0.010,-0.005
5826,0.000,-0.005
5827,0.005,-0.005
5828,0.005,0.000
5829,0.005,0.005
5830,0.010,0.010
5831,0.015,0.015
5832,0.020,0.015
5833,0.030,0.015
5834,0.045,0.025
5835,0.050,0.025
5836,0.055,0.025
5837,0.065,0.035
5838,0.075,0.045
5839,0.085,0.045
5840,0.095,0.045
5841,0.110,0.055
5842,0.125,0.065
5843,0.135,0.070
5844,0.145,0.075
5845,0.155,0.080
5846,0.165,0.085
5847,0.170,0.085
5848,0.180,0.085
5849,0.195,0.095
5850,0.205,0.105
5851,0.205,0.105
5852,0.205,0.105
5853,0.215,0.105
5854,0.225,0.105
5855,0.220,0.100
5856,0.210,0.095
5857,0.200,0.095
5858,0.185,0.090
5859,0.155,0.075
5860,0.130,0.060
5861,0.100,0.045
5862,0.070,0.025
5863,0.045,0.010
5864,0.020,0.000
5865,-0.005,-0.010
5866,-0.030,-0.020
5867,-0.060,-0.030
5868,-0.075,-0.045
5869,-0.090,-0.060
5870,-0.095,-0.065
5871,-0.100,-0.070
5872,-0.105,-0.075
5873,-0.110,-0.080
5874,-0.115,-0.085
5875,-0.115,-0.085
5876,-0.120,-0.090
5877,-0.125,-0.095
5878,-0.130,-0.095
5879,-0.135,-0.095
5880,-0.130,-0.090
5881,-0.125,-0.085
5882,-0.130,-0.090
5883,-0.135,-0.095
5884,-0.135,-0.095
5885,-0.135,-0.095
5886,-0.130,-0.095
5887,-0.125,-0.095
5888,-0.125,-0.090
5889,-0.125,-0.085
5890,-0.125,-0.090
5891,-0.125,-0.095
5892,-0.125,-0.095
5893,-0.125,-0.095
5894,-0.125,-0.090
5895,-0.125,-0.085
5896,-0.125,-0.085
5897,-0.125,-0.085
5898,-0.120,-0.085
5899,-0.115,-0.085
5900,-0.115,-0.085
5901,-0.115,-0.085
5902,-0.115,-0.085
5903,-0.115,-0.085
5904,-0.110,-0.085
5905,-0.105,-0.085
5906,-0.105,-0.080
5907,-0.105,-0.075
5908,-0.100,-0.080
5909,-0.095,-0.085
5910,-0.100,-0.085
5911,-0.105,-0.085
5912,-0.110,-0.085
5913,-0.115,-0.085
5914,-0.110,-0.085
5915,-0.105,-0.085
5916,-0.110,-0.085
5917,-0.115,-0.085
5918,-0.115,-0.085
5919,-0.110,-0.085
5920,-0.105,-0.085
5921,-0.105,-0.085
5922,-0.105,-0.085
5923,-0.110,-0.085
5924,-0.115,-0.085
5925,-0.110,-0.090
5926,-0.105,-0.095
5927,-0.110,-0.090
5928,-0.115,-0.085
5929,-0.115,-0.090
5930,-0.115,-0.095
5931,-0.115,-0.095
5932,-0.115,-0.095
5933,-0.110,-0.095
5934,-0.105,-0.095
5935,-0.095,-0.090
5936,-0.085,-0.085
5937,-0.080,-0.085
5938,-0.075,-0.085
5939,-0.075,-0.085
5940,-0.075,-0.085
5941,-0.070,-0.080
5942,-0.065,-0.075
5943,-0.060,-0.070
5944,-0.055,-0.065
5945,-0.050,-0.060
5946,-0.040,-0.055
5947,-0.030,-0.055
5948,-0.025,-0.055
5949,-0.020,-0.055
5950,-0.015,-0.055
5951,-0.015,-0.055
5952,-0.015,-0.055
5953,-0.015,-0.060
5954,-0.035,-0.065
5955,-0.060,-0.065
5956,-0.075,-0.070
5957,-0.090,-0.080
5958,-0.095,-0.085
5959,-0.105,-0.085
5960,-0.115,-0.095
5961,-0.125,-0.105
5962,-0.125,-0.105
5963,-0.125,-0.105
5964,-0.125,-0.105
5965,-0.125,-0.105
5966,-0.125,-0.105
5967,-0.125,-0.105
5968,-0.125,-0.105
5969,-0.125,-0.105
5970,-0.130,-0.105
5971,-0.135,-0.105
5972,-0.135,-0.110
5973,-0.135,-0.115
5974,-0.130,-0.110
5975,-0.125,-0.105
5976,-0.135,-0.105
5977,-0.145,-0.105
5978,-0.135,-0.110
5979,-0.125,-0.115
5980,-0.120,-0.115
5981,-0.115,-0.115
5982,-0.115,-0.110
5983,-0.120,-0.105
5984,-0.130,-0.105
5985,-0.135,-0.105
5986,-0.135,-0.105
5987,-0.050,-0.105
5988,0.085,-0.110
5989,0.295,-0.100
5990,0.535,-0.075
5991,0.775,-0.045
5992,1.010,-0.015
5993,0.955,-0.010
5994,0.825,-0.020
5995,0.525,-0.090
5996,0.200,-0.165
5997,-0.100,-0.250
5998,-0.400,-0.340
5999,-0.345,-0.375
6000,-0.415,-0.345
6001,-0.180,-0.330
6002,-0.095,-0.245
6003,-0.080,-0.155
6004,-0.065,-0.075
6005,-0.070,-0.055
6006,-0.075,-0.035
6007,-0.085,-0.040
6008,-0.095,-0.045
6009,-0.095,-0.050
6010,-0.095,-0.055
6011,-0.090,-0.055
6012,-0.085,-0.055
6013,-0.080,-0.050
6014,-0.075,-0.045
6015,-0.075,-0.045
6016,-0.075,-0.045
6017,-0.075,-0.045
6018,-0.075,-0.045
6019,-0.070,-0.045
6020,-0.065,-0.045
6021,-0.060,-0.045
6022,-0.055,-0.045
6023,-0.055,-0.040
6024,-0.055,-0.035
6025,-0.050,-0.035
6026,-0.045,-0.035
6027,-0.040,-0.035
6028,-0.035,-0.035
6029,-0.030,-0.030
6030,-0.025,-0.025
6031,-0.020,-0.020
6032,-0.015,-0.015
6033,-0.010,-0.015
6034,-0.005,-0.015
6035,0.000,-0.015
6036,0.005,-0.015
6037,0.010,-0.010
6038,0.015,-0.005
6039,0.020,0.000
6040,0.025,0.005
6041,0.030,0.005
6042,0.045,0.005
6043,0.055,0.005
6044,0.065,0.015
6045,0.075,0.025
6046,0.085,0.030
6047,0.095,0.035
6048,0.105,0.040
6049,0.115,0.045
6050,0.120,0.045
6051,0.125,0.045
6052,0.135,0.055
6053,0.150,0.065
6054,0.170,0.070
6055,0.185,0.075
6056,0.190,0.080
6057,0.195,0.085
6058,0.200,0.085
6059,0.205,0.085
6060,0.215,0.085
6061,0.225,0.085
6062,0.225,0.085
6063,0.220,0.085
6064,0.210,0.085
6065,0.195,0.080
6066,0.170,0.065
6067,0.140,0.050
6068,0.115,0.040
6069,0.090,0.030
6070,0.055,0.010
6071,0.025,0.000
6072,-0.015,-0.010
6073,-0.035,-0.025
6074,-0.050,-0.040
6075,-0.065,-0.055
6076,-0.080,-0.070
6077,-0.090,-0.075
6078,-0.100,-0.080
6079,-0.105,-0.085
6080,-0.105,-0.090
6081,-0.105,-0.095
6082,-0.110,-0.100
6083,-0.115,-0.105
6084,-0.125,-0.105
6085,-0.125,-0.105
6086,-0.125,-0.105
6087,-0.130,-0.110
6088,-0.135,-0.115
6089,-0.130,-0.115
6090,-0.125,-0.115
6091,-0.125,-0.110
6092,-0.125,-0.105
6093,-0.125,-0.105
6094,-0.125,-0.105
6095,-0.125,-0.105
6096,-0.125,-0.105
6097,-0.125,-0.105
6098,-0.125,-0.105
6099,-0.120,-0.105
6100,-0.115,-0.105
6101,-0.115,-0.100
6102,-0.115,-0.095
6103,-0.120,-0.100
6104,-0.125,-0.105
6105,-0.120,-0.110
6106,-0.115,-0.115
6107,-0.115,-0.110
6108,-0.115,-0.105
6109,-0.110,-0.105
6110,-0.105,-0.105
6111,-0.105,-0.105
6112,-0.105,-0.105
6113,-0.105,-0.105
6114,-0.105,-0.105
6115,-0.105,-0.105
6116,-0.105,-0.105
6117,-0.105,-0.105
6118,-0.105,-0.105
6119,-0.105,-0.105
6120,-0.105,-0.105
6121,-0.105,-0.105
6122,-0.105,-0.105
6123,-0.105,-0.105
6124,-0.105,-0.105
6125,-0.105,-0.105
6126,-0.110,-0.105
6127,-0.115,-0.105
6128,-0.115,-0.110
6129,-0.115,-0.115
6130,-0.110,-0.115
6131,-0.105,-0.115
6132,-0.110,-0.115
6133,-0.115,-0.115
6134,-0.115,-0.115
6135,-0.115,-0.115
6136,-0.115,-0.115
6137,-0.115,-0.115
6138,-0.115,-0.110
6139,-0.115,-0.105
6140,-0.110,-0.110
6141,-0.105,-0.115
6142,-0.105,-0.115
6143,-0.105,-0.115
6144,-0.095,-0.110
6145,-0.085,-0.105
6146,-0.070,-0.100
6147,-0.065,-0.095
6148,-0.070,-0.095
6149,-0.075,-0.095
6150,-0.070,-0.095
6151,-0.060,-0.095
6152,-0.050,-0.090
6153,-0.035,-0.080
6154,-0.020,-0.070
6155,-0.015,-0.065
6156,-0.010,-0.065
6157,-0.010,-0.065
6158,-0.020,-0.070
6159,-0.025,-0.075
6160,-0.020,-0.080
6161,-0.025,-0.085
6162,-0.040,-0.085
6163,-0.060,-0.085
6164,-0.080,-0.090
6165,-0.090,-0.100
6166,-0.100,-0.110
6167,-0.105,-0.115
6168,-0.105,-0.115
6169,-0.110,-0.115
6170,-0.115,-0.115
6171,-0.115,-0.125
6172,-0.115,-0.135
6173,-0.120,-0.135
6174,-0.125,-0.135
6175,-0.125,-0.135
6176,-0.125,-0.135
6177,-0.120,-0.130
6178,-0.115,-0.125
6179,-0.125,-0.125
6180,-0.135,-0.125
6181,-0.135,-0.130
6182,-0.135,-0.135
6183,-0.130,-0.135
6184,-0.125,-0.135
6185,-0.125,-0.130
6186,-0.125,-0.125
6187,-0.115,-0.130
6188,-0.105,-0.135
6189,-0.110,-0.135
6190,-0.115,-0.135
6191,-0.115,-0.135
6192,-0.125,-0.135
6193,-0.145,-0.130
6194,-0.115,-0.125
6195,-0.050,-0.125
6196,0.105,-0.125
6197,0.300,-0.120
6198,0.555,-0.100
6199,0.830,-0.080
6200,0.940,-0.050
6201,1.000,-0.015
6202,0.745,-0.050
6203,0.420,-0.105
6204,0.090,-0.200
6205,-0.235,-0.305
6206,-0.310,-0.375
6207,-0.360,-0.440
6208,-0.250,-0.415
6209,-0.125,-0.375
6210,-0.100,-0.265
6211,-0.075,-0.155
6212,-0.075,-0.115
6213,-0.075,-0.075
6214,-0.075,-0.070
6215,-0.075,-0.065
6216,-0.075,-0.065
6217,-0.075,-0.065
6218,-0.075,-0.070
6219,-0.075,-0.075
6220,-0.075,-0.075
6221,-0.075,-0.075
6222,-0.075,-0.075
6223,-0.075,-0.075
6224,-0.070,-0.070
6225,-0.065,-0.065
6226,-0.070,-0.065
6227,-0.075,-0.065
6228,-0.070,-0.065
6229,-0.065,-0.065
6230,-0.060,-0.065
6231,-0.055,-0.065
6232,-0.050,-0.060
6233,-0.040,-0.055
6234,-0.030,-0.060
6235,-0.025,-0.065
6236,-0.025,-0.060
6237,-0.025,-0.055
6238,-0.020,-0.055
6239,-0.015,-0.055
6240,-0.010,-0.050
6241,-0.005,-0.045
6242,-0.005,-0.040
6243,-0.005,-0.035
6244,0.000,-0.035
6245,0.010,-0.035
6246,0.020,-0.030
6247,0.030,-0.025
6248,0.040,-0.025
6249,0.050,-0.025
6250,0.045,-0.025
6251,0.065,-0.010
6252,0.065,-0.005
6253,0.075,0.000
6254,0.085,0.005
6255,0.100,0.005
6256,0.115,0.005
6257,0.120,0.015
6258,0.125,0.025
6259,0.135,0.025
6260,0.145,0.025
6261,0.160,0.030
6262,0.175,0.035
6263,0.180,0.040
6264,0.185,0.045
6265,0.195,0.045
6266,0.205,0.045
6267,0.210,0.045
6268,0.215,0.045
6269,0.215,0.045
6270,0.215,0.045
6271,0.200,0.045
6272,0.185,0.040
6273,0.165,0.030
6274,0.145,0.020
6275,0.115,0.010
6276,0.090,0.000
6277,0.065,-0.015
6278,0.040,-0.030
6279,0.015,-0.040
6280,-0.005,-0.050
6281,-0.020,-0.060
6282,-0.040,-0.070
6283,-0.060,-0.080
6284,-0.070,-0.085
6285,-0.080,-0.090
6286,-0.090,-0.095
6287,-0.100,-0.100
6288,-0.105,-0.105
6289,-0.110,-0.110
6290,-0.115,-0.115
6291,-0.115,-0.115
6292,-0.115,-0.120
6293,-0.115,-0.125
6294,-0.115,-0.120
6295,-0.115,-0.115
6296,-0.110,-0.115
6297,-0.105,-0.115
6298,-0.105,-0.120
6299,-0.105,-0.125
6300,-0.110,-0.125
6301,-0.115,-0.125
6302,-0.115,-0.120
6303,-0.115,-0.115
6304,-0.115,-0.115
6305,-0.115,-0.115
6306,-0.115,-0.115
6307,-0.115,-0.115
6308,-0.110,-0.120
6309,-0.105,-0.125
6310,-0.105,-0.120
6311,-0.105,-0.115
6312,-0.100,-0.110
6313,-0.095,-0.105
6314,-0.095,-0.110
6315,-0.095,-0.115
6316,-0.095,-0.115
6317,-0.095,-0.115
6318,-0.090,-0.110
6319,-0.085,-0.105
6320,-0.090,-0.110
6321,-0.095,-0.115
6322,-0.095,-0.110
6323,-0.095,-0.105
6324,-0.095,-0.110
6325,-0.095,-0.115
6326,-0.090,-0.110
6327,-0.085,-0.105
6328,-0.085,-0.110
6329,-0.085,-0.115
6330,-0.090,-0.110
6331,-0.095,-0.105
6332,-0.095,-0.110
6333,-0.095,-0.115
6334,-0.095,-0.115
6335,-0.095,-0.110
6336,-0.095,-0.105
6337,-0.095,-0.110
6338,-0.095,-0.115
6339,-0.095,-0.120
6340,-0.095,-0.125
6341,-0.095,-0.120
6342,-0.095,-0.115
6343,-0.095,-0.115
6344,-0.095,-0.115
6345,-0.100,-0.115
6346,-0.105,-0.115
6347,-0.100,-0.120
6348,-0.095,-0.125
6349,-0.090,-0.120
6350,-0.085,-0.115
6351,-0.080,-0.115
6352,-0.075,-0.115
6353,-0.070,-0.110
6354,-0.065,-0.105
6355,-0.060,-0.105
6356,-0.050,-0.100
6357,-0.040,-0.090
6358,-0.035,-0.085
6359,-0.030,-0.085
6360,-0.020,-0.085
6361,-0.010,-0.085
6362,-0.005,-0.085
6363,-0.010,-0.080
6364,-0.010,-0.075
6365,0.000,-0.080
6366,0.000,-0.085
6367,-0.010,-0.085
6368,-0.015,-0.085
6369,-0.015,-0.090
6370,-0.020,-0.095
6371,-0.030,-0.090
6372,-0.050,-0.085
6373,-0.070,-0.090
6374,-0.080,-0.095
6375,-0.075,-0.095
6376,-0.100,-0.110
6377,-0.105,-0.115
6378,-0.105,-0.120
6379,-0.105,-0.125
6380,-0.110,-0.125
6381,-0.115,-0.125
6382,-0.120,-0.130
6383,-0.125,-0.135
6384,-0.115,-0.135
6385,-0.105,-0.135
6386,-0.110,-0.135
6387,-0.115,-0.135
6388,-0.115,-0.130
6389,-0.115,-0.125
6390,-0.110,-0.125
6391,-0.105,-0.125
6392,-0.110,-0.130
6393,-0.115,-0.135
6394,-0.110,-0.130
6395,-0.105,-0.125
6396,-0.100,-0.125
6397,-0.100,-0.125
6398,-0.110,-0.125
6399,-0.125,-0.125
6400,-0.145,-0.125
6401,-0.115,-0.125
6402,-0.040,-0.130
6403,0.105,-0.130
6404,0.295,-0.120
6405,0.530,-0.105
6406,0.780,-0.085
6407,0.905,-0.055
6408,0.985,-0.025
6409,0.745,-0.050
6410,0.420,-0.095
6411,0.090,-0.185
6412,-0.235,-0.280
6413,-0.345,-0.345
6414,-0.425,-0.410
6415,-0.315,-0.415
6416,-0.180,-0.410
6417,-0.110,-0.300
6418,-0.045,-0.195
6419,-0.045,-0.135
6420,-0.045,-0.075
6421,-0.055,-0.065
6422,-0.065,-0.055
6423,-0.070,-0.065
6424,-0.075,-0.075
6425,-0.075,-0.075
6426,-0.075,-0.075
6427,-0.070,-0.070
6428,-0.065,-0.065
6429,-0.070,-0.070
6430,-0.075,-0.075
6431,-0.070,-0.070
6432,-0.065,-0.065
6433,-0.060,-0.070
6434,-0.055,-0.075
6435,-0.055,-0.070
6436,-0.055,-0.065
6437,-0.045,-0.065
6438,-0.035,-0.065
6439,-0.035,-0.060
6440,-0.035,-0.055
6441,-0.030,-0.055
6442,-0.025,-0.055
6443,-0.025,-0.050
6444,-0.025,-0.045
6445,-0.025,-0.045
6446,-0.020,-0.045
6447,-0.010,-0.045
6448,-0.005,-0.045
6449,0.000,-0.045
6450,0.005,-0.045
6451,0.010,-0.040
6452,0.015,-0.035
6453,0.020,-0.030
6454,0.030,-0.025
6455,0.040,-0.025
6456,0.045,-0.025
6457,0.050,-0.025
6458,0.060,-0.020
6459,0.075,-0.005
6460,0.080,-0.005
6461,0.085,-0.005
6462,0.100,0.000
6463,0.115,0.005
6464,0.125,0.010
6465,0.135,0.015
6466,0.145,0.020
6467,0.155,0.025
6468,0.165,0.035
6469,0.175,0.045
6470,0.185,0.045
6471,0.195,0.045
6472,0.195,0.045
6473,0.195,0.045
6474,0.205,0.045
6475,0.215,0.045
6476,0.215,0.045
6477,0.210,0.045
6478,0.195,0.040
6479,0.180,0.035
6480,0.165,0.020
6481,0.145,0.015
6482,0.125,0.010
6483,0.100,0.000
6484,0.070,-0.010
