ecg
141 -198 -8108 420 90 -202 -0.22 10.63
130 -217 -8092 419 67 -222 -0.23 10.63
135 -215 -8086 426 71 -210 -0.23 10.63
103 -166 -8055 430 81 -217 -0.24 10.64
94 -197 -8095 420 76 -208 -0.24 10.64
135 -199 -8063 413 81 -214 -0.24 10.64
112 -168 -8123 412 78 -217 -0.25 10.64
100 -207 -8105 429 81 -223 -0.25 10.65
143 -169 -8066 418 83 -221 -0.26 10.65
105 -192 -8072 418 76 -234 -0.26 10.65
113 -217 -8136 414 67 -224 -0.26 10.65
114 -191 -8134 417 86 -239 -0.27 10.66
108 -213 -8115 409 71 -227 -0.27 10.66
107 -225 -8087 422 76 -228 -0.28 10.66
142 -200 -8061 428 72 -208 -0.28 10.66
77 -199 -8073 419 76 -211 -0.28 10.67
85 -192 -8048 423 81 -222 -0.29 10.67
126 -194 -8088 419 70 -210 -0.29 10.67
93 -193 -8091 428 85 -222 -0.30 10.67
97 -220 -8049 425 88 -212 -0.30 10.68
107 -191 -8073 417 93 -222 -0.31 10.68
115 -205 -8108 424 77 -222 -0.31 10.68
100 -214 -8069 423 74 -211 -0.31 10.68
107 -193 -8075 429 73 -211 -0.32 10.69
95 -200 -8050 427 86 -215 -0.32 10.69
120 -182 -8088 426 73 -215 -0.32 10.69
100 -196 -8094 428 80 -215 -0.33 10.69
122 -217 -8104 419 87 -219 -0.33 10.70
111 -201 -8120 419 88 -223 -0.34 10.70
118 -212 -8141 426 86 -217 -0.34 10.70
114 -228 -8047 424 78 -225 -0.34 10.70
120 -206 -8073 420 79 -226 -0.35 10.70
106 -198 -8085 422 89 -223 -0.35 10.71
101 -210 -8085 409 85 -214 -0.36 10.71
134 -210 -8070 427 78 -223 -0.36 10.71
92 -207 -8087 416 84 -223 -0.36 10.71
113 -205 -8101 425 77 -221 -0.37 10.72
113 -187 -8073 417 84 -226 -0.37 10.72
104 -210 -8123 427 77 -216 -0.38 10.72
106 -213 -8091 429 85 -221 -0.38 10.72
116 -203 -8068 417 80 -225 -0.38 10.72
112 -208 -8087 422 74 -229 -0.39 10.73
132 -207 -8088 413 85 -218 -0.39 10.73
115 -194 -8077 425 85 -214 -0.40 10.73
105 -195 -8105 422 76 -221 -0.40 10.73
79 -185 -8073 419 85 -221 -0.40 10.74
103 -201 -8074 422 77 -213 -0.41 10.74
119 -203 -8089 422 87 -212 -0.41 10.74
122 -210 -8089 426 64 -218 -0.41 10.74
96 -205 -8081 423 68 -205 -0.42 10.74
115 -200 -8117 426 77 -222 -0.42 10.75
118 -206 -8079 419 77 -219 -0.42 10.75
122 -219 -8100 418 76 -210 -0.43 10.75
104 -220 -8061 438 72 -219 -0.43 10.75
116 -218 -8067 417 73 -226 -0.43 10.76
100 -209 -8083 418 83 -223 -0.48 10.80
100 -188 -8093 422 78 -232 -0.48 10.80
123 -193 -8097 419 71 -216 -0.48 10.80
104 -217 -8102 420 77 -229 -0.49 10.80
124 -215 -8098 423 79 -217 -0.49 10.80
106 -199 -8109 439 80 -222 -0.49 10.81
123 -204 -8077 420 71 -221 -0.50 10.81
125 -200 -8067 417 81 -211 -0.50 10.81
122 -207 -8090 432 92 -216 -0.50 10.81
104 -194 -8090 424 64 -231 -0.51 10.81
130 -204 -8082 426 80 -235 -0.51 10.81
110 -212 -8087 428 75 -202 -0.51 10.82
98 -190 -8102 432 75 -228 -0.51 10.82
89 -207 -8051 419 70 -221 -0.52 10.82
120 -221 -8109 407 75 -221 -0.52 10.82
120 -192 -8058 418 84 -212 -0.52 10.82
85 -202 -8116 417 96 -232 -0.53 10.83
106 -203 -8115 422 88 -226 -0.53 10.83
120 -209 -8101 425 82 -213 -0.54 10.83
106 -203 -8086 430 86 -233 -0.54 10.83
122 -202 -8062 413 82 -226 -0.54 10.83
104 -202 -8083 418 88 -219 -0.55 10.84
124 -208 -8089 427 83 -208 -0.55 10.84
109 -189 -8082 426 78 -217 -0.55 10.84
85 -207 -8093 426 82 -225 -0.56 10.84
121 -219 -8071 419 82 -220 -0.56 10.84
109 -204 -8078 427 87 -215 -0.56 10.85
95 -203 -8078 417 62 -221 -0.57 10.85
137 -195 -8072 424 72 -227 -0.57 10.85
119 -205 -8098 431 73 -229 -0.57 10.85
120 -202 -8061 431 77 -217 -0.58 10.85
98 -224 -8101 433 82 -221 -0.58 10.86
119 -193 -8076 413 72 -210 -0.58 10.86
85 -206 -8078 423 77 -212 -0.59 10.86
128 -212 -8102 423 74 -218 -0.59 10.86
123 -199 -8084 417 76 -218 -0.59 10.86
104 -207 -8106 415 79 -216 -0.59 10.87
121 -196 -8078 420 75 -210 -0.60 10.87
119 -209 -8073 423 83 -209 -0.60 10.87
120 -174 -8079 417 63 -228 -0.60 10.87
112 -194 -8079 425 76 -220 -0.61 10.87
111 -205 -8041 428 77 -210 -0.61 10.88
134 -207 -8082 422 74 -220 -0.61 10.88
113 -207 -8065 427 81 -224 -0.61 10.88
106 -204 -8075 425 70 -221 -0.62 10.88
118 -205 -8092 421 86 -215 -0.62 10.88
104 -220 -8109 423 86 -215 -0.62 10.88
103 -218 -8067 427 74 -218 -0.63 10.89
124 -217 -8100 421 82 -222 -0.63 10.89
113 -208 -8090 420 81 -226 -0.63 10.89
110 -194 -8046 420 70 -213 -0.64 10.89
103 -215 -8073 424 84 -231 -0.64 10.89
118 -228 -8068 427 76 -227 -0.64 10.89
105 -188 -8060 423 71 -216 -0.64 10.90
118 -191 -8071 424 83 -216 -0.65 10.90
110 -218 -8099 417 73 -212 -0.65 10.90
143 -204 -8030 414 76 -232 -0.65 10.90
116 -200 -8119 413 85 -200 -0.66 10.90
118 -222 -8084 421 81 -209 -0.66 10.90
108 -200 -8067 429 84 -232 -0.66 10.90
99 -201 -8077 427 70 -214 -0.67 10.91
103 -186 -8068 427 82 -217 -0.67 10.91
126 -192 -8096 406 64 -219 -0.67 10.91
100 -194 -8081 427 81 -221 -0.67 10.91
92 -202 -8088 427 70 -213 -0.68 10.91
101 -188 -8085 420 82 -211 -0.68 10.92
123 -217 -8069 425 90 -224 -0.68 10.92
129 -221 -8070 425 73 -220 -0.69 10.92
83 -206 -8080 424 82 -221 -0.69 10.92
142 -217 -8088 426 80 -210 -0.69 10.92
118 -214 -8119 416 71 -232 -0.70 10.92
110 -194 -8060 422 95 -229 -0.70 10.92
100 -209 -8094 425 75 -225 -0.70 10.93
124 -210 -8105 421 77 -233 -0.70 10.93
129 -190 -8097 420 75 -213 -0.71 10.93
112 -228 -8081 421 72 -213 -0.71 10.93
134 -203 -8092 426 75 -213 -0.71 10.93
103 -204 -8076 427 82 -200 -0.71 10.93
105 -211 -8060 425 85 -208 -0.72 10.94
137 -192 -8088 413 86 -222 -0.72 10.94
121 -198 -8093 418 85 -216 -0.72 10.94
105 -208 -8086 428 86 -213 -0.73 10.94
111 -211 -8119 421 78 -214 -0.73 10.94
101 -216 -8072 428 76 -209 -0.73 10.94
105 -187 -8083 428 71 -221 -0.74 10.95
112 -198 -8082 428 70 -224 -0.74 10.95
121 -218 -8104 430 81 -225 -0.74 10.95
99 -193 -8100 425 78 -223 -0.74 10.95
-1 -1 -1 421 92 -219 -0.75 10.95
110 -204 -8115 421 83 -220 -0.75 10.96
122 -232 -8102 426 72 -224 -0.75 10.96
104 -220 -8111 430 85 -216 -0.75 10.96
112 -229 -8113 430 71 -212 -0.76 10.96
86 -190 -8116 427 70 -219 -0.76 10.96
99 -207 -8095 417 86 -209 -0.76 10.96
117 -222 -8113 427 74 -216 -0.77 10.96
108 -220 -8102 427 79 -207 -0.77 10.96
124 -185 -8074 419 75 -218 -0.77 10.97
91 -202 -8057 415 80 -217 -0.77 10.97
121 -213 -8080 422 73 -218 -0.78 10.97
110 -205 -8069 425 91 -230 -0.78 10.97
127 -191 -8102 417 88 -223 -0.78 10.97
132 -202 -8075 416 64 -211 -0.78 10.97
127 -211 -8109 416 80 -213 -0.79 10.97
108 -213 -8095 420 79 -226 -0.79 10.98
140 -195 -8084 410 87 -216 -0.79 10.98
100 -202 -8081 420 86 -210 -0.80 10.98
102 -210 -8097 425 82 -220 -0.80 10.98
134 -206 -8120 423 77 -213 -0.80 10.98
82 -209 -8074 425 94 -224 -0.84 11.00
74 -201 -8103 418 79 -223 -0.84 11.00
73 -204 -8101 416 84 -231 -0.84 11.00
125 -210 -8096 424 73 -226 -0.84 11.01
102 -231 -8084 422 88 -214 -0.84 11.01
107 -216 -8067 424 82 -225 -0.85 11.01
137 -202 -8087 429 84 -227 -0.85 11.01
103 -205 -8076 418 86 -221 -0.85 11.01
86 -194 -8054 427 72 -214 -0.86 11.01
124 -179 -8075 407 81 -203 -0.86 11.01
117 -199 -8069 417 79 -207 -0.86 11.02
117 -201 -8072 416 82 -216 -0.86 11.02
123 -185 -8100 425 78 -226 -0.86 11.02
151 -219 -8105 429 81 -219 -0.87 11.02
87 -208 -8080 416 90 -215 -0.87 11.02
102 -201 -8078 428 73 -225 -0.87 11.02
150 -219 -8102 418 90 -218 -0.87 11.02
119 -194 -8056 423 88 -227 -0.88 11.02
64 -199 -8077 428 94 -218 -0.88 11.03
103 -198 -8078 439 78 -211 -0.88 11.03
135 -208 -8074 419 82 -219 -0.88 11.03
90 -203 -8086 423 83 -202 -0.89 11.03
115 -195 -8107 425 81 -216 -0.89 11.03
145 -223 -8080 423 82 -216 -0.89 11.03
104 -208 -8081 416 75 -224 -0.89 11.03
79 -204 -8091 414 83 -209 -0.89 11.03
128 -195 -8072 424 90 -202 -0.90 11.03
130 -188 -8049 426 74 -213 -0.90 11.04
78 -201 -8092 423 82 -219 -0.90 11.04
132 -206 -8059 417 75 -222 -0.90 11.04
135 -190 -8100 411 88 -214 -0.91 11.04
75 -228 -8086 426 84 -218 -0.91 11.04
81 -203 -8070 422 78 -220 -0.91 11.04
134 -198 -8072 425 80 -213 -0.91 11.04
113 -165 -8096 415 70 -215 -0.94 11.06
140 -213 -8090 427 67 -216 -0.94 11.06
99 -207 -8129 423 69 -220 -0.94 11.06
107 -212 -8079 431 78 -216 -0.94 11.06
113 -192 -8125 418 82 -214 -0.94 11.06
106 -220 -8109 425 83 -217 -0.95 11.06
100 -188 -8103 420 85 -230 -0.95 11.06
87 -204 -8082 425 65 -213 -0.95 11.06
127 -199 -8087 429 81 -221 -0.95 11.06
88 -210 -8101 417 78 -217 -0.95 11.07
114 -195 -8075 422 79 -200 -0.96 11.07
131 -211 -8077 422 80 -222 -0.96 11.07
94 -185 -8101 429 87 -213 -0.96 11.07
117 -187 -8078 420 79 -213 -0.96 11.07
110 -201 -8083 417 75 -215 -0.98 11.08
123 -213 -8092 416 88 -223 -0.98 11.08
85 -190 -8080 422 72 -215 -0.98 11.08
92 -187 -8105 426 82 -210 -0.98 11.08
130 -201 -8087 417 70 -213 -0.99 11.08
99 -188 -8094 419 77 -225 -0.99 11.08
100 -200 -8096 421 58 -219 -0.99 11.08
127 -199 -8073 420 78 -218 -0.99 11.09
138 -207 -8081 420 80 -218 -0.99 11.09
92 -195 -8086 421 79 -222 -0.99 11.09
109 -204 -8088 427 74 -225 -1.00 11.09
115 -207 -8052 423 82 -217 -1.00 11.09
131 -199 -8080 416 74 -207 -1.00 11.09
100 -200 -8087 418 76 -214 -1.00 11.09
132 -183 -8056 422 75 -228 -1.00 11.09
123 -212 -8072 419 85 -212 -1.00 11.09
116 -207 -8106 418 94 -209 -1.01 11.09
130 -188 -8089 425 66 -217 -1.01 11.10
118 -221 -8101 419 75 -211 -1.01 11.10
109 -198 -8074 421 85 -230 -1.01 11.10
110 -207 -8048 413 88 -213 -1.01 11.10
132 -200 -8097 426 87 -216 -1.01 11.10
101 -178 -8076 423 81 -213 -1.02 11.10
108 -221 -8076 431 83 -214 -1.02 11.10
84 -187 -8079 423 92 -223 -1.04 11.11
104 -202 -8075 418 87 -219 -1.04 11.11
117 -189 -8044 433 89 -218 -1.04 11.13
126 -199 -8047 418 69 -235 -1.04 11.13
101 -198 -8033 428 71 -222 -1.05 11.13
111 -225 -8068 417 83 -234 -1.05 11.13
93 -216 -8104 402 94 -202 -1.05 11.13
106 -193 -8086 418 71 -214 -1.05 11.13
100 -204 -8127 414 90 -214 -1.05 11.14
118 -199 -8079 429 73 -227 -1.05 11.14
116 -200 -8106 420 67 -225 -1.06 11.15
96 -207 -8073 429 82 -215 -1.06 11.15
122 -214 -8094 415 71 -229 -1.06 11.15
131 -195 -8068 417 82 -218 -1.06 11.15
125 -204 -8120 421 91 -210 -1.06 11.16
98 -184 -8094 431 75 -221 -1.07 11.16
109 -205 -8085 426 78 -224 -1.07 11.16
117 -229 -8132 414 82 -227 -1.07 11.16
121 -188 -8080 417 78 -203 -1.07 11.16
118 -218 -8069 423 86 -226 -1.07 11.16
105 -225 -8113 423 76 -234 -1.07 11.16
108 -197 -8097 427 86 -198 -1.08 11.16
77 -198 -8055 423 94 -204 -1.08 11.16
141 -178 -8064 429 85 -217 -1.08 11.17
120 -211 -8049 415 85 -221 -1.08 11.17
108 -202 -8088 423 91 -233 -1.09 11.17
139 -198 -8101 426 71 -222 -1.09 11.17
141 -195 -8071 422 76 -225 -1.09 11.17
111 -190 -8094 424 77 -211 -1.09 11.17
116 -207 -8091 421 72 -223 -1.09 11.17
128 -200 -8088 425 73 -231 -1.09 11.17
93 -209 -8126 423 81 -215 -1.09 11.17
127 -204 -8101 419 83 -214 -1.10 11.17
117 -208 -8096 422 76 -210 -1.10 11.17
98 -197 -8088 416 80 -205 -1.10 11.17
109 -199 -8074 418 84 -218 -1.10 11.17
125 -216 -8078 423 74 -213 -1.10 11.18
100 -220 -8071 420 82 -225 -1.10 11.18
113 -182 -8089 422 83 -215 -1.10 11.18
109 -199 -8069 424 75 -223 -1.11 11.18
137 -217 -8099 417 83 -214 -1.13 11.19
125 -234 -8103 418 88 -219 -1.13 11.19
107 -204 -8083 419 80 -213 -1.14 11.19
93 -183 -8109 424 73 -223 -1.14 11.19
115 -237 -8112 422 67 -220 -1.14 11.19
134 -207 -8089 419 93 -218 -1.14 11.19
94 -205 -8059 421 75 -221 -1.14 11.19
96 -220 -8115 412 82 -226 -1.14 11.20
116 -191 -8089 417 89 -210 -1.15 11.20
130 -193 -8066 420 70 -218 -1.15 11.20
85 -224 -8109 424 79 -205 -1.15 11.20
121 -206 -8068 421 77 -214 -1.15 11.20
117 -209 -8094 428 83 -222 -1.15 11.20
100 -206 -8079 426 79 -216 -1.15 11.20
87 -211 -8097 423 79 -213 -1.16 11.20
100 -212 -8099 413 71 -215 -1.16 11.20
124 -210 -8071 425 90 -199 -1.16 11.20
91 -220 -8059 426 92 -217 -1.16 11.20
114 -210 -8090 425 82 -218 -1.16 11.20
131 -202 -8086 425 69 -220 -1.16 11.20
83 -213 -8087 421 81 -231 -1.16 11.20
109 -192 -8088 430 79 -208 -1.17 11.21
145 -209 -8092 430 82 -220 -1.17 11.21
105 -234 -8090 419 75 -218 -1.17 11.21
93 -199 -8076 424 85 -212 -1.17 11.21
147 -207 -8081 429 92 -210 -1.17 11.21
104 -230 -8099 425 78 -216 -1.17 11.21
96 -183 -8086 427 73 -227 -1.18 11.21
125 -208 -8101 426 75 -216 -1.18 11.21
115 -209 -8080 424 87 -235 -1.18 11.21
77 -210 -8058 423 78 -221 -1.18 11.21
127 -211 -8119 424 89 -203 -1.18 11.21
94 -189 -8074 422 81 -216 -1.18 11.22
96 -207 -8112 420 86 -216 -1.19 11.22
131 -197 -8074 415 66 -209 -1.19 11.22
132 -202 -8076 424 92 -226 -1.19 11.22
77 -218 -8039 423 78 -224 -1.19 11.22
122 -182 -8095 422 92 -220 -1.19 11.22
138 -199 -8116 424 83 -217 -1.19 11.22
110 -217 -8101 422 82 -218 -1.19 11.22
110 -208 -8069 426 80 -221 -1.20 11.22
120 -190 -8071 421 75 -213 -1.21 11.23
102 -236 -8065 427 93 -222 -1.21 11.23
76 -172 -8082 425 67 -225 -1.21 11.23
92 -237 -8075 417 71 -231 -1.21 11.23
118 -211 -8084 417 69 -211 -1.21 11.23
99 -189 -8100 418 65 -220 -1.21 11.23
84 -220 -8096 409 83 -205 -1.22 11.23
114 -189 -8096 434 80 -205 -1.22 11.23
120 -200 -8101 421 80 -217 -1.22 11.23
102 -200 -8082 424 72 -221 -1.22 11.23
80 -202 -8085 416 73 -220 -1.22 11.24
107 -191 -8114 420 78 -212 -1.22 11.24
104 -160 -8104 420 83 -221 -1.22 11.24
113 -204 -8091 428 74 -231 -1.22 11.24
110 -216 -8102 424 80 -217 -1.22 11.24
135 -209 -8096 427 77 -215 -1.22 11.24
103 -203 -8053 424 79 -214 -1.23 11.24
123 -200 -8080 414 83 -223 -1.23 11.24
123 -192 -8124 426 73 -212 -1.23 11.24
95 -193 -8076 417 75 -213 -1.23 11.24
86 -205 -8068 416 91 -223 -1.23 11.24
135 -218 -8094 429 68 -211 -1.23 11.24
97 -214 -8075 425 77 -219 -1.23 11.24
111 -204 -8078 424 85 -211 -1.23 11.24
150 -214 -8101 421 84 -205 -1.24 11.25
131 -194 -8090 428 85 -210 -1.24 11.25
83 -203 -8116 410 78 -215 -1.24 11.25
107 -187 -8101 422 85 -211 -1.24 11.25
141 -212 -8102 425 87 -211 -1.24 11.25
123 -208 -8067 421 75 -204 -1.24 11.25
110 -196 -8103 422 82 -224 -1.24 11.25
113 -215 -8104 423 74 -209 -1.24 11.25
142 -210 -8105 430 80 -225 -1.24 11.25
102 -204 -8093 421 85 -209 -1.25 11.25
107 -190 -8120 431 72 -224 -1.25 11.25
148 -205 -8077 426 80 -214 -1.25 11.25
111 -178 -8078 428 81 -211 -1.25 11.25
98 -229 -8090 424 78 -221 -1.25 11.25
115 -200 -8085 418 89 -221 -1.25 11.25
114 -213 -8084 416 77 -222 -1.25 11.25
112 -208 -8097 423 79 -213 -1.25 11.25
138 -223 -8091 424 79 -219 -1.27 11.26
118 -218 -8078 419 69 -220 -1.27 11.26
127 -198 -8092 419 78 -220 -1.27 11.26
120 -182 -8084 425 72 -227 -1.27 11.26
116 -202 -8056 411 72 -207 -1.27 11.26
138 -211 -8077 422 73 -227 -1.27 11.26
109 -215 -8067 429 79 -218 -1.27 11.26
103 -218 -8096 422 73 -220 -1.27 11.26
120 -206 -8082 419 86 -214 -1.27 11.27
137 -202 -8104 423 80 -219 -1.28 11.27
108 -202 -8076 426 73 -203 -1.28 11.27
119 -197 -8101 421 75 -207 -1.28 11.27
124 -188 -8090 416 82 -223 -1.28 11.27
131 -209 -8079 414 80 -206 -1.29 11.27
97 -211 -8079 432 80 -204 -1.29 11.27
99 -220 -8070 426 76 -229 -1.29 11.27
106 -189 -8079 422 86 -211 -1.29 11.28
85 -201 -8095 418 62 -215 -1.29 11.28
89 -211 -8100 423 86 -222 -1.30 11.28
143 -199 -8096 423 80 -223 -1.30 11.28
95 -209 -8088 429 74 -218 -1.30 11.28
103 -206 -8065 420 89 -222 -1.30 11.28
123 -196 -8099 425 62 -209 -1.30 11.28
100 -205 -8070 428 82 -207 -1.30 11.28
93 -172 -8062 420 66 -216 -1.30 11.28
120 -191 -8075 423 73 -218 -1.30 11.28
120 -202 -8084 412 80 -200 -1.30 11.28
105 -193 -8118 421 68 -225 -1.30 11.28
102 -216 -8128 424 89 -213 -1.31 11.28
116 -176 -8061 417 72 -210 -1.31 11.28
110 -199 -8108 422 87 -219 -1.31 11.28
96 -203 -8078 434 76 -224 -1.31 11.28
119 -192 -8075 416 83 -216 -1.31 11.28
87 -208 -8090 425 84 -225 -1.31 11.28
116 -178 -8058 428 79 -235 -1.31 11.29
126 -201 -8106 420 81 -216 -1.31 11.29
113 -205 -8093 425 81 -221 -1.31 11.29
97 -212 -8064 426 73 -207 -1.32 11.29
111 -206 -8096 424 82 -212 -1.32 11.29
149 -205 -8068 426 76 -222 -1.32 11.29
81 -189 -8101 427 90 -217 -1.32 11.29
93 -197 -8061 423 75 -220 -1.32 11.29
122 -197 -8079 418 85 -217 -1.32 11.29
107 -210 -8082 422 77 -218 -1.32 11.29
77 -207 -8086 427 84 -220 -1.32 11.29
138 -219 -8091 424 73 -230 -1.32 11.29
123 -207 -8050 428 62 -228 -1.32 11.29
89 -196 -8116 430 81 -220 -1.32 11.29
108 -194 -8080 422 87 -226 -1.32 11.29
143 -215 -8088 418 89 -225 -1.33 11.29
104 -191 -8086 423 78 -206 -1.33 11.31
113 -220 -8064 426 82 -219 -1.33 11.31
120 -219 -8081 418 83 -223 -1.33 11.31
99 -200 -8094 422 77 -215 -1.33 11.31
104 -218 -8079 434 81 -212 -1.33 11.31
114 -223 -8106 411 84 -214 -1.33 11.31
116 -217 -8069 420 82 -235 -1.33 11.31
106 -187 -8056 422 78 -202 -1.33 11.31
121 -189 -8090 426 75 -210 -1.34 11.32
122 -191 -8127 425 70 -212 -1.34 11.32
85 -191 -8066 418 70 -209 -1.34 11.32
123 -223 -8081 419 66 -221 -1.34 11.32
124 -203 -8072 421 81 -220 -1.34 11.32
88 -215 -8103 422 77 -236 -1.34 11.32
123 -183 -8091 422 81 -213 -1.34 11.32
136 -210 -8071 423 84 -217 -1.34 11.32
105 -214 -8075 423 85 -215 -1.34 11.32
95 -207 -8087 420 85 -220 -1.34 11.32
128 -209 -8106 431 74 -221 -1.34 11.32
117 -196 -8123 428 75 -220 -1.34 11.32
125 -207 -8130 426 77 -218 -1.34 11.32
99 -222 -8087 427 78 -213 -1.34 11.32
109 -201 -8068 419 70 -208 -1.34 11.32
109 -203 -8059 418 81 -227 -1.35 11.32
118 -204 -8086 427 81 -231 -1.35 11.32
127 -203 -8102 420 88 -228 -1.35 11.32
110 -155 -8073 416 76 -223 -1.35 11.32
114 -215 -8076 416 86 -231 -1.35 11.33
102 -237 -8090 423 75 -203 -1.35 11.33
105 -186 -8071 420 81 -228 -1.35 11.33
120 -190 -8086 421 95 -232 -1.35 11.33
106 -199 -8086 430 76 -219 -1.35 11.34
89 -189 -8095 420 84 -210 -1.36 11.34
96 -201 -8093 428 79 -215 -1.36 11.34
128 -187 -8087 425 81 -223 -1.36 11.34
147 -233 -8124 421 85 -203 -1.36 11.34
99 -212 -8059 423 77 -209 -1.36 11.34
98 -180 -8077 422 89 -229 -1.36 11.35
88 -199 -8105 420 87 -222 -1.36 11.35
120 -200 -8080 421 81 -219 -1.36 11.35
111 -181 -8067 420 79 -225 -1.36 11.35
95 -236 -8072 420 62 -227 -1.36 11.35
156 -206 -8078 432 87 -217 -1.37 11.35
121 -197 -8074 423 74 -218 -1.37 11.35
98 -208 -8078 424 88 -214 -1.37 11.35
113 -204 -8089 426 73 -211 -1.37 11.35
147 -192 -8085 424 81 -215 -1.37 11.35
115 -210 -8069 428 76 -209 -1.37 11.35
137 -186 -8059 430 81 -221 -1.37 11.35
134 -199 -8091 423 84 -219 -1.37 11.35
111 -193 -8100 423 80 -227 -1.37 11.35
110 -207 -8075 432 94 -229 -1.37 11.35
128 -207 -8116 426 69 -207 -1.37 11.35
116 -214 -8096 427 79 -219 -1.38 11.37
99 -236 -8095 428 80 -216 -1.38 11.37
122 -225 -8091 425 65 -206 -1.38 11.37
110 -174 -8089 417 75 -214 -1.38 11.37
99 -214 -8130 419 78 -223 -1.38 11.37
129 -201 -8088 424 85 -216 -1.38 11.37
79 -204 -8074 413 64 -208 -1.38 11.37
102 -206 -8080 413 82 -228 -1.38 11.37
134 -192 -8107 414 75 -215 -1.38 11.37
87 -190 -8100 424 73 -213 -1.39 11.37
119 -221 -8071 430 65 -219 -1.39 11.37
136 -182 -8083 428 86 -210 -1.39 11.37
61 -208 -8080 425 73 -222 -1.39 11.37
89 -218 -8060 424 82 -210 -1.39 11.37
147 -185 -8089 421 67 -217 -1.39 11.37
114 -231 -8087 426 73 -236 -1.39 11.37
85 -200 -8092 425 64 -218 -1.39 11.37
118 -193 -8093 421 71 -204 -1.39 11.38
143 -227 -8110 420 80 -225 -1.39 11.38
85 -210 -8087 425 74 -212 -1.39 11.38
-1 -1 -1 422 73 -230 -1.39 11.38
131 -230 -8056 429 80 -210 -1.39 11.38
128 -190 -8067 427 83 -209 -1.39 11.38
74 -201 -8088 420 70 -209 -1.39 11.38
129 -200 -8086 420 90 -218 -1.39 11.38
143 -196 -8085 400 93 -210 -1.39 11.38
96 -214 -8072 424 77 -216 -1.40 11.38
93 -199 -8110 419 71 -218 -1.40 11.38
146 -203 -8075 425 85 -239 -1.41 11.39
129 -178 -8093 421 67 -219 -1.41 11.39
82 -227 -8130 422 85 -206 -1.41 11.39
68 -206 -8125 429 69 -218 -1.41 11.39
126 -190 -8129 423 70 -224 -1.41 11.39
113 -212 -8125 420 82 -226 -1.41 11.39
87 -198 -8105 421 65 -223 -1.41 11.39
101 -193 -7977 436 88 -216 -1.41 11.39
130 -212 -8048 422 66 -222 -1.41 11.39
103 -197 -8115 427 70 -223 -1.41 11.39
81 -191 -8167 429 64 -211 -1.41 11.39
149 -202 -8053 422 91 -224 -1.42 11.39
128 -198 -8085 423 66 -222 -1.42 11.39
67 -196 -8079 425 69 -206 -1.42 11.39
140 -201 -8049 410 80 -217 -1.42 11.39
150 -204 -8071 431 82 -208 -1.42 11.39
65 -183 -8081 425 58 -224 -1.42 11.39
114 -204 -8114 429 91 -227 -1.42 11.39
137 -193 -8117 423 84 -224 -1.42 11.39
55 -195 -8087 411 80 -215 -1.42 11.39
93 -178 -8113 423 94 -202 -1.42 11.39
149 -217 -8138 428 91 -215 -1.42 11.39
86 -210 -8058 421 94 -226 -1.42 11.39
54 -203 -8041 417 62 -230 -1.43 11.39
166 -207 -8096 425 68 -221 -1.42 11.40
110 -198 -8114 413 81 -210 -1.43 11.40
60 -205 -8116 430 86 -218 -1.43 11.40
128 -189 -8056 429 75 -223 -1.43 11.40
158 -211 -8005 420 80 -216 -1.43 11.40
73 -189 -8051 419 76 -209 -1.43 11.40
134 -201 -8147 419 73 -211 -1.43 11.40
151 -225 -8112 424 90 -203 -1.43 11.40
118 -195 -8069 439 79 -211 -1.43 11.40
76 -177 -8054 415 104 -221 -1.43 11.40
123 -214 -8112 424 80 -209 -1.44 11.40
129 -234 -8080 420 65 -209 -1.44 11.40
89 -189 -8105 428 78 -212 -1.44 11.40
96 -171 -8075 424 71 -211 -1.44 11.40
99 -219 -8089 424 74 -219 -1.44 11.40
151 -180 -8024 426 75 -223 -1.44 11.41
104 -190 -8056 419 67 -224 -1.44 11.41
98 -218 -8089 421 84 -205 -1.45 11.41
120 -190 -8052 424 74 -226 -1.45 11.41
125 -212 -8106 422 84 -221 -1.45 11.41
109 -218 -8088 427 74 -216 -1.45 11.41
87 -177 -8078 421 95 -214 -1.45 11.41
113 -201 -8087 422 72 -215 -1.45 11.41
120 -209 -8076 416 72 -221 -1.45 11.41
99 -196 -8100 423 71 -231 -1.45 11.41
97 -230 -8051 422 82 -220 -1.45 11.41
125 -225 -8107 428 90 -210 -1.45 11.41
105 -206 -8085 422 86 -220 -1.45 11.41
86 -198 -8078 428 78 -224 -1.45 11.41
95 -209 -8080 425 75 -216 -1.45 11.41
129 -204 -8075 413 71 -224 -1.45 11.41
109 -222 -8100 414 90 -210 -1.45 11.41
106 -192 -8048 431 70 -218 -1.45 11.41
120 -194 -8063 430 62 -223 -1.45 11.41
137 -199 -8057 420 100 -222 -1.46 11.41
93 -221 -8088 426 91 -215 -1.46 11.41
124 -185 -8090 433 69 -217 -1.46 11.41
124 -200 -8091 426 86 -208 -1.46 11.41
102 -202 -8073 427 74 -219 -1.46 11.41
95 -180 -8085 418 80 -207 -1.46 11.41
148 -231 -8134 426 78 -208 -1.46 11.41
137 -212 -8115 417 82 -231 -1.46 11.41
99 -185 -8095 430 74 -213 -1.46 11.41
126 -215 -8099 424 82 -217 -1.46 11.41
113 -195 -8059 423 74 -217 -1.46 11.42
95 -180 -8104 427 84 -213 -1.46 11.42
80 -206 -8080 418 71 -210 -1.46 11.42
111 -202 -8108 418 78 -225 -1.46 11.42
109 -212 -8075 420 77 -226 -1.46 11.42
96 -216 -8107 412 85 -209 -1.46 11.42
107 -196 -8107 429 74 -224 -1.46 11.42
133 -178 -8074 419 74 -216 -1.47 11.42
103 -206 -8067 419 76 -217 -1.47 11.42
112 -216 -8095 412 82 -225 -1.47 11.42
120 -183 -8089 424 82 -231 -1.47 11.42
118 -204 -8079 428 76 -231 -1.47 11.42
100 -224 -8064 419 86 -221 -1.47 11.42
97 -231 -8118 422 76 -218 -1.47 11.42
126 -202 -8069 431 83 -213 -1.47 11.42
111 -217 -8054 430 84 -205 -1.47 11.42
111 -193 -8089 428 75 -220 -1.47 11.42
89 -192 -8106 419 85 -213 -1.47 11.44
117 -223 -8104 427 81 -218 -1.47 11.44
122 -201 -8083 425 75 -224 -1.48 11.44
94 -200 -8092 416 80 -225 -1.48 11.44
122 -189 -8111 426 64 -227 -1.48 11.44
118 -216 -8080 424 90 -233 -1.48 11.44
139 -189 -8081 418 92 -201 -1.48 11.44
112 -208 -8101 424 89 -225 -1.48 11.44
104 -213 -8107 417 72 -214 -1.48 11.44
116 -205 -8060 418 78 -222 -1.48 11.44
126 -199 -8109 421 95 -219 -1.48 11.44
95 -193 -8080 416 72 -217 -1.48 11.44
133 -181 -8066 417 68 -219 -1.48 11.44
123 -192 -8098 424 65 -217 -1.48 11.44
119 -212 -8084 426 86 -227 -1.48 11.44
123 -199 -8094 431 74 -219 -1.48 11.44
99 -202 -8077 422 75 -221 -1.48 11.44
-1 -1 -1 939 111 -544 -1.49 11.49
-1 -1 -1 939 111 -544 -1.49 11.54
-1 -1 -1 939 111 -544 -1.50 11.59
-1 -1 -1 939 111 -544 -1.50 11.65
-1 -1 -1 939 111 -544 -1.51 11.70
-1 -1 -1 939 111 -544 -1.52 11.75
-1 -1 -1 939 111 -544 -1.52 11.80
-1 -1 -1 939 111 -544 -1.53 11.85
-1 -1 -1 939 111 -544 -1.53 11.90
-1 -1 -1 939 111 -544 -1.54 11.95
-1 -1 -1 939 111 -544 -1.54 12.00
-1 -1 -1 939 111 -544 -1.62 12.67
-1 -1 -1 939 111 -544 -1.63 12.73
-1 -1 -1 939 111 -544 -1.63 12.78
-1 -1 -1 939 111 -544 -1.64 12.83
-1 -1 -1 939 111 -544 -1.64 12.87
-1 -1 -1 939 111 -544 -1.65 12.92
-1 -1 -1 939 111 -544 -1.65 12.97
-1 -1 -1 939 111 -544 -1.66 13.02
-1 -1 -1 939 111 -544 -1.66 13.06
-1 -1 -1 939 111 -544 -1.67 13.11
-1 -1 -1 939 111 -544 -1.67 13.16
-1 -1 -1 939 111 -544 -1.68 13.20
-1 -1 -1 939 111 -544 -1.68 13.25
-1 -1 -1 939 111 -544 -1.69 13.29
-1 -1 -1 939 111 -544 -1.69 13.34
-1 -1 -1 939 111 -544 -1.70 13.39
-1 -1 -1 939 111 -544 -1.70 13.43
-1 -1 -1 939 111 -544 -1.71 13.48
-1 -1 -1 939 111 -544 -1.71 13.52
-1 -1 -1 939 111 -544 -1.72 13.57
-1 -1 -1 939 111 -544 -1.72 13.61
-1 -1 -1 939 111 -544 -1.73 13.66
-1 -1 -1 939 111 -544 -1.73 13.70
-1 -1 -1 939 111 -544 -1.74 13.75
-1 -1 -1 939 111 -544 -1.74 13.79
-1 -1 -1 939 111 -544 -1.75 13.84
-1 -1 -1 939 111 -544 -1.75 13.88
-1 -1 -1 939 111 -544 -1.76 13.93
-1 -1 -1 939 111 -544 -1.76 13.97
-1 -1 -1 939 111 -544 -1.77 14.01
-1 -1 -1 939 111 -544 -1.77 14.06
-1 -1 -1 939 111 -544 -1.78 14.10
-1 -1 -1 939 111 -544 -1.78 14.14
-1 -1 -1 939 111 -544 -1.79 14.19
-1 -1 -1 939 111 -544 -1.79 14.23
-1 -1 -1 939 111 -544 -1.80 14.27
-1 -1 -1 939 111 -544 -1.80 14.32
-1 -1 -1 939 111 -544 -1.81 14.36
-1 -1 -1 939 111 -544 -1.81 14.40
-1 -1 -1 939 111 -544 -1.82 14.45
-1 -1 -1 939 111 -544 -1.82 14.49
-1 -1 -1 939 111 -544 -1.83 14.53
-1 -1 -1 939 111 -544 -1.83 14.57
-1 -1 -1 939 111 -544 -1.83 14.62
-1 -1 -1 939 111 -544 -1.84 14.66
-1 -1 -1 939 111 -544 -1.84 14.70
-1 -1 -1 939 111 -544 -1.85 14.74
-1 -1 -1 939 111 -544 -1.85 14.78
-1 -1 -1 939 111 -544 -1.86 14.82
-1 -1 -1 939 111 -544 -1.86 14.87
-1 -1 -1 939 111 -544 -1.93 15.49
-1 -1 -1 939 111 -544 -1.94 15.54
-1 -1 -1 939 111 -544 -1.94 15.58
-1 -1 -1 939 111 -544 -1.95 15.62
-1 -1 -1 939 111 -544 -1.95 15.66
-1 -1 -1 939 111 -544 -1.95 15.69
-1 -1 -1 939 111 -544 -1.96 15.73
-1 -1 -1 939 111 -544 -1.96 15.77
-1 -1 -1 939 111 -544 -1.97 15.80
-1 -1 -1 939 111 -544 -1.97 15.84
-1 -1 -1 939 111 -544 -1.97 15.87
-1 -1 -1 939 111 -544 -1.98 15.91
-1 -1 -1 939 111 -544 -1.98 15.95
-1 -1 -1 939 111 -544 -1.99 15.99
-1 -1 -1 939 111 -544 -1.99 16.03
-1 -1 -1 939 111 -544 -2.00 16.06
-1 -1 -1 939 111 -544 -2.00 16.10
-1 -1 -1 939 111 -544 -2.00 16.14
-1 -1 -1 939 111 -544 -2.01 16.18
-1 -1 -1 939 111 -544 -2.01 16.21
-1 -1 -1 939 111 -544 -2.02 16.25
-1 -1 -1 939 111 -544 -2.02 16.29
-1 -1 -1 939 111 -544 -2.02 16.33
-1 -1 -1 939 111 -544 -2.03 16.36
-1 -1 -1 939 111 -544 -2.03 16.40
-1 -1 -1 939 111 -544 -2.04 16.44
-1 -1 -1 939 111 -544 -2.04 16.47
-1 -1 -1 939 111 -544 -2.05 16.51
-1 -1 -1 939 111 -544 -2.05 16.55
-1 -1 -1 939 111 -544 -2.05 16.58
-1 -1 -1 939 111 -544 -2.06 16.62
-1 -1 -1 939 111 -544 -2.06 16.65
-1 -1 -1 939 111 -544 -2.07 16.69
-1 -1 -1 939 111 -544 -2.07 16.73
-1 -1 -1 939 111 -544 -2.07 16.76
-1 -1 -1 939 111 -544 -2.08 16.80
-1 -1 -1 939 111 -544 -2.08 16.83
-1 -1 -1 939 111 -544 -2.09 16.87
-1 -1 -1 939 111 -544 -2.09 16.90
-1 -1 -1 939 111 -544 -2.09 16.94
-1 -1 -1 939 111 -544 -2.10 16.97
-1 -1 -1 939 111 -544 -2.10 17.01
-1 -1 -1 939 111 -544 -2.10 17.04
-1 -1 -1 939 111 -544 -2.11 17.08
-1 -1 -1 939 111 -544 -2.11 17.11
-1 -1 -1 939 111 -544 -2.12 17.15
-1 -1 -1 939 111 -544 -2.12 17.18
-1 -1 -1 939 111 -544 -2.12 17.22
-1 -1 -1 939 111 -544 -2.13 17.25
-1 -1 -1 939 111 -544 -2.13 17.28
-1 -1 -1 939 111 -544 -2.14 17.32
-1 -1 -1 939 111 -544 -2.14 17.35
-1 -1 -1 939 111 -544 -2.14 17.39
-1 -1 -1 939 111 -544 -2.15 17.42
-1 -1 -1 939 111 -544 -2.15 17.45
-1 -1 -1 939 111 -544 -2.15 17.49
-1 -1 -1 939 111 -544 -2.16 17.52
-1 -1 -1 939 111 -544 -2.16 17.55
-1 -1 -1 939 111 -544 -2.17 17.59
-1 -1 -1 939 111 -544 -2.17 17.62
-1 -1 -1 939 111 -544 -2.17 17.65
-1 -1 -1 939 111 -544 -2.18 17.69
-1 -1 -1 939 111 -544 -2.18 17.72
-1 -1 -1 939 111 -544 -2.18 17.75
-1 -1 -1 939 111 -544 -2.19 17.78
-1 -1 -1 939 111 -544 -2.19 17.82
-1 -1 -1 939 111 -544 -2.19 17.85
-1 -1 -1 939 111 -544 -2.20 17.88
-1 -1 -1 939 111 -544 -2.20 17.91
-1 -1 -1 939 111 -544 -2.20 17.95
-1 -1 -1 939 111 -544 -2.21 17.98
-1 -1 -1 939 111 -544 -2.26 18.44
-1 -1 -1 939 111 -544 -2.26 18.48
-1 -1 -1 939 111 -544 -2.27 18.51
-1 -1 -1 939 111 -544 -2.27 18.54
-1 -1 -1 939 111 -544 -2.27 18.57
-1 -1 -1 939 111 -544 -2.28 18.60
-1 -1 -1 939 111 -544 -2.28 18.63
-1 -1 -1 939 111 -544 -2.28 18.66
152 -166 -8092 -1 -26 92 0.00 -0.00
152 -167 -8080 11 -38 97 0.01 -0.00
161 -182 -8111 6 -28 92 0.01 -0.01
164 -182 -8069 12 -16 77 0.02 -0.01
145 -192 -8073 14 -30 81 0.03 -0.01
151 -187 -8082 -1 -33 85 0.03 -0.02
160 -168 -8073 8 -24 88 0.04 -0.02
166 -175 -8093 0 -21 83 0.04 -0.02
139 -190 -8086 12 -18 85 0.05 -0.03
133 -191 -8093 1 -27 94 0.05 -0.03
145 -179 -8025 10 -35 76 0.06 -0.03
164 -192 -8064 -4 -36 87 0.06 -0.04
137 -183 -8074 6 -16 65 0.07 -0.04
130 -171 -8093 4 -33 88 0.07 -0.04
210 -185 -8120 9 -23 68 0.08 -0.05
168 -171 -8105 -6 -33 57 0.09 -0.05
124 -190 -8049 -2 -33 92 0.09 -0.05
165 -180 -8058 13 -16 76 0.09 -0.06
198 -171 -8131 1 -17 86 0.10 -0.06
141 -202 -8169 2 -30 85 0.11 -0.06
108 -175 -8068 11 -13 89 0.11 -0.06
207 -158 -8049 12 -30 70 0.12 -0.07
180 -181 -8101 4 -46 76 0.12 -0.07
113 -169 -8079 -2 -30 76 0.13 -0.07
135 -186 -8114 14 -22 70 0.13 -0.08
213 -181 -8104 -3 -34 88 0.14 -0.08
161 -161 -8070 1 -20 83 0.14 -0.08
121 -212 -8092 3 -25 87 0.15 -0.09
164 -192 -8082 -1 -31 66 0.15 -0.09
178 -171 -8114 6 -18 80 0.16 -0.09
133 -192 -8110 -4 -26 77 0.16 -0.10
108 -190 -8055 14 -24 76 0.17 -0.10
178 -170 -8080 8 -19 74 0.17 -0.10
175 -169 -8127 7 -12 84 0.17 -0.10
106 -192 -8099 7 -28 76 0.18 -0.11
166 -206 -8067 2 -45 84 0.18 -0.11
184 -149 -8049 8 -32 71 0.19 -0.11
133 -197 -8057 2 -28 91 0.19 -0.12
79 -198 -8077 5 -15 85 0.20 -0.12
169 -179 -8098 -3 -27 81 0.20 -0.12
183 -171 -8104 -13 -30 76 0.21 -0.12
141 -181 -8192 0 -32 88 0.21 -0.13
138 -176 -8061 17 -19 90 0.22 -0.13
181 -172 -8082 4 -29 90 0.22 -0.13
122 -154 -8057 -2 -27 77 0.23 -0.14
123 -174 -8125 1 -28 86 0.23 -0.14
178 -175 -8081 10 -13 86 0.24 -0.14
186 -166 -8053 2 -21 84 0.24 -0.14
125 -196 -8065 14 -16 82 0.25 -0.15
158 -172 -8061 5 -33 80 0.35 -0.21
185 -176 -7981 6 -34 78 0.36 -0.21
176 -189 -8083 -4 -31 83 0.36 -0.22
110 -172 -8129 8 -26 76 0.36 -0.22
144 -179 -8112 15 -20 88 0.37 -0.22
160 -172 -8114 4 -28 87 0.37 -0.22
117 -181 -8077 8 -29 78 0.38 -0.23
117 -183 -8070 5 -31 75 0.38 -0.23
187 -180 -8083 2 -30 86 0.39 -0.23
179 -165 -8110 0 -37 78 0.39 -0.23
120 -202 -8089 16 -23 82 0.40 -0.24
148 -169 -8076 -1 -38 77 0.40 -0.24
189 -155 -8077 12 -35 76 0.41 -0.24
129 -183 -8061 9 -12 79 0.41 -0.24
133 -171 -8081 7 -40 83 0.41 -0.25
190 -180 -8056 11 -23 55 0.42 -0.25
130 -184 -8087 0 -29 85 0.42 -0.25
144 -189 -8123 7 -10 74 0.43 -0.25
165 -183 -8071 6 -32 87 0.43 -0.26
158 -202 -8107 -1 -35 95 0.43 -0.26
150 -196 -8102 7 -26 79 0.44 -0.26
173 -147 -8108 521 5 -244 0.44 -0.25
211 -147 -8101 5 -38 89 0.45 -0.25
116 -176 -8069 3 -24 86 0.45 -0.25
122 -175 -8082 8 -24 78 0.45 -0.26
179 -182 -8081 -3 -25 74 0.46 -0.26
156 -167 -8108 6 -35 80 0.46 -0.26
125 -198 -8116 1 -36 64 0.47 -0.26
153 -180 -8089 7 -24 91 0.47 -0.27
163 -161 -8064 14 -35 74 0.48 -0.27
123 -180 -8084 -2 -26 91 0.48 -0.27
114 -181 -8054 8 -37 71 0.48 -0.27
199 -189 -8093 10 -22 77 0.49 -0.27
172 -188 -8073 1 -32 76 0.49 -0.28
140 -182 -8101 7 -18 89 0.50 -0.28
160 -151 -8118 12 -31 76 0.50 -0.28
177 -178 -8098 7 -33 87 0.50 -0.28
133 -163 -8051 2 -23 83 0.51 -0.29
124 -174 -8093 9 -18 84 0.51 -0.29
158 -170 -8090 11 -20 73 0.52 -0.29
200 -182 -8124 16 -26 78 0.52 -0.29
145 -185 -8137 0 -23 80 0.53 -0.29
103 -195 -8061 13 -27 85 0.53 -0.30
182 -172 -8068 4 -19 81 0.53 -0.30
218 -183 -8100 0 -25 70 0.54 -0.30
99 -215 -8083 4 -21 81 0.54 -0.30
138 -168 -8110 9 -13 83 0.54 -0.31
200 -172 -8099 15 -20 80 0.55 -0.31
147 -190 -8040 11 -33 67 0.55 -0.31
99 -193 -8037 6 -28 87 0.56 -0.31
188 -168 -8057 14 -30 74 0.56 -0.32
172 -184 -8131 5 -35 85 0.57 -0.32
126 -159 -8129 6 -24 86 0.57 -0.32
148 -194 -8085 10 -13 91 0.57 -0.32
186 -144 -8052 3 -35 68 0.58 -0.32
137 -167 -8098 9 -41 81 0.58 -0.33
98 -179 -8133 1 -22 62 0.58 -0.33
192 -178 -8080 14 -35 74 0.59 -0.33
221 -183 -8083 11 -23 90 0.59 -0.33
129 -173 -8082 -5 -19 82 0.60 -0.34
131 -195 -8063 8 -21 83 0.60 -0.34
189 -176 -8064 1 -25 86 0.60 -0.34
163 -180 -8105 -4 -34 92 0.61 -0.34
112 -182 -8100 6 -32 87 0.61 -0.34
144 -185 -8096 2 -22 78 0.61 -0.35
210 -181 -8117 7 -32 85 0.62 -0.35
96 -170 -8051 -4 -29 92 0.62 -0.35
105 -184 -8092 11 -29 79 0.62 -0.35
200 -147 -8073 10 -31 75 0.63 -0.36
135 -180 -8069 4 -27 79 0.63 -0.36
179 -151 -8087 13 -24 78 0.82 -0.46
192 -148 -8092 2 -34 74 0.82 -0.46
147 -176 -8065 2 -26 77 0.82 -0.46
124 -196 -8065 5 -5 90 0.83 -0.46
174 -140 -8078 8 -28 79 0.83 -0.46
164 -155 -8118 9 -25 81 0.90 -0.51
124 -180 -8067 5 -35 80 0.91 -0.51
162 -164 -8063 2 -32 72 0.91 -0.51
155 -204 -8093 1 -21 82 0.91 -0.51
157 -181 -8111 -4 -28 76 0.91 -0.52
129 -183 -8121 10 -35 80 0.92 -0.52
140 -174 -8077 3 -20 77 0.96 -0.54
133 -181 -8087 4 -42 74 0.97 -0.55
168 -163 -8117 0 -43 69 0.97 -0.55
156 -181 -8086 18 -36 81 0.97 -0.55
139 -151 -8084 2 -32 84 0.97 -0.55
141 -183 -8101 16 -35 76 1.01 -0.57
133 -197 -8073 6 -15 92 1.01 -0.57
176 -185 -8054 1 -15 81 1.07 -0.59
151 -169 -8084 6 -34 77 1.07 -0.59
142 -160 -8093 4 -24 86 1.07 -0.59
138 -196 -8063 2 -23 85 1.10 -0.61
161 -175 -8071 2 -43 79 1.10 -0.61
160 -173 -8061 4 -19 80 1.11 -0.61
178 -176 -8072 4 -29 94 1.11 -0.61
152 -183 -8063 -3 -27 74 1.11 -0.62
137 -176 -8063 8 -34 86 1.11 -0.62
165 -180 -8085 6 -25 86 1.12 -0.62
139 -167 -8130 7 -23 68 1.12 -0.62
141 -156 -8052 13 -28 74 1.12 -0.62
144 -212 -8090 -2 -23 86 1.12 -0.62
150 -178 -8079 -5 -14 73 1.12 -0.62
147 -189 -8101 6 -36 75 1.13 -0.63
147 -181 -8099 5 -18 74 1.13 -0.63
149 -177 -8065 10 -29 86 1.13 -0.63
152 -162 -8119 9 -34 94 1.13 -0.63
154 -176 -8090 1 -30 90 1.16 -0.65
147 -162 -8056 2 -30 82 1.16 -0.65
171 -172 -8110 12 -20 87 1.19 -0.66
147 -169 -8087 6 -33 72 1.19 -0.67
160 -180 -8069 3 -19 69 1.19 -0.67
115 -163 -8098 1 -40 92 1.20 -0.67
153 -171 -8093 8 -19 82 1.20 -0.67
143 -182 -8083 10 -27 91 1.20 -0.67
166 -152 -8085 521 5 -244 1.20 -0.66
142 -189 -8109 6 -13 75 1.20 -0.66
164 -190 -8088 9 -39 93 1.20 -0.66
138 -178 -8092 0 -33 89 1.21 -0.66
126 -185 -8101 6 -28 84 1.21 -0.66
144 -183 -8096 1 -25 70 1.21 -0.66
159 -168 -8063 4 -32 70 1.21 -0.66
158 -175 -8092 1 -32 79 1.22 -0.66
151 -166 -8110 10 -35 77 1.22 -0.66
166 -159 -8089 11 -21 100 1.22 -0.67
164 -180 -8085 1 -32 89 1.22 -0.67
144 -166 -8109 4 -26 87 1.22 -0.67
164 -163 -8083 2 -21 80 1.23 -0.67
140 -178 -8123 8 -32 73 1.23 -0.67
142 -185 -8097 7 -21 84 1.23 -0.67
193 -193 -8093 6 -26 82 1.23 -0.67
144 -189 -8107 11 -29 75 1.23 -0.67
141 -168 -8087 5 -46 79 1.24 -0.68
164 -175 -8103 4 -22 89 1.24 -0.68
153 -171 -8111 -1 -19 84 1.24 -0.68
144 -185 -8072 9 -20 84 1.24 -0.68
168 -171 -8094 2 -27 92 1.24 -0.68
134 -159 -8078 4 -30 67 1.25 -0.68
178 -168 -8138 4 -30 96 1.25 -0.68
161 -159 -8134 5 -28 88 1.25 -0.68
172 -167 -8105 8 -18 80 1.25 -0.68
159 -183 -8101 2 -32 85 1.25 -0.69
156 -143 -8077 6 -26 86 1.25 -0.69
171 -169 -8058 -2 -29 80 1.26 -0.69
hello world
170 -152 -8099 8 -33 80 1.28 -0.70
166 -156 -8099 0 -31 73 1.28 -0.70
164 -177 -8061 7 -31 73 1.28 -0.71
111 -171 -8098 6 -21 74 1.28 -0.71
121 -177 -8123 2 -24 71 1.29 -0.71
198 -186 -8066 9 -33 96 1.29 -0.71
158 -172 -8067 4 -34 64 1.29 -0.71
89 -202 -8081 13 -32 79 1.29 -0.71
152 -157 -8100 6 -29 75 1.29 -0.71
198 -156 -8056 5 -33 89 1.30 -0.71
118 -199 -8075 -6 -16 79 1.30 -0.71
123 -160 -8084 5 -33 78 1.30 -0.72
177 -159 -8067 7 -35 72 1.30 -0.72
157 -154 -8096 12 -36 80 1.30 -0.72
113 -176 -8084 0 -24 87 1.30 -0.72
151 -160 -8089 10 -27 77 1.30 -0.72
182 -158 -8065 7 -34 89 1.31 -0.72
117 -190 -8086 2 -28 72 1.31 -0.72
114 -199 -8082 6 -28 83 1.31 -0.72
175 -158 -8096 9 -34 88 1.31 -0.72
151 -188 -8078 2 -26 91 1.31 -0.73
130 -164 -8108 7 -13 81 1.31 -0.73
142 -174 -8111 6 -28 83 1.32 -0.73
194 -181 -8086 6 -35 86 1.32 -0.73
129 -187 -8088 2 -23 88 1.32 -0.73
107 -182 -8066 7 -21 85 1.32 -0.73
205 -173 -8087 11 -40 74 1.32 -0.73
160 -161 -8101 10 -12 81 1.33 -0.73
101 -196 -8097 0 -21 88 1.33 -0.73
188 -170 -8049 8 -31 93 1.33 -0.73
142 -147 -8064 1 -30 79 1.33 -0.74
131 -215 -8106 7 -35 90 1.33 -0.74
109 -181 -8075 10 -28 87 1.33 -0.74
212 -181 -8105 -1 -29 73 1.33 -0.74
133 -198 -8085 -7 -25 75 1.34 -0.74
117 -181 -8058 10 -35 94 1.34 -0.74
205 -169 -8117 1 -30 91 1.34 -0.74
173 -164 -8112 13 -21 92 1.34 -0.74
77 -186 -8092 3 -31 77 1.34 -0.74
163 -211 -8109 9 -29 75 1.35 -0.75
203 -152 -8079 -1 -17 75 1.35 -0.75
99 -161 -8107 5 -25 88 1.35 -0.75
115 -193 -8105 8 -39 84 1.35 -0.75
207 -134 -8073 10 -32 73 1.35 -0.75
170 -194 -8061 5 -25 74 1.36 -0.75
72 -190 -8090 5 -31 93 1.36 -0.75
194 -182 -8093 3 -33 68 1.36 -0.75
207 -176 -8078 -4 -34 89 1.36 -0.75
94 -177 -8094 5 -23 74 1.36 -0.75
105 -183 -8106 11 -32 81 1.36 -0.76
198 -167 -8071 -5 -16 75 1.36 -0.76
136 -148 -8092 11 -36 79 1.37 -0.76
107 -158 -8086 2 -36 78 1.37 -0.76
174 -185 -8099 -4 -15 73 1.37 -0.76
188 -169 -8094 12 -29 72 1.37 -0.76
122 -184 -8077 -2 -24 76 1.37 -0.76
135 -204 -8087 4 -34 74 1.37 -0.76
218 -150 -8100 7 -24 84 1.37 -0.76
147 -161 -8091 3 -28 87 1.38 -0.76
92 -198 -8072 3 -34 75 1.38 -0.77
194 -162 -8043 -2 -25 74 1.38 -0.77
223 -172 -8102 8 -32 86 1.38 -0.77
99 -182 -8066 9 -28 70 1.38 -0.77
117 -176 -8077 6 -25 85 1.38 -0.77
192 -167 -8110 8 -27 74 1.38 -0.77
172 -211 -8071 7 -17 72 1.38 -0.77
128 -172 -8073 4 -37 83 1.39 -0.77
142 -165 -8079 7 -34 80 1.39 -0.77
203 -170 -8078 7 -29 80 1.39 -0.77
137 -179 -8064 5 -34 80 1.39 -0.78
108 -167 -8073 7 -31 74 1.39 -0.78
178 -161 -8105 6 -17 72 1.39 -0.78
189 -174 -8077 2 -23 76 1.39 -0.78
105 -176 -8047 1 -19 86 1.40 -0.78
155 -162 -8092 7 -16 66 1.40 -0.78
127 -204 -8111 5 -29 85 1.41 -0.77
